# i correlation
1 0.007132
2 0.006497
3 0.005888
4 0.005290
5 0.004814
6 0.004429
7 0.004122
8 0.003847
9 0.003687
10 0.003532
11 0.003434
12 0.003300
13 0.003133
14 0.003028
15 0.002915
16 0.002787
17 0.002705
18 0.002687
19 0.002708
20 0.002705
21 0.002773
22 0.002851
23 0.002932
24 0.002972
25 0.003000
26 0.003074
27 0.003037
28 0.003012
29 0.002964
30 0.002893
31 0.002823
32 0.002841
33 0.002817
34 0.002778
35 0.002710
36 0.002590
37 0.002535
38 0.002437
39 0.002310
40 0.002326
41 0.002381
42 0.002471
43 0.002582
44 0.002747
45 0.002922
46 0.003072
47 0.003140
48 0.003116
49 0.003144
50 0.003141
51 0.003108
52 0.003091
53 0.003130
54 0.003161
55 0.003176
56 0.003217
57 0.003232
58 0.003183
59 0.003205
60 0.003152
61 0.002991
62 0.002910
63 0.002792
64 0.002733
65 0.002610
66 0.002548
67 0.002479
68 0.002418
69 0.002359
70 0.002333
71 0.002311
72 0.002345
73 0.002398
74 0.002505
75 0.002563
76 0.002639
77 0.002711
78 0.002796
79 0.002976
80 0.003051
81 0.003129
82 0.003245
83 0.003226
84 0.003222
85 0.003212
86 0.003103
87 0.002996
88 0.002818
89 0.002697
90 0.002565
91 0.002499
92 0.002470
93 0.002459
94 0.002368
95 0.002278
96 0.002219
97 0.002151
98 0.002065
99 0.002096
100 0.002119
101 0.002138
102 0.002112
103 0.002115
104 0.002278
105 0.002386
106 0.002497
107 0.002594
108 0.002755
109 0.002847
110 0.002917
111 0.002982
112 0.002895
113 0.002815
114 0.002754
115 0.002703
116 0.002646
117 0.002577
118 0.002478
119 0.002476
120 0.002479
121 0.002512
122 0.002517
123 0.002506
124 0.002397
125 0.002279
126 0.002294
127 0.002281
128 0.002262
129 0.002245
130 0.002252
131 0.002227
132 0.002205
133 0.002249
134 0.002262
135 0.002256
136 0.002278
137 0.002315
138 0.002311
139 0.002316
140 0.002293
141 0.002302
142 0.002365
143 0.002345
144 0.002248
145 0.002148
146 0.002044
147 0.001902
148 0.001783
149 0.001770
150 0.001705
151 0.001706
152 0.001760
153 0.001869
154 0.001991
155 0.002033
156 0.002085
157 0.002086
158 0.002064
159 0.002057
160 0.002084
161 0.002094
162 0.002034
163 0.002086
164 0.002172
165 0.002305
166 0.002424
167 0.002537
168 0.002534
169 0.002518
170 0.002477
171 0.002410
172 0.002294
173 0.002196
174 0.002125
175 0.002085
176 0.002007
177 0.001934
178 0.001929
179 0.001891
180 0.001864
181 0.001698
182 0.001567
183 0.001466
184 0.001356
185 0.001293
186 0.001320
187 0.001317
188 0.001299
189 0.001305
190 0.001326
191 0.001315
192 0.001297
193 0.001336
194 0.001344
195 0.001395
196 0.001423
197 0.001453
198 0.001515
199 0.001613
200 0.001683
201 0.001757
202 0.001852
203 0.001829
204 0.001783
205 0.001699
206 0.001595
207 0.001509
208 0.001467
209 0.001492
210 0.001534
211 0.001577
212 0.001657
213 0.001761
214 0.001853
215 0.001971
216 0.002045
217 0.002014
218 0.002028
219 0.002000
220 0.002019
221 0.002044
222 0.002078
223 0.002142
224 0.002191
225 0.002236
226 0.002264
227 0.002275
228 0.002271
229 0.002257
230 0.002215
231 0.002133
232 0.002048
233 0.001962
234 0.001872
235 0.001769
236 0.001645
237 0.001544
238 0.001420
239 0.001309
240 0.001164
241 0.001055
242 0.001051
243 0.001051
244 0.001092
245 0.001128
246 0.001196
247 0.001267
248 0.001313
249 0.001386
250 0.001375
251 0.001364
252 0.001380
253 0.001394
254 0.001389
255 0.001341
256 0.001335
257 0.001335
258 0.001381
259 0.001450
260 0.001539
261 0.001624
262 0.001694
263 0.001737
264 0.001728
265 0.001714
266 0.001657
267 0.001579
268 0.001538
269 0.001487
270 0.001429
271 0.001402
272 0.001390
273 0.001362
274 0.001358
275 0.001489
276 0.001562
277 0.001664
278 0.001745
279 0.001847
280 0.001901
281 0.001872
282 0.001832
283 0.001748
284 0.001689
285 0.001561
286 0.001526
287 0.001467
288 0.001420
289 0.001372
290 0.001338
291 0.001294
292 0.001215
293 0.001170
294 0.001156
295 0.001113
296 0.001072
297 0.001081
298 0.001067
299 0.001123
300 0.001202
301 0.001256
302 0.001265
303 0.001297
304 0.001330
305 0.001344
306 0.001434
307 0.001449
308 0.001520
309 0.001644
310 0.001685
311 0.001696
312 0.001690
313 0.001691
314 0.001618
315 0.001560
316 0.001454
317 0.001346
318 0.001215
319 0.001093
320 0.001017
321 0.000973
322 0.000959
323 0.001000
324 0.001069
325 0.001155
326 0.001157
327 0.001132
328 0.001100
329 0.001081
330 0.001026
331 0.001054
332 0.001129
333 0.001230
334 0.001355
335 0.001458
336 0.001586
337 0.001671
338 0.001757
339 0.001832
340 0.001813
341 0.001791
342 0.001715
343 0.001664
344 0.001612
345 0.001606
346 0.001615
347 0.001648
348 0.001610
349 0.001555
350 0.001493
351 0.001421
352 0.001311
353 0.001325
354 0.001316
355 0.001312
356 0.001382
357 0.001456
358 0.001490
359 0.001512
360 0.001505
361 0.001425
362 0.001356
363 0.001259
364 0.001187
365 0.001152
366 0.001111
367 0.001073
368 0.001079
369 0.001158
370 0.001228
371 0.001254
372 0.001303
373 0.001274
374 0.001180
375 0.001141
376 0.001070
377 0.000952
378 0.000906
379 0.000992
380 0.001033
381 0.001124
382 0.001197
383 0.001257
384 0.001239
385 0.001262
386 0.001247
387 0.001167
388 0.001110
389 0.001086
390 0.001102
391 0.001138
392 0.001155
393 0.001192
394 0.001157
395 0.001116
396 0.001066
397 0.000946
398 0.000875
399 0.000905
400 0.000887
401 0.000907
402 0.000938
403 0.000929
404 0.000929
405 0.000917
406 0.000860
407 0.000787
408 0.000724
409 0.000641
410 0.000666
411 0.000634
412 0.000635
413 0.000704
414 0.000758
415 0.000855
416 0.001002
417 0.001172
418 0.001269
419 0.001357
420 0.001414
421 0.001470
422 0.001503
423 0.001511
424 0.001503
425 0.001497
426 0.001436
427 0.001409
428 0.001439
429 0.001455
430 0.001449
431 0.001456
432 0.001527
433 0.001570
434 0.001575
435 0.001522
436 0.001502
437 0.001467
438 0.001468
439 0.001474
440 0.001469
441 0.001447
442 0.001435
443 0.001416
444 0.001422
445 0.001420
446 0.001379
447 0.001303
448 0.001225
449 0.001120
450 0.000988
451 0.000844
452 0.000718
453 0.000649
454 0.000614
455 0.000663
456 0.000654
457 0.000670
458 0.000664
459 0.000691
460 0.000705
461 0.000729
462 0.000785
463 0.000806
464 0.000874
465 0.000942
466 0.001027
467 0.001095
468 0.001160
469 0.001198
470 0.001213
471 0.001201
472 0.001167
473 0.001112
474 0.001134
475 0.001161
476 0.001181
477 0.001184
478 0.001183
479 0.001173
480 0.001199
481 0.001225
482 0.001198
483 0.001239
484 0.001237
485 0.001252
486 0.001262
487 0.001292
488 0.001290
489 0.001284
490 0.001324
491 0.001322
492 0.001371
493 0.001359
494 0.001342
495 0.001358
496 0.001320
497 0.001248
498 0.001237
499 0.001236
500 0.001234
501 0.001244
502 0.001222
503 0.001203
504 0.001139
505 0.001008
506 0.000948
507 0.000894
508 0.000885
509 0.000928
510 0.001014
511 0.001068
512 0.001168
513 0.001278
514 0.001359
515 0.001392
516 0.001419
517 0.001355
518 0.001322
519 0.001228
520 0.001114
521 0.001085
522 0.001041
523 0.000969
524 0.000980
525 0.001025
526 0.001019
527 0.001066
528 0.001099
529 0.001118
530 0.001073
531 0.000996
532 0.000906
533 0.000846
534 0.000795
535 0.000791
536 0.000867
537 0.000919
538 0.000982
539 0.001060
540 0.001097
541 0.001107
542 0.001125
543 0.001116
544 0.001140
545 0.001136
546 0.001115
547 0.001110
548 0.001126
549 0.001157
550 0.001170
551 0.001132
552 0.001100
553 0.001073
554 0.001055
555 0.001074
556 0.001073
557 0.001075
558 0.001102
559 0.001147
560 0.001206
561 0.001228
562 0.001224
563 0.001214
564 0.001155
565 0.001158
566 0.001155
567 0.001113
568 0.001087
569 0.001075
570 0.001082
571 0.001134
572 0.001159
573 0.001144
574 0.001167
575 0.001188
576 0.001211
577 0.001245
578 0.001229
579 0.001184
580 0.001142
581 0.001132
582 0.001120
583 0.001126
584 0.001139
585 0.001175
586 0.001204
587 0.001224
588 0.001215
589 0.001154
590 0.001111
591 0.001090
592 0.001078
593 0.001095
594 0.001099
595 0.001200
596 0.001257
597 0.001295
598 0.001333
599 0.001360
600 0.001362
601 0.001371
602 0.001344
603 0.001368
604 0.001381
605 0.001344
606 0.001274
607 0.001199
608 0.001128
609 0.001142
610 0.001132
611 0.001154
612 0.001171
613 0.001137
614 0.001144
615 0.001107
616 0.001049
617 0.000983
618 0.000942
619 0.000907
620 0.000872
621 0.000824
622 0.000817
623 0.000787
624 0.000759
625 0.000746
626 0.000702
627 0.000640
628 0.000598
629 0.000595
630 0.000607
631 0.000584
632 0.000547
633 0.000532
634 0.000540
635 0.000576
636 0.000614
637 0.000694
638 0.000732
639 0.000794
640 0.000836
641 0.000895
642 0.000950
643 0.001018
644 0.001083
645 0.001121
646 0.001142
647 0.001176
648 0.001234
649 0.001261
650 0.001279
651 0.001288
652 0.001295
653 0.001266
654 0.001247
655 0.001244
656 0.001215
657 0.001195
658 0.001174
659 0.001192
660 0.001179
661 0.001172
662 0.001194
663 0.001232
664 0.001252
665 0.001257
666 0.001252
667 0.001230
668 0.001166
669 0.001121
670 0.001127
671 0.001134
672 0.001105
673 0.001061
674 0.001022
675 0.000981
676 0.000961
677 0.000906
678 0.000893
679 0.000860
680 0.000845
681 0.000853
682 0.000869
683 0.000874
684 0.000866
685 0.000908
686 0.000906
687 0.000885
688 0.000901
689 0.000925
690 0.000951
691 0.000951
692 0.000996
693 0.001015
694 0.001044
695 0.001040
696 0.001095
697 0.001112
698 0.001132
699 0.001152
700 0.001160
701 0.001157
702 0.001128
703 0.001113
704 0.001117
705 0.001073
706 0.001000
707 0.000937
708 0.000939
709 0.000944
710 0.000957
711 0.000968
712 0.000963
713 0.000956
714 0.000935
715 0.000923
716 0.000917
717 0.000926
718 0.000940
719 0.000966
720 0.000979
721 0.000953
722 0.000965
723 0.000982
724 0.000981
725 0.000977
726 0.001035
727 0.001050
728 0.001044
729 0.001022
730 0.001004
731 0.000973
732 0.000934
733 0.000843
734 0.000768
735 0.000711
736 0.000676
737 0.000657
738 0.000709
739 0.000743
740 0.000743
741 0.000788
742 0.000814
743 0.000809
744 0.000813
745 0.000837
746 0.000850
747 0.000865
748 0.000862
749 0.000864
750 0.000841
751 0.000819
752 0.000833
753 0.000834
754 0.000809
755 0.000779
756 0.000758
757 0.000762
758 0.000772
759 0.000777
760 0.000777
761 0.000754
762 0.000725
763 0.000717
764 0.000722
765 0.000700
766 0.000660
767 0.000599
768 0.000570
769 0.000556
770 0.000575
771 0.000584
772 0.000612
773 0.000653
774 0.000703
775 0.000777
776 0.000835
777 0.000831
778 0.000820
779 0.000830
780 0.000806
781 0.000792
782 0.000756
783 0.000690
784 0.000619
785 0.000603
786 0.000584
787 0.000550
788 0.000488
789 0.000464
790 0.000427
791 0.000405
792 0.000402
793 0.000410
794 0.000429
795 0.000401
796 0.000393
797 0.000409
798 0.000437
799 0.000428
800 0.000434
801 0.000408
802 0.000406
803 0.000407
804 0.000443
805 0.000482
806 0.000492
807 0.000489
808 0.000476
809 0.000492
