# i correlation
1 0.004459
2 0.003863
3 0.003342
4 0.002943
5 0.002602
6 0.002397
7 0.002213
8 0.002072
9 0.001865
10 0.001717
11 0.001588
12 0.001587
13 0.001608
14 0.001647
15 0.001637
16 0.001597
17 0.001504
18 0.001409
19 0.001279
20 0.001213
21 0.001179
22 0.001079
23 0.000933
24 0.000787
25 0.000746
26 0.000682
27 0.000675
28 0.000635
29 0.000691
30 0.000666
31 0.000641
32 0.000628
33 0.000580
34 0.000609
35 0.000611
36 0.000631
37 0.000663
38 0.000626
39 0.000566
40 0.000533
41 0.000543
42 0.000495
43 0.000452
44 0.000423
45 0.000375
46 0.000304
47 0.000198
48 0.000213
49 0.000220
50 0.000229
51 0.000297
52 0.000285
53 0.000272
54 0.000297
55 0.000288
56 0.000299
57 0.000261
58 0.000238
59 0.000202
60 0.000105
61 0.000050
62 -0.000005
63 -0.000028
64 -0.000050
65 -0.000051
66 -0.000069
67 -0.000146
68 -0.000220
69 -0.000223
70 -0.000111
71 -0.000005
72 0.000087
73 0.000144
74 0.000146
75 0.000153
76 0.000164
77 0.000212
78 0.000222
79 0.000267
80 0.000252
81 0.000193
82 0.000206
83 0.000203
84 0.000176
85 0.000253
86 0.000340
87 0.000413
88 0.000421
89 0.000429
90 0.000441
91 0.000402
92 0.000403
93 0.000443
94 0.000471
95 0.000616
96 0.000729
97 0.000818
98 0.000803
99 0.000816
100 0.000805
101 0.000773
102 0.000756
103 0.000675
104 0.000649
105 0.000610
106 0.000519
107 0.000536
108 0.000607
109 0.000729
110 0.000814
111 0.000823
112 0.000873
113 0.000837
114 0.000757
115 0.000681
116 0.000706
117 0.000765
118 0.000777
119 0.000743
120 0.000728
121 0.000659
122 0.000722
123 0.000734
124 0.000751
125 0.000712
126 0.000709
127 0.000718
128 0.000733
129 0.000718
130 0.000721
131 0.000625
132 0.000543
133 0.000465
134 0.000448
135 0.000453
136 0.000461
137 0.000427
138 0.000437
139 0.000376
140 0.000356
141 0.000407
142 0.000411
143 0.000438
144 0.000466
145 0.000401
146 0.000352
147 0.000301
148 0.000262
149 0.000273
150 0.000298
151 0.000349
152 0.000290
153 0.000257
154 0.000255
155 0.000209
156 0.000200
157 0.000197
158 0.000254
159 0.000315
160 0.000340
161 0.000417
162 0.000476
163 0.000532
164 0.000626
165 0.000712
166 0.000730
167 0.000681
168 0.000630
169 0.000586
170 0.000472
171 0.000375
172 0.000363
173 0.000336
174 0.000342
175 0.000325
176 0.000251
177 0.000120
178 0.000111
179 0.000122
180 0.000120
181 0.000146
182 0.000206
183 0.000240
184 0.000262
185 0.000276
186 0.000258
187 0.000239
188 0.000229
189 0.000229
190 0.000217
191 0.000166
192 0.000154
193 0.000095
194 0.000153
195 0.000247
196 0.000344
197 0.000425
198 0.000451
199 0.000447
200 0.000429
201 0.000388
202 0.000374
203 0.000356
204 0.000343
205 0.000380
206 0.000445
207 0.000462
208 0.000484
209 0.000493
210 0.000542
211 0.000552
212 0.000554
213 0.000509
214 0.000507
215 0.000506
216 0.000492
217 0.000502
218 0.000483
219 0.000463
220 0.000472
221 0.000541
222 0.000526
223 0.000546
224 0.000552
225 0.000580
226 0.000596
227 0.000578
228 0.000461
229 0.000411
230 0.000300
231 0.000222
232 0.000132
233 0.000122
234 0.000102
235 0.000110
236 0.000115
237 0.000156
238 0.000223
239 0.000278
240 0.000306
241 0.000288
242 0.000247
243 0.000149
244 0.000044
245 -0.000025
246 -0.000031
247 0.000017
248 0.000020
249 -0.000041
250 -0.000125
251 -0.000124
252 -0.000100
253 -0.000103
254 -0.000043
255 -0.000001
256 0.000031
257 -0.000017
258 -0.000060
259 -0.000090
260 -0.000075
261 0.000006
262 0.000122
263 0.000222
264 0.000253
265 0.000345
266 0.000334
267 0.000340
268 0.000367
269 0.000412
270 0.000429
271 0.000481
272 0.000452
273 0.000419
274 0.000412
275 0.000346
276 0.000302
277 0.000272
278 0.000210
279 0.000174
280 0.000142
281 0.000159
282 0.000148
283 0.000182
284 0.000182
285 0.000185
286 0.000164
287 0.000107
288 0.000007
289 -0.000078
290 -0.000191
291 -0.000274
292 -0.000299
293 -0.000348
294 -0.000361
295 -0.000426
296 -0.000486
297 -0.000479
298 -0.000431
299 -0.000362
300 -0.000289
301 -0.000214
302 -0.000136
303 -0.000078
304 -0.000037
305 -0.000014
306 0.000020
307 0.000041
308 0.000038
309 0.000008
310 -0.000076
311 -0.000119
312 -0.000153
313 -0.000208
314 -0.000181
315 -0.000161
316 -0.000110
317 -0.000069
318 -0.000030
319 0.000036
320 0.000118
321 0.000161
322 0.000234
323 0.000284
324 0.000413
325 0.000521
326 0.000591
327 0.000615
328 0.000567
329 0.000464
330 0.000374
331 0.000286
332 0.000248
333 0.000284
334 0.000321
335 0.000352
336 0.000372
337 0.000357
338 0.000390
339 0.000404
340 0.000417
341 0.000406
342 0.000395
343 0.000427
344 0.000392
345 0.000268
346 0.000241
347 0.000162
348 0.000147
349 0.000109
350 0.000103
351 0.000098
352 0.000122
353 0.000080
354 0.000029
355 0.000005
356 0.000079
357 0.000112
358 0.000110
359 0.000092
360 0.000120
361 0.000140
362 0.000128
363 0.000163
364 0.000231
365 0.000288
366 0.000252
367 0.000237
368 0.000186
369 0.000190
370 0.000231
371 0.000245
372 0.000303
373 0.000374
374 0.000407
375 0.000417
376 0.000409
377 0.000429
378 0.000424
379 0.000460
380 0.000466
381 0.000458
382 0.000458
383 0.000418
384 0.000431
385 0.000451
386 0.000453
387 0.000436
388 0.000412
389 0.000417
390 0.000392
391 0.000378
392 0.000435
393 0.000446
394 0.000446
395 0.000457
396 0.000380
397 0.000348
398 0.000351
399 0.000394
400 0.000392
401 0.000423
402 0.000389
403 0.000396
404 0.000419
405 0.000445
406 0.000499
407 0.000509
408 0.000454
409 0.000441
410 0.000346
411 0.000300
412 0.000256
413 0.000223
414 0.000205
415 0.000201
416 0.000226
417 0.000205
418 0.000171
419 0.000147
420 0.000132
421 0.000229
422 0.000351
423 0.000419
424 0.000440
425 0.000417
426 0.000452
427 0.000452
428 0.000425
429 0.000407
430 0.000437
431 0.000398
432 0.000372
433 0.000371
434 0.000333
435 0.000304
436 0.000322
437 0.000349
438 0.000349
439 0.000256
440 0.000142
441 -0.000007
442 -0.000137
443 -0.000175
444 -0.000220
445 -0.000187
446 -0.000177
447 -0.000172
448 -0.000142
449 -0.000125
450 -0.000083
451 -0.000057
452 0.000001
453 0.000021
454 0.000029
455 -0.000006
456 -0.000050
457 -0.000125
458 -0.000167
459 -0.000219
460 -0.000208
461 -0.000203
462 -0.000191
463 -0.000201
464 -0.000184
465 -0.000104
466 -0.000035
467 -0.000002
468 0.000024
469 0.000037
470 0.000070
471 0.000063
472 0.000047
473 0.000017
474 0.000010
475 -0.000019
476 -0.000035
477 -0.000006
478 -0.000003
479 0.000020
480 0.000069
481 0.000128
482 0.000148
483 0.000191
484 0.000195
485 0.000179
486 0.000212
487 0.000207
488 0.000165
489 0.000132
490 0.000113
491 0.000153
492 0.000143
493 0.000137
494 0.000158
495 0.000173
496 0.000119
497 0.000091
498 0.000058
499 0.000057
500 0.000088
501 0.000132
502 0.000209
503 0.000263
504 0.000312
505 0.000340
506 0.000330
507 0.000321
508 0.000345
509 0.000368
510 0.000358
511 0.000376
512 0.000396
513 0.000380
514 0.000311
515 0.000299
516 0.000292
517 0.000278
518 0.000294
519 0.000298
520 0.000302
521 0.000360
522 0.000354
523 0.000399
524 0.000385
525 0.000361
526 0.000321
527 0.000292
528 0.000308
529 0.000265
530 0.000278
531 0.000314
532 0.000314
533 0.000327
534 0.000340
535 0.000398
536 0.000447
537 0.000494
538 0.000554
539 0.000652
540 0.000688
541 0.000722
542 0.000766
543 0.000801
544 0.000829
545 0.000842
546 0.000891
547 0.000897
548 0.000888
549 0.000885
550 0.000925
551 0.000903
552 0.000875
553 0.000880
554 0.000846
555 0.000808
556 0.000819
557 0.000841
558 0.000831
559 0.000791
560 0.000758
561 0.000654
562 0.000557
563 0.000497
564 0.000478
565 0.000465
566 0.000477
567 0.000503
568 0.000463
569 0.000403
570 0.000356
571 0.000332
572 0.000318
573 0.000351
574 0.000339
575 0.000296
576 0.000209
577 0.000172
578 0.000144
579 0.000176
580 0.000203
581 0.000254
582 0.000291
583 0.000287
584 0.000263
585 0.000233
586 0.000180
587 0.000202
588 0.000225
589 0.000255
590 0.000298
591 0.000338
592 0.000327
593 0.000320
594 0.000324
595 0.000373
596 0.000369
597 0.000363
598 0.000375
599 0.000361
600 0.000365
601 0.000400
602 0.000405
603 0.000399
604 0.000373
605 0.000337
606 0.000268
607 0.000232
608 0.000199
609 0.000171
610 0.000133
611 0.000121
612 0.000113
613 0.000109
614 0.000097
615 0.000082
616 0.000034
617 -0.000012
618 -0.000023
619 -0.000019
620 -0.000020
621 0.000040
622 0.000060
623 0.000028
624 -0.000014
625 -0.000049
626 -0.000068
627 -0.000052
628 -0.000039
629 0.000016
630 0.000092
631 0.000103
632 0.000140
633 0.000195
634 0.000204
635 0.000248
636 0.000292
637 0.000318
638 0.000346
639 0.000351
640 0.000322
641 0.000320
642 0.000307
643 0.000317
644 0.000357
645 0.000401
646 0.000446
647 0.000461
648 0.000486
649 0.000537
650 0.000574
651 0.000622
652 0.000623
653 0.000606
654 0.000557
655 0.000563
656 0.000568
657 0.000556
658 0.000524
659 0.000552
660 0.000533
661 0.000497
662 0.000462
663 0.000464
664 0.000464
665 0.000457
666 0.000487
667 0.000514
668 0.000519
669 0.000531
670 0.000542
671 0.000512
672 0.000505
673 0.000493
674 0.000505
675 0.000517
676 0.000527
677 0.000565
678 0.000609
679 0.000586
680 0.000562
681 0.000541
682 0.000488
683 0.000434
684 0.000369
685 0.000309
686 0.000252
687 0.000234
688 0.000206
689 0.000200
690 0.000184
691 0.000190
692 0.000196
693 0.000207
694 0.000190
695 0.000159
696 0.000120
697 0.000115
698 0.000078
699 0.000070
700 0.000082
701 0.000089
702 0.000050
703 0.000053
704 0.000089
705 0.000065
706 0.000031
707 0.000056
708 0.000084
709 0.000110
710 0.000133
711 0.000137
712 0.000138
713 0.000136
714 0.000115
715 0.000136
716 0.000131
717 0.000127
718 0.000105
719 0.000075
720 0.000042
721 0.000022
722 0.000021
723 0.000065
724 0.000058
725 0.000090
726 0.000135
727 0.000102
728 0.000085
729 0.000094
730 0.000097
731 0.000138
732 0.000183
733 0.000224
734 0.000247
735 0.000238
736 0.000230
737 0.000208
738 0.000252
739 0.000294
740 0.000298
741 0.000323
742 0.000349
743 0.000330
744 0.000320
745 0.000335
746 0.000359
747 0.000366
748 0.000372
749 0.000420
750 0.000415
751 0.000409
752 0.000435
753 0.000464
754 0.000492
755 0.000518
756 0.000553
757 0.000593
758 0.000590
759 0.000572
760 0.000571
761 0.000553
762 0.000531
763 0.000561
764 0.000591
765 0.000596
766 0.000561
767 0.000539
768 0.000537
769 0.000525
770 0.000540
771 0.000555
772 0.000552
773 0.000547
774 0.000537
775 0.000519
776 0.000494
777 0.000490
778 0.000488
779 0.000505
780 0.000504
781 0.000484
782 0.000442
783 0.000401
784 0.000350
785 0.000315
786 0.000336
787 0.000340
788 0.000306
789 0.000308
790 0.000301
791 0.000273
792 0.000250
793 0.000237
794 0.000229
795 0.000208
796 0.000185
797 0.000172
798 0.000138
799 0.000100
800 0.000100
801 0.000084
802 0.000090
803 0.000071
804 0.000063
805 0.000073
806 0.000080
807 0.000066
808 0.000074
809 0.000069
