# i correlation
1 0.005429
2 0.004837
3 0.004241
4 0.003867
5 0.003534
6 0.003162
7 0.002887
8 0.002691
9 0.002592
10 0.002467
11 0.002272
12 0.002181
13 0.002138
14 0.002070
15 0.002028
16 0.001991
17 0.001902
18 0.001813
19 0.001744
20 0.001698
21 0.001628
22 0.001501
23 0.001473
24 0.001428
25 0.001408
26 0.001327
27 0.001238
28 0.001206
29 0.001202
30 0.001229
31 0.001207
32 0.001192
33 0.001313
34 0.001394
35 0.001466
36 0.001517
37 0.001462
38 0.001414
39 0.001365
40 0.001325
41 0.001270
42 0.001303
43 0.001341
44 0.001318
45 0.001350
46 0.001410
47 0.001424
48 0.001471
49 0.001522
50 0.001524
51 0.001571
52 0.001573
53 0.001587
54 0.001482
55 0.001328
56 0.001235
57 0.001114
58 0.001074
59 0.001024
60 0.001000
61 0.000930
62 0.000954
63 0.000950
64 0.000982
65 0.001005
66 0.001058
67 0.001140
68 0.001101
69 0.001170
70 0.001167
71 0.001189
72 0.001213
73 0.001172
74 0.001171
75 0.001155
76 0.001150
77 0.001166
78 0.001196
79 0.001261
80 0.001209
81 0.001147
82 0.001089
83 0.001107
84 0.001160
85 0.001284
86 0.001373
87 0.001462
88 0.001515
89 0.001588
90 0.001636
91 0.001630
92 0.001605
93 0.001559
94 0.001543
95 0.001510
96 0.001484
97 0.001356
98 0.001329
99 0.001268
100 0.001242
101 0.001122
102 0.001098
103 0.001103
104 0.001101
105 0.001112
106 0.001052
107 0.001017
108 0.000994
109 0.000979
110 0.000910
111 0.000787
112 0.000771
113 0.000733
114 0.000677
115 0.000631
116 0.000557
117 0.000528
118 0.000465
119 0.000480
120 0.000481
121 0.000543
122 0.000602
123 0.000664
124 0.000723
125 0.000761
126 0.000810
127 0.000897
128 0.000953
129 0.000975
130 0.001010
131 0.001032
132 0.001036
133 0.001056
134 0.001049
135 0.000972
136 0.000930
137 0.000881
138 0.000932
139 0.000915
140 0.000912
141 0.000902
142 0.000926
143 0.000919
144 0.000837
145 0.000743
146 0.000633
147 0.000539
148 0.000440
149 0.000348
150 0.000216
151 0.000121
152 0.000010
153 -0.000114
154 -0.000244
155 -0.000316
156 -0.000349
157 -0.000315
158 -0.000351
159 -0.000382
160 -0.000398
161 -0.000375
162 -0.000314
163 -0.000214
164 -0.000168
165 -0.000131
166 -0.000056
167 -0.000048
168 -0.000020
169 0.000024
170 0.000070
171 0.000056
172 0.000109
173 0.000211
174 0.000308
175 0.000429
176 0.000535
177 0.000646
178 0.000765
179 0.000842
180 0.000904
181 0.000927
182 0.000926
183 0.000911
184 0.000880
185 0.000862
186 0.000810
187 0.000753
188 0.000669
189 0.000640
190 0.000691
191 0.000728
192 0.000750
193 0.000757
194 0.000810
195 0.000756
196 0.000734
197 0.000603
198 0.000565
199 0.000556
200 0.000515
201 0.000391
202 0.000235
203 0.000142
204 0.000044
205 -0.000019
206 -0.000081
207 -0.000115
208 -0.000057
209 0.000001
210 0.000052
211 0.000106
212 0.000149
213 0.000238
214 0.000347
215 0.000522
216 0.000608
217 0.000724
218 0.000672
219 0.000646
220 0.000625
221 0.000607
222 0.000576
223 0.000564
224 0.000562
225 0.000547
226 0.000558
227 0.000600
228 0.000623
229 0.000716
230 0.000732
231 0.000723
232 0.000725
233 0.000721
234 0.000716
235 0.000584
236 0.000573
237 0.000570
238 0.000572
239 0.000522
240 0.000481
241 0.000458
242 0.000499
243 0.000569
244 0.000599
245 0.000623
246 0.000572
247 0.000560
248 0.000458
249 0.000356
250 0.000248
251 0.000206
252 0.000214
253 0.000246
254 0.000235
255 0.000198
256 0.000151
257 0.000200
258 0.000204
259 0.000250
260 0.000273
261 0.000323
262 0.000336
263 0.000351
264 0.000366
265 0.000436
266 0.000509
267 0.000620
268 0.000697
269 0.000735
270 0.000766
271 0.000764
272 0.000792
273 0.000809
274 0.000840
275 0.000873
276 0.000949
277 0.001076
278 0.001123
279 0.001151
280 0.001106
281 0.001020
282 0.000946
283 0.000881
284 0.000821
285 0.000801
286 0.000753
287 0.000736
288 0.000625
289 0.000562
290 0.000555
291 0.000531
292 0.000531
293 0.000490
294 0.000570
295 0.000659
296 0.000742
297 0.000718
298 0.000621
299 0.000552
300 0.000496
301 0.000467
302 0.000432
303 0.000514
304 0.000597
305 0.000678
306 0.000718
307 0.000773
308 0.000861
309 0.000894
310 0.000926
311 0.000958
312 0.001012
313 0.001119
314 0.001125
315 0.001153
316 0.001144
317 0.001151
318 0.001151
319 0.001121
320 0.001102
321 0.001033
322 0.000960
323 0.000930
324 0.000879
325 0.000867
326 0.000839
327 0.000806
328 0.000762
329 0.000699
330 0.000666
331 0.000585
332 0.000572
333 0.000502
334 0.000421
335 0.000238
336 0.000170
337 0.000130
338 0.000148
339 0.000234
340 0.000258
341 0.000275
342 0.000309
343 0.000344
344 0.000319
345 0.000232
346 0.000199
347 0.000208
348 0.000217
349 0.000208
350 0.000200
351 0.000202
352 0.000182
353 0.000199
354 0.000158
355 0.000194
356 0.000253
357 0.000316
358 0.000354
359 0.000428
360 0.000491
361 0.000521
362 0.000502
363 0.000544
364 0.000586
365 0.000596
366 0.000636
367 0.000654
368 0.000720
369 0.000690
370 0.000688
371 0.000674
372 0.000693
373 0.000721
374 0.000782
375 0.000847
376 0.000859
377 0.000789
378 0.000660
379 0.000568
380 0.000528
381 0.000490
382 0.000367
383 0.000277
384 0.000194
385 0.000199
386 0.000173
387 0.000120
388 0.000017
389 -0.000045
390 -0.000070
391 -0.000118
392 -0.000167
393 -0.000178
394 -0.000162
395 -0.000150
396 -0.000140
397 -0.000210
398 -0.000251
399 -0.000239
400 -0.000204
401 -0.000185
402 -0.000200
403 -0.000220
404 -0.000193
405 -0.000189
406 -0.000145
407 -0.000171
408 -0.000126
409 -0.000021
410 0.000103
411 0.000229
412 0.000250
413 0.000233
414 0.000203
415 0.000195
416 0.000160
417 0.000156
418 0.000135
419 0.000109
420 0.000128
421 0.000110
422 0.000107
423 0.000097
424 0.000062
425 0.000055
426 0.000088
427 0.000105
428 0.000141
429 0.000126
430 0.000147
431 0.000087
432 0.000091
433 0.000024
434 -0.000007
435 -0.000038
436 -0.000073
437 -0.000096
438 -0.000124
439 -0.000100
440 -0.000143
441 -0.000176
442 -0.000187
443 -0.000151
444 -0.000122
445 -0.000070
446 0.000012
447 0.000088
448 0.000165
449 0.000223
450 0.000243
451 0.000280
452 0.000266
453 0.000268
454 0.000213
455 0.000177
456 0.000119
457 0.000030
458 -0.000020
459 -0.000043
460 0.000014
461 0.000014
462 0.000013
463 0.000015
464 -0.000009
465 -0.000030
466 -0.000051
467 -0.000085
468 -0.000076
469 -0.000088
470 -0.000055
471 -0.000038
472 -0.000060
473 -0.000087
474 -0.000070
475 -0.000020
476 0.000034
477 0.000059
478 0.000027
479 0.000012
480 -0.000036
481 -0.000032
482 -0.000055
483 -0.000030
484 0.000009
485 0.000062
486 0.000093
487 0.000119
488 0.000169
489 0.000240
490 0.000299
491 0.000326
492 0.000313
493 0.000280
494 0.000295
495 0.000308
496 0.000280
497 0.000285
498 0.000292
499 0.000396
500 0.000401
501 0.000456
502 0.000509
503 0.000536
504 0.000571
505 0.000539
506 0.000572
507 0.000549
508 0.000516
509 0.000443
510 0.000378
511 0.000312
512 0.000227
513 0.000193
514 0.000165
515 0.000112
516 0.000082
517 0.000123
518 0.000201
519 0.000264
520 0.000336
521 0.000343
522 0.000392
523 0.000453
524 0.000486
525 0.000478
526 0.000471
527 0.000466
528 0.000418
529 0.000342
530 0.000252
531 0.000139
532 0.000092
533 0.000059
534 0.000058
535 0.000023
536 0.000039
537 0.000077
538 0.000159
539 0.000220
540 0.000291
541 0.000331
542 0.000388
543 0.000452
544 0.000484
545 0.000480
546 0.000450
547 0.000453
548 0.000458
549 0.000478
550 0.000495
551 0.000514
552 0.000523
553 0.000534
554 0.000559
555 0.000590
556 0.000634
557 0.000683
558 0.000698
559 0.000717
560 0.000714
561 0.000707
562 0.000753
563 0.000756
564 0.000730
565 0.000668
566 0.000658
567 0.000584
568 0.000597
569 0.000545
570 0.000552
571 0.000564
572 0.000599
573 0.000670
574 0.000690
575 0.000705
576 0.000721
577 0.000731
578 0.000713
579 0.000656
580 0.000595
581 0.000566
582 0.000535
583 0.000498
584 0.000501
585 0.000502
586 0.000516
587 0.000536
588 0.000532
589 0.000571
590 0.000637
591 0.000717
592 0.000791
593 0.000871
594 0.000920
595 0.000963
596 0.000999
597 0.001008
598 0.001007
599 0.000938
600 0.000881
601 0.000795
602 0.000745
603 0.000672
604 0.000645
605 0.000658
606 0.000634
607 0.000605
608 0.000584
609 0.000552
610 0.000549
611 0.000576
612 0.000628
613 0.000629
614 0.000626
615 0.000647
616 0.000650
617 0.000647
618 0.000621
619 0.000601
620 0.000589
621 0.000596
622 0.000591
623 0.000604
624 0.000584
625 0.000603
626 0.000646
627 0.000686
628 0.000711
629 0.000756
630 0.000731
631 0.000701
632 0.000649
633 0.000589
634 0.000532
635 0.000524
636 0.000508
637 0.000537
638 0.000567
639 0.000554
640 0.000562
641 0.000564
642 0.000628
643 0.000675
644 0.000708
645 0.000759
646 0.000750
647 0.000809
648 0.000866
649 0.000887
650 0.000893
651 0.000904
652 0.000902
653 0.000871
654 0.000817
655 0.000774
656 0.000721
657 0.000681
658 0.000669
659 0.000635
660 0.000662
661 0.000678
662 0.000719
663 0.000771
664 0.000799
665 0.000836
666 0.000856
667 0.000877
668 0.000885
669 0.000910
670 0.000901
671 0.000905
672 0.000867
673 0.000809
674 0.000712
675 0.000668
676 0.000610
677 0.000586
678 0.000573
679 0.000554
680 0.000552
681 0.000548
682 0.000548
683 0.000593
684 0.000623
685 0.000629
686 0.000567
687 0.000529
688 0.000500
689 0.000497
690 0.000499
691 0.000501
692 0.000461
693 0.000458
694 0.000429
695 0.000369
696 0.000324
697 0.000266
698 0.000265
699 0.000200
700 0.000199
701 0.000168
702 0.000147
703 0.000149
704 0.000164
705 0.000183
706 0.000211
707 0.000219
708 0.000184
709 0.000146
710 0.000068
711 -0.000006
712 -0.000088
713 -0.000133
714 -0.000088
715 -0.000055
716 -0.000029
717 0.000013
718 0.000038
719 0.000090
720 0.000100
721 0.000114
722 0.000107
723 0.000106
724 0.000086
725 0.000069
726 0.000009
727 0.000022
728 0.000036
729 0.000043
730 0.000056
731 0.000061
732 0.000062
733 0.000081
734 0.000103
735 0.000145
736 0.000190
737 0.000228
738 0.000220
739 0.000207
740 0.000234
741 0.000228
742 0.000262
743 0.000279
744 0.000311
745 0.000321
746 0.000310
747 0.000328
748 0.000321
749 0.000290
750 0.000287
751 0.000258
752 0.000231
753 0.000207
754 0.000220
755 0.000231
756 0.000284
757 0.000303
758 0.000300
759 0.000274
760 0.000298
761 0.000280
762 0.000280
763 0.000264
764 0.000240
765 0.000213
766 0.000166
767 0.000175
768 0.000155
769 0.000146
770 0.000167
771 0.000211
772 0.000218
773 0.000242
774 0.000217
775 0.000228
776 0.000240
777 0.000233
778 0.000222
779 0.000198
780 0.000187
781 0.000203
782 0.000194
783 0.000212
784 0.000188
785 0.000204
786 0.000212
787 0.000216
788 0.000192
789 0.000177
790 0.000162
791 0.000174
792 0.000169
793 0.000179
794 0.000186
795 0.000198
796 0.000209
797 0.000211
798 0.000185
799 0.000183
800 0.000160
801 0.000126
802 0.000102
803 0.000057
804 0.000064
805 0.000060
806 0.000060
807 0.000082
808 0.000078
809 0.000073
