# i correlation
1 0.007378
2 0.006698
3 0.006192
4 0.005773
5 0.005408
6 0.005077
7 0.004808
8 0.004524
9 0.004287
10 0.004136
11 0.003967
12 0.003723
13 0.003539
14 0.003320
15 0.003118
16 0.003030
17 0.002977
18 0.002949
19 0.002895
20 0.002978
21 0.002947
22 0.002918
23 0.002876
24 0.002829
25 0.002736
26 0.002624
27 0.002576
28 0.002591
29 0.002596
30 0.002653
31 0.002577
32 0.002455
33 0.002376
34 0.002316
35 0.002296
36 0.002355
37 0.002357
38 0.002329
39 0.002241
40 0.002208
41 0.002260
42 0.002291
43 0.002273
44 0.002285
45 0.002263
46 0.002215
47 0.002184
48 0.002187
49 0.002140
50 0.002164
51 0.002158
52 0.002141
53 0.002135
54 0.002111
55 0.001994
56 0.001970
57 0.001946
58 0.001964
59 0.001964
60 0.001943
61 0.001978
62 0.001996
63 0.002060
64 0.002051
65 0.002083
66 0.002136
67 0.002220
68 0.002219
69 0.002198
70 0.002245
71 0.002315
72 0.002356
73 0.002388
74 0.002447
75 0.002401
76 0.002452
77 0.002420
78 0.002407
79 0.002361
80 0.002324
81 0.002295
82 0.002257
83 0.002245
84 0.002195
85 0.002147
86 0.002158
87 0.002227
88 0.002197
89 0.002204
90 0.002179
91 0.002132
92 0.002114
93 0.002052
94 0.001962
95 0.001887
96 0.001930
97 0.001967
98 0.002020
99 0.002038
100 0.002028
101 0.002015
102 0.001998
103 0.001947
104 0.001915
105 0.001825
106 0.001758
107 0.001782
108 0.001803
109 0.001831
110 0.001806
111 0.001810
112 0.001903
113 0.001938
114 0.001911
115 0.001925
116 0.001940
117 0.002006
118 0.002089
119 0.002108
120 0.002144
121 0.002106
122 0.002065
123 0.002064
124 0.002045
125 0.002018
126 0.001928
127 0.001865
128 0.001855
129 0.001823
130 0.001849
131 0.001924
132 0.001985
133 0.002049
134 0.002140
135 0.002171
136 0.002206
137 0.002263
138 0.002309
139 0.002333
140 0.002335
141 0.002401
142 0.002457
143 0.002511
144 0.002538
145 0.002559
146 0.002597
147 0.002621
148 0.002634
149 0.002675
150 0.002661
151 0.002589
152 0.002487
153 0.002445
154 0.002493
155 0.002443
156 0.002410
157 0.002367
158 0.002327
159 0.002358
160 0.002363
161 0.002398
162 0.002399
163 0.002395
164 0.002351
165 0.002311
166 0.002263
167 0.002232
168 0.002202
169 0.002196
170 0.002208
171 0.002191
172 0.002206
173 0.002162
174 0.002164
175 0.002216
176 0.002264
177 0.002209
178 0.002141
179 0.002130
180 0.002075
181 0.002012
182 0.001953
183 0.001931
184 0.001900
185 0.001876
186 0.001858
187 0.001798
188 0.001681
189 0.001570
190 0.001483
191 0.001444
192 0.001383
193 0.001288
194 0.001210
195 0.001217
196 0.001239
197 0.001215
198 0.001150
199 0.001077
200 0.001026
201 0.001012
202 0.000951
203 0.000884
204 0.000804
205 0.000753
206 0.000734
207 0.000720
208 0.000658
209 0.000643
210 0.000626
211 0.000604
212 0.000634
213 0.000697
214 0.000729
215 0.000727
216 0.000710
217 0.000737
218 0.000666
219 0.000661
220 0.000680
221 0.000644
222 0.000641
223 0.000691
224 0.000801
225 0.000868
226 0.000900
227 0.000925
228 0.000853
229 0.000743
230 0.000701
231 0.000694
232 0.000682
233 0.000707
234 0.000701
235 0.000701
236 0.000704
237 0.000722
238 0.000732
239 0.000738
240 0.000762
241 0.000770
242 0.000775
243 0.000863
244 0.000864
245 0.000849
246 0.000830
247 0.000836
248 0.000860
249 0.000893
250 0.000922
251 0.000865
252 0.000828
253 0.000778
254 0.000698
255 0.000601
256 0.000531
257 0.000505
258 0.000488
259 0.000473
260 0.000463
261 0.000502
262 0.000538
263 0.000601
264 0.000683
265 0.000742
266 0.000813
267 0.000867
268 0.000907
269 0.000955
270 0.000961
271 0.000943
272 0.000919
273 0.000878
274 0.000830
275 0.000821
276 0.000819
277 0.000830
278 0.000840
279 0.000836
280 0.000905
281 0.000928
282 0.000930
283 0.000901
284 0.000894
285 0.000885
286 0.000880
287 0.000900
288 0.000908
289 0.000888
290 0.000875
291 0.000844
292 0.000757
293 0.000793
294 0.000828
295 0.000843
296 0.000856
297 0.000806
298 0.000792
299 0.000796
300 0.000874
301 0.000881
302 0.000874
303 0.000898
304 0.000877
305 0.000856
306 0.000836
307 0.000811
308 0.000808
309 0.000795
310 0.000850
311 0.000880
312 0.000859
313 0.000880
314 0.000889
315 0.000892
316 0.000887
317 0.000867
318 0.000845
319 0.000782
320 0.000755
321 0.000795
322 0.000793
323 0.000831
324 0.000898
325 0.000950
326 0.001025
327 0.000989
328 0.000932
329 0.000883
330 0.000913
331 0.000905
332 0.000919
333 0.000958
334 0.001026
335 0.001068
336 0.001035
337 0.001016
338 0.001020
339 0.001080
340 0.001123
341 0.001162
342 0.001166
343 0.001200
344 0.001210
345 0.001191
346 0.001162
347 0.001188
348 0.001155
349 0.001110
350 0.001065
351 0.001033
352 0.000947
353 0.000810
354 0.000724
355 0.000649
356 0.000635
357 0.000577
358 0.000527
359 0.000496
360 0.000511
361 0.000577
362 0.000660
363 0.000732
364 0.000743
365 0.000695
366 0.000618
367 0.000656
368 0.000734
369 0.000810
370 0.000863
371 0.000898
372 0.000896
373 0.000861
374 0.000882
375 0.000850
376 0.000802
377 0.000755
378 0.000723
379 0.000696
380 0.000681
381 0.000651
382 0.000665
383 0.000683
384 0.000732
385 0.000785
386 0.000789
387 0.000790
388 0.000760
389 0.000733
390 0.000642
391 0.000560
392 0.000571
393 0.000568
394 0.000585
395 0.000617
396 0.000604
397 0.000631
398 0.000655
399 0.000684
400 0.000710
401 0.000670
402 0.000686
403 0.000661
404 0.000603
405 0.000547
406 0.000513
407 0.000500
408 0.000519
409 0.000517
410 0.000537
411 0.000558
412 0.000647
413 0.000743
414 0.000841
415 0.000944
416 0.000961
417 0.000967
418 0.000998
419 0.000996
420 0.000978
421 0.000969
422 0.000972
423 0.000947
424 0.000888
425 0.000866
426 0.000878
427 0.000874
428 0.000834
429 0.000729
430 0.000680
431 0.000656
432 0.000618
433 0.000574
434 0.000612
435 0.000617
436 0.000655
437 0.000675
438 0.000733
439 0.000769
440 0.000730
441 0.000712
442 0.000657
443 0.000615
444 0.000639
445 0.000676
446 0.000699
447 0.000752
448 0.000780
449 0.000790
450 0.000843
451 0.000855
452 0.000854
453 0.000798
454 0.000739
455 0.000730
456 0.000802
457 0.000853
458 0.000919
459 0.000998
460 0.001040
461 0.001080
462 0.001119
463 0.001145
464 0.001172
465 0.001167
466 0.001173
467 0.001149
468 0.001140
469 0.001160
470 0.001131
471 0.001112
472 0.001116
473 0.001067
474 0.001053
475 0.001087
476 0.001156
477 0.001150
478 0.001111
479 0.001096
480 0.001101
481 0.001111
482 0.001185
483 0.001248
484 0.001287
485 0.001331
486 0.001402
487 0.001411
488 0.001432
489 0.001456
490 0.001430
491 0.001380
492 0.001420
493 0.001496
494 0.001563
495 0.001559
496 0.001577
497 0.001597
498 0.001559
499 0.001472
500 0.001444
501 0.001411
502 0.001367
503 0.001310
504 0.001311
505 0.001312
506 0.001332
507 0.001332
508 0.001304
509 0.001245
510 0.001242
511 0.001217
512 0.001196
513 0.001187
514 0.001161
515 0.001121
516 0.001085
517 0.001125
518 0.001159
519 0.001164
520 0.001129
521 0.001085
522 0.001040
523 0.001004
524 0.000996
525 0.000985
526 0.000956
527 0.000941
528 0.000927
529 0.000882
530 0.000927
531 0.000949
532 0.000916
533 0.000901
534 0.000956
535 0.001020
536 0.001097
537 0.001173
538 0.001237
539 0.001291
540 0.001334
541 0.001371
542 0.001408
543 0.001478
544 0.001501
545 0.001516
546 0.001588
547 0.001646
548 0.001705
549 0.001715
550 0.001702
551 0.001661
552 0.001627
553 0.001584
554 0.001566
555 0.001513
556 0.001454
557 0.001383
558 0.001290
559 0.001250
560 0.001213
561 0.001198
562 0.001147
563 0.001094
564 0.001090
565 0.001096
566 0.001105
567 0.001086
568 0.001087
569 0.001096
570 0.001067
571 0.001076
572 0.001082
573 0.001088
574 0.001111
575 0.001138
576 0.001148
577 0.001111
578 0.001052
579 0.000986
580 0.000931
581 0.000889
582 0.000867
583 0.000833
584 0.000851
585 0.000864
586 0.000836
587 0.000810
588 0.000787
589 0.000786
590 0.000783
591 0.000756
592 0.000736
593 0.000741
594 0.000776
595 0.000813
596 0.000860
597 0.000906
598 0.000920
599 0.000917
600 0.000900
601 0.000910
602 0.000897
603 0.000876
604 0.000885
605 0.000893
606 0.000887
607 0.000853
608 0.000835
609 0.000851
610 0.000910
611 0.000943
612 0.000954
613 0.000945
614 0.000938
615 0.000928
616 0.000865
617 0.000855
618 0.000829
619 0.000819
620 0.000800
621 0.000791
622 0.000797
623 0.000831
624 0.000849
625 0.000842
626 0.000846
627 0.000849
628 0.000882
629 0.000871
630 0.000827
631 0.000810
632 0.000853
633 0.000888
634 0.000913
635 0.000963
636 0.000996
637 0.001030
638 0.001060
639 0.001119
640 0.001140
641 0.001153
642 0.001179
643 0.001223
644 0.001219
645 0.001221
646 0.001215
647 0.001245
648 0.001257
649 0.001217
650 0.001190
651 0.001200
652 0.001233
653 0.001258
654 0.001261
655 0.001309
656 0.001374
657 0.001382
658 0.001381
659 0.001369
660 0.001336
661 0.001360
662 0.001391
663 0.001419
664 0.001475
665 0.001533
666 0.001559
667 0.001543
668 0.001496
669 0.001449
670 0.001393
671 0.001307
672 0.001210
673 0.001172
674 0.001137
675 0.001112
676 0.001084
677 0.001073
678 0.001019
679 0.000957
680 0.000926
681 0.000917
682 0.000913
683 0.000934
684 0.000997
685 0.001049
686 0.001101
687 0.001122
688 0.001132
689 0.001128
690 0.001068
691 0.001002
692 0.000903
693 0.000836
694 0.000750
695 0.000674
696 0.000594
697 0.000562
698 0.000510
699 0.000443
700 0.000370
701 0.000279
702 0.000223
703 0.000177
704 0.000130
705 0.000094
706 0.000112
707 0.000121
708 0.000141
709 0.000190
710 0.000256
711 0.000304
712 0.000313
713 0.000367
714 0.000391
715 0.000396
716 0.000381
717 0.000375
718 0.000369
719 0.000379
720 0.000375
721 0.000392
722 0.000390
723 0.000368
724 0.000365
725 0.000379
726 0.000393
727 0.000398
728 0.000412
729 0.000448
730 0.000465
731 0.000480
732 0.000494
733 0.000505
734 0.000493
735 0.000471
736 0.000454
737 0.000437
738 0.000428
739 0.000442
740 0.000459
741 0.000482
742 0.000470
743 0.000435
744 0.000402
745 0.000354
746 0.000310
747 0.000268
748 0.000219
749 0.000201
750 0.000186
751 0.000207
752 0.000219
753 0.000207
754 0.000184
755 0.000158
756 0.000136
757 0.000142
758 0.000115
759 0.000085
760 0.000089
761 0.000099
762 0.000133
763 0.000162
764 0.000201
765 0.000223
766 0.000221
767 0.000203
768 0.000154
769 0.000128
770 0.000110
771 0.000138
772 0.000146
773 0.000153
774 0.000179
775 0.000213
776 0.000221
777 0.000223
778 0.000236
779 0.000248
780 0.000228
781 0.000224
782 0.000262
783 0.000294
784 0.000324
785 0.000352
786 0.000382
787 0.000416
788 0.000418
789 0.000430
790 0.000434
791 0.000394
792 0.000360
793 0.000345
794 0.000344
795 0.000331
796 0.000300
797 0.000286
798 0.000279
799 0.000294
800 0.000320
801 0.000327
802 0.000328
803 0.000322
804 0.000306
805 0.000294
806 0.000302
807 0.000315
808 0.000323
809 0.000337
