# i correlation
1 0.004524
2 0.003846
3 0.003272
4 0.002778
5 0.002381
6 0.002055
7 0.001825
8 0.001752
9 0.001684
10 0.001666
11 0.001580
12 0.001513
13 0.001455
14 0.001327
15 0.001160
16 0.001028
17 0.000878
18 0.000776
19 0.000745
20 0.000786
21 0.000859
22 0.000989
23 0.001095
24 0.001175
25 0.001203
26 0.001219
27 0.001193
28 0.001088
29 0.001025
30 0.000973
31 0.000866
32 0.000830
33 0.000811
34 0.000908
35 0.001122
36 0.001239
37 0.001370
38 0.001472
39 0.001470
40 0.001399
41 0.001360
42 0.001338
43 0.001293
44 0.001133
45 0.001052
46 0.001017
47 0.000997
48 0.001057
49 0.001062
50 0.001059
51 0.001044
52 0.000963
53 0.000883
54 0.000853
55 0.000802
56 0.000736
57 0.000692
58 0.000640
59 0.000617
60 0.000517
61 0.000502
62 0.000556
63 0.000567
64 0.000570
65 0.000587
66 0.000512
67 0.000452
68 0.000461
69 0.000513
70 0.000581
71 0.000572
72 0.000599
73 0.000680
74 0.000701
75 0.000685
76 0.000654
77 0.000649
78 0.000737
79 0.000757
80 0.000766
81 0.000796
82 0.000828
83 0.000858
84 0.000885
85 0.000893
86 0.000960
87 0.000937
88 0.000923
89 0.000917
90 0.000947
91 0.001058
92 0.001114
93 0.001118
94 0.001158
95 0.001092
96 0.001023
97 0.000956
98 0.000860
99 0.000795
100 0.000756
101 0.000731
102 0.000627
103 0.000566
104 0.000600
105 0.000643
106 0.000637
107 0.000640
108 0.000593
109 0.000462
110 0.000382
111 0.000288
112 0.000195
113 0.000135
114 0.000170
115 0.000204
116 0.000289
117 0.000345
118 0.000380
119 0.000357
120 0.000346
121 0.000345
122 0.000273
123 0.000244
124 0.000210
125 0.000093
126 0.000010
127 -0.000040
128 -0.000021
129 -0.000026
130 -0.000012
131 0.000037
132 0.000138
133 0.000194
134 0.000249
135 0.000241
136 0.000214
137 0.000194
138 0.000187
139 0.000192
140 0.000189
141 0.000241
142 0.000295
143 0.000451
144 0.000520
145 0.000521
146 0.000525
147 0.000513
148 0.000433
149 0.000379
150 0.000223
151 0.000120
152 0.000024
153 -0.000062
154 -0.000112
155 -0.000058
156 -0.000026
157 -0.000005
158 -0.000034
159 -0.000011
160 -0.000025
161 -0.000122
162 -0.000200
163 -0.000259
164 -0.000282
165 -0.000287
166 -0.000237
167 -0.000188
168 -0.000176
169 -0.000197
170 -0.000145
171 -0.000131
172 -0.000164
173 -0.000154
174 -0.000180
175 -0.000197
176 -0.000094
177 0.000025
178 0.000175
179 0.000327
180 0.000438
181 0.000540
182 0.000598
183 0.000561
184 0.000528
185 0.000477
186 0.000484
187 0.000415
188 0.000297
189 0.000234
190 0.000135
191 0.000074
192 0.000029
193 -0.000047
194 -0.000053
195 -0.000094
196 -0.000088
197 -0.000057
198 -0.000023
199 -0.000046
200 -0.000112
201 -0.000111
202 0.000015
203 0.000069
204 0.000040
205 0.000088
206 0.000090
207 0.000062
208 0.000011
209 -0.000054
210 -0.000174
211 -0.000204
212 -0.000220
213 -0.000222
214 -0.000152
215 -0.000111
216 -0.000026
217 0.000061
218 0.000130
219 0.000185
220 0.000164
221 0.000152
222 0.000216
223 0.000239
224 0.000315
225 0.000433
226 0.000420
227 0.000444
228 0.000436
229 0.000469
230 0.000450
231 0.000384
232 0.000371
233 0.000274
234 0.000196
235 0.000128
236 0.000001
237 -0.000097
238 -0.000082
239 -0.000113
240 0.000009
241 0.000114
242 0.000128
243 0.000130
244 0.000083
245 0.000013
246 0.000033
247 -0.000012
248 0.000058
249 0.000143
250 0.000229
251 0.000297
252 0.000334
253 0.000398
254 0.000460
255 0.000430
256 0.000378
257 0.000290
258 0.000159
259 0.000088
260 0.000074
261 0.000045
262 0.000056
263 -0.000012
264 -0.000044
265 -0.000002
266 0.000058
267 0.000156
268 0.000196
269 0.000132
270 0.000099
271 0.000067
272 0.000045
273 0.000002
274 -0.000137
275 -0.000174
276 -0.000206
277 -0.000249
278 -0.000216
279 -0.000215
280 -0.000147
281 -0.000134
282 -0.000181
283 -0.000193
284 -0.000226
285 -0.000319
286 -0.000374
287 -0.000371
288 -0.000344
289 -0.000298
290 -0.000262
291 -0.000208
292 -0.000113
293 -0.000113
294 -0.000109
295 -0.000121
296 -0.000118
297 -0.000101
298 -0.000136
299 -0.000172
300 -0.000184
301 -0.000222
302 -0.000221
303 -0.000204
304 -0.000156
305 -0.000106
306 -0.000150
307 -0.000202
308 -0.000201
309 -0.000202
310 -0.000149
311 -0.000170
312 -0.000187
313 -0.000163
314 -0.000131
315 -0.000129
316 -0.000082
317 -0.000015
318 0.000087
319 0.000225
320 0.000285
321 0.000326
322 0.000368
323 0.000416
324 0.000451
325 0.000407
326 0.000398
327 0.000303
328 0.000198
329 0.000123
330 0.000101
331 0.000060
332 0.000003
333 -0.000062
334 -0.000078
335 -0.000005
336 -0.000024
337 0.000016
338 0.000038
339 0.000093
340 0.000117
341 0.000098
342 0.000047
343 0.000019
344 -0.000015
345 0.000003
346 0.000026
347 0.000063
348 0.000106
349 0.000110
350 0.000077
351 0.000039
352 -0.000011
353 -0.000068
354 -0.000093
355 -0.000162
356 -0.000208
357 -0.000177
358 -0.000067
359 0.000018
360 0.000066
361 0.000186
362 0.000263
363 0.000259
364 0.000286
365 0.000282
366 0.000314
367 0.000292
368 0.000182
369 0.000107
370 0.000057
371 -0.000019
372 -0.000046
373 -0.000094
374 -0.000090
375 -0.000056
376 -0.000100
377 -0.000195
378 -0.000283
379 -0.000378
380 -0.000465
381 -0.000510
382 -0.000525
383 -0.000480
384 -0.000441
385 -0.000452
386 -0.000516
387 -0.000490
388 -0.000460
389 -0.000454
390 -0.000478
391 -0.000450
392 -0.000438
393 -0.000367
394 -0.000358
395 -0.000337
396 -0.000290
397 -0.000231
398 -0.000212
399 -0.000207
400 -0.000198
401 -0.000158
402 -0.000155
403 -0.000147
404 -0.000124
405 -0.000047
406 -0.000013
407 -0.000060
408 -0.000062
409 -0.000076
410 -0.000073
411 -0.000049
412 -0.000069
413 -0.000084
414 -0.000130
415 -0.000158
416 -0.000185
417 -0.000186
418 -0.000174
419 -0.000155
420 -0.000118
421 -0.000051
422 -0.000011
423 0.000001
424 -0.000038
425 -0.000102
426 -0.000153
427 -0.000131
428 -0.000136
429 -0.000135
430 -0.000080
431 0.000002
432 0.000067
433 0.000075
434 0.000054
435 0.000040
436 0.000047
437 0.000024
438 0.000015
439 -0.000011
440 -0.000007
441 -0.000054
442 -0.000138
443 -0.000226
444 -0.000247
445 -0.000227
446 -0.000197
447 -0.000163
448 -0.000146
449 -0.000117
450 -0.000123
451 -0.000124
452 -0.000123
453 -0.000077
454 -0.000054
455 -0.000037
456 -0.000008
457 0.000102
458 0.000183
459 0.000195
460 0.000163
461 0.000112
462 0.000055
463 -0.000012
464 -0.000102
465 -0.000105
466 -0.000064
467 0.000020
468 0.000089
469 0.000159
470 0.000162
471 0.000138
472 0.000062
473 -0.000032
474 -0.000132
475 -0.000188
476 -0.000232
477 -0.000286
478 -0.000260
479 -0.000226
480 -0.000218
481 -0.000167
482 -0.000139
483 -0.000111
484 -0.000115
485 -0.000161
486 -0.000212
487 -0.000291
488 -0.000381
489 -0.000441
490 -0.000459
491 -0.000470
492 -0.000416
493 -0.000413
494 -0.000367
495 -0.000299
496 -0.000256
497 -0.000241
498 -0.000255
499 -0.000304
500 -0.000336
501 -0.000347
502 -0.000334
503 -0.000322
504 -0.000328
505 -0.000281
506 -0.000223
507 -0.000149
508 -0.000092
509 -0.000058
510 -0.000044
511 -0.000071
512 -0.000162
513 -0.000250
514 -0.000348
515 -0.000417
516 -0.000398
517 -0.000368
518 -0.000343
519 -0.000305
520 -0.000304
521 -0.000204
522 -0.000163
523 -0.000190
524 -0.000234
525 -0.000323
526 -0.000375
527 -0.000406
528 -0.000485
529 -0.000522
530 -0.000560
531 -0.000556
532 -0.000522
533 -0.000480
534 -0.000508
535 -0.000576
536 -0.000644
537 -0.000615
538 -0.000606
539 -0.000645
540 -0.000587
541 -0.000531
542 -0.000482
543 -0.000384
544 -0.000281
545 -0.000210
546 -0.000108
547 -0.000042
548 0.000007
549 0.000013
550 -0.000017
551 -0.000022
552 -0.000043
553 -0.000031
554 -0.000048
555 -0.000063
556 -0.000068
557 -0.000096
558 -0.000188
559 -0.000263
560 -0.000285
561 -0.000327
562 -0.000380
563 -0.000446
564 -0.000452
565 -0.000460
566 -0.000459
567 -0.000473
568 -0.000502
569 -0.000524
570 -0.000522
571 -0.000507
572 -0.000412
573 -0.000330
574 -0.000255
575 -0.000188
576 -0.000121
577 -0.000097
578 -0.000095
579 -0.000084
580 -0.000106
581 -0.000104
582 -0.000135
583 -0.000148
584 -0.000129
585 -0.000079
586 -0.000003
587 0.000034
588 0.000079
589 0.000124
590 0.000146
591 0.000163
592 0.000166
593 0.000133
594 0.000078
595 0.000021
596 -0.000022
597 -0.000049
598 -0.000086
599 -0.000089
600 -0.000088
601 -0.000092
602 -0.000039
603 -0.000011
604 0.000012
605 0.000009
606 -0.000032
607 -0.000061
608 -0.000105
609 -0.000132
610 -0.000109
611 -0.000113
612 -0.000101
613 -0.000035
614 -0.000001
615 0.000089
616 0.000121
617 0.000159
618 0.000177
619 0.000142
620 0.000100
621 0.000028
622 -0.000031
623 -0.000066
624 -0.000084
625 -0.000042
626 0.000010
627 0.000103
628 0.000149
629 0.000185
630 0.000183
631 0.000158
632 0.000128
633 0.000106
634 0.000074
635 0.000083
636 0.000047
637 0.000070
638 0.000109
639 0.000188
640 0.000237
641 0.000256
642 0.000234
643 0.000210
644 0.000173
645 0.000143
646 0.000078
647 0.000088
648 0.000082
649 0.000103
650 0.000144
651 0.000173
652 0.000204
653 0.000224
654 0.000260
655 0.000310
656 0.000336
657 0.000294
658 0.000249
659 0.000210
660 0.000197
661 0.000188
662 0.000205
663 0.000249
664 0.000289
665 0.000356
666 0.000355
667 0.000343
668 0.000319
669 0.000261
670 0.000240
671 0.000237
672 0.000255
673 0.000235
674 0.000217
675 0.000221
676 0.000263
677 0.000306
678 0.000348
679 0.000373
680 0.000427
681 0.000437
682 0.000417
683 0.000400
684 0.000376
685 0.000378
686 0.000399
687 0.000417
688 0.000464
689 0.000539
690 0.000581
691 0.000593
692 0.000599
693 0.000593
694 0.000545
695 0.000492
696 0.000402
697 0.000339
698 0.000311
699 0.000281
700 0.000320
701 0.000367
702 0.000371
703 0.000399
704 0.000384
705 0.000362
706 0.000299
707 0.000256
708 0.000235
709 0.000226
710 0.000265
711 0.000293
712 0.000281
713 0.000291
714 0.000291
715 0.000280
716 0.000222
717 0.000185
718 0.000152
719 0.000174
720 0.000197
721 0.000207
722 0.000226
723 0.000276
724 0.000315
725 0.000323
726 0.000326
727 0.000353
728 0.000377
729 0.000373
730 0.000381
731 0.000396
732 0.000399
733 0.000409
734 0.000417
735 0.000393
736 0.000360
737 0.000334
738 0.000298
739 0.000276
740 0.000243
741 0.000224
742 0.000203
743 0.000163
744 0.000099
745 0.000072
746 0.000019
747 -0.000053
748 -0.000105
749 -0.000110
750 -0.000110
751 -0.000095
752 -0.000092
753 -0.000098
754 -0.000106
755 -0.000129
756 -0.000152
757 -0.000150
758 -0.000117
759 -0.000058
760 -0.000037
761 -0.000047
762 -0.000020
763 0.000006
764 0.000007
765 -0.000006
766 -0.000035
767 -0.000034
768 -0.000030
769 0.000006
770 0.000034
771 0.000067
772 0.000102
773 0.000160
774 0.000178
775 0.000206
776 0.000234
777 0.000253
778 0.000251
779 0.000250
780 0.000236
781 0.000235
782 0.000233
783 0.000221
784 0.000207
785 0.000173
786 0.000161
787 0.000151
788 0.000134
789 0.000121
790 0.000080
791 0.000036
792 0.000013
793 0.000007
794 0.000001
795 -0.000004
796 -0.000015
797 -0.000000
798 0.000015
799 0.000061
800 0.000074
801 0.000067
802 0.000059
803 0.000036
804 0.000021
805 0.000017
806 0.000033
807 0.000054
808 0.000057
809 0.000072
