# i correlation
1 0.004894
2 0.004209
3 0.003623
4 0.003196
5 0.002834
6 0.002531
7 0.002298
8 0.002133
9 0.001936
10 0.001817
11 0.001724
12 0.001636
13 0.001561
14 0.001519
15 0.001556
16 0.001595
17 0.001669
18 0.001685
19 0.001667
20 0.001566
21 0.001342
22 0.001194
23 0.001144
24 0.001176
25 0.001265
26 0.001308
27 0.001315
28 0.001281
29 0.001221
30 0.001228
31 0.001158
32 0.001042
33 0.000920
34 0.000842
35 0.000815
36 0.000750
37 0.000797
38 0.000699
39 0.000593
40 0.000555
41 0.000558
42 0.000568
43 0.000612
44 0.000704
45 0.000797
46 0.000888
47 0.000914
48 0.000871
49 0.000847
50 0.000890
51 0.000890
52 0.000949
53 0.001012
54 0.001039
55 0.001085
56 0.001065
57 0.001037
58 0.000978
59 0.000935
60 0.000892
61 0.000908
62 0.000899
63 0.000818
64 0.000764
65 0.000722
66 0.000732
67 0.000665
68 0.000613
69 0.000544
70 0.000560
71 0.000509
72 0.000489
73 0.000471
74 0.000474
75 0.000497
76 0.000544
77 0.000578
78 0.000619
79 0.000658
80 0.000745
81 0.000765
82 0.000706
83 0.000656
84 0.000655
85 0.000697
86 0.000775
87 0.000829
88 0.000844
89 0.000832
90 0.000870
91 0.000888
92 0.000937
93 0.000959
94 0.000954
95 0.000955
96 0.001042
97 0.001115
98 0.001135
99 0.001113
100 0.001055
101 0.000971
102 0.000860
103 0.000804
104 0.000757
105 0.000750
106 0.000731
107 0.000752
108 0.000787
109 0.000822
110 0.000824
111 0.000898
112 0.000940
113 0.000933
114 0.000872
115 0.000787
116 0.000759
117 0.000703
118 0.000604
119 0.000479
120 0.000451
121 0.000415
122 0.000377
123 0.000436
124 0.000473
125 0.000493
126 0.000507
127 0.000549
128 0.000568
129 0.000593
130 0.000665
131 0.000763
132 0.000865
133 0.000991
134 0.001150
135 0.001270
136 0.001283
137 0.001213
138 0.001109
139 0.001055
140 0.001021
141 0.001009
142 0.000953
143 0.000896
144 0.000867
145 0.000829
146 0.000856
147 0.000894
148 0.000966
149 0.001056
150 0.001096
151 0.001147
152 0.001176
153 0.001221
154 0.001280
155 0.001290
156 0.001194
157 0.001099
158 0.001049
159 0.000931
160 0.000842
161 0.000780
162 0.000646
163 0.000576
164 0.000524
165 0.000455
166 0.000375
167 0.000326
168 0.000260
169 0.000153
170 0.000077
171 0.000022
172 0.000004
173 -0.000058
174 -0.000070
175 -0.000081
176 -0.000105
177 -0.000108
178 -0.000082
179 -0.000053
180 -0.000047
181 -0.000053
182 -0.000021
183 0.000051
184 0.000068
185 0.000112
186 0.000156
187 0.000196
188 0.000242
189 0.000277
190 0.000276
191 0.000358
192 0.000379
193 0.000418
194 0.000448
195 0.000447
196 0.000415
197 0.000401
198 0.000383
199 0.000406
200 0.000400
201 0.000439
202 0.000500
203 0.000545
204 0.000639
205 0.000760
206 0.000840
207 0.000894
208 0.000935
209 0.000968
210 0.000958
211 0.000899
212 0.000864
213 0.000830
214 0.000854
215 0.000826
216 0.000831
217 0.000835
218 0.000809
219 0.000766
220 0.000806
221 0.000884
222 0.001005
223 0.001059
224 0.001115
225 0.001143
226 0.001136
227 0.001081
228 0.001027
229 0.000959
230 0.000942
231 0.000955
232 0.000949
233 0.000939
234 0.000985
235 0.001028
236 0.001052
237 0.001060
238 0.001094
239 0.001102
240 0.001091
241 0.001108
242 0.001124
243 0.001104
244 0.001167
245 0.001216
246 0.001275
247 0.001344
248 0.001386
249 0.001417
250 0.001396
251 0.001399
252 0.001423
253 0.001421
254 0.001370
255 0.001341
256 0.001284
257 0.001217
258 0.001090
259 0.000996
260 0.000889
261 0.000824
262 0.000783
263 0.000749
264 0.000721
265 0.000675
266 0.000669
267 0.000676
268 0.000640
269 0.000601
270 0.000537
271 0.000489
272 0.000464
273 0.000360
274 0.000326
275 0.000321
276 0.000264
277 0.000197
278 0.000170
279 0.000194
280 0.000208
281 0.000241
282 0.000259
283 0.000358
284 0.000449
285 0.000497
286 0.000474
287 0.000439
288 0.000437
289 0.000440
290 0.000507
291 0.000505
292 0.000527
293 0.000528
294 0.000528
295 0.000502
296 0.000466
297 0.000438
298 0.000389
299 0.000377
300 0.000353
301 0.000342
302 0.000391
303 0.000451
304 0.000460
305 0.000471
306 0.000423
307 0.000381
308 0.000313
309 0.000340
310 0.000408
311 0.000456
312 0.000505
313 0.000493
314 0.000503
315 0.000519
316 0.000465
317 0.000410
318 0.000451
319 0.000491
320 0.000533
321 0.000604
322 0.000687
323 0.000651
324 0.000569
325 0.000525
326 0.000476
327 0.000463
328 0.000425
329 0.000455
330 0.000478
331 0.000470
332 0.000447
333 0.000366
334 0.000305
335 0.000250
336 0.000249
337 0.000321
338 0.000413
339 0.000469
340 0.000563
341 0.000673
342 0.000774
343 0.000831
344 0.000861
345 0.000852
346 0.000847
347 0.000859
348 0.000871
349 0.000934
350 0.000972
351 0.000995
352 0.000938
353 0.000848
354 0.000768
355 0.000779
356 0.000818
357 0.000865
358 0.000902
359 0.000892
360 0.000874
361 0.000805
362 0.000804
363 0.000733
364 0.000656
365 0.000615
366 0.000609
367 0.000634
368 0.000649
369 0.000645
370 0.000585
371 0.000589
372 0.000567
373 0.000569
374 0.000594
375 0.000645
376 0.000696
377 0.000714
378 0.000740
379 0.000802
380 0.000787
381 0.000747
382 0.000754
383 0.000738
384 0.000692
385 0.000650
386 0.000649
387 0.000672
388 0.000725
389 0.000700
390 0.000699
391 0.000719
392 0.000780
393 0.000809
394 0.000782
395 0.000801
396 0.000800
397 0.000790
398 0.000763
399 0.000747
400 0.000714
401 0.000732
402 0.000791
403 0.000809
404 0.000816
405 0.000824
406 0.000840
407 0.000830
408 0.000897
409 0.000949
410 0.000993
411 0.001001
412 0.000978
413 0.000950
414 0.000856
415 0.000715
416 0.000618
417 0.000519
418 0.000440
419 0.000427
420 0.000384
421 0.000319
422 0.000273
423 0.000243
424 0.000230
425 0.000216
426 0.000175
427 0.000168
428 0.000154
429 0.000217
430 0.000320
431 0.000333
432 0.000343
433 0.000349
434 0.000337
435 0.000344
436 0.000337
437 0.000352
438 0.000426
439 0.000469
440 0.000518
441 0.000526
442 0.000579
443 0.000580
444 0.000594
445 0.000604
446 0.000623
447 0.000639
448 0.000669
449 0.000691
450 0.000757
451 0.000749
452 0.000715
453 0.000663
454 0.000686
455 0.000790
456 0.000870
457 0.000932
458 0.001019
459 0.001069
460 0.001087
461 0.001087
462 0.001050
463 0.001053
464 0.001037
465 0.001015
466 0.000986
467 0.000960
468 0.000952
469 0.000917
470 0.000881
471 0.000830
472 0.000800
473 0.000748
474 0.000716
475 0.000768
476 0.000855
477 0.000909
478 0.000921
479 0.000903
480 0.000847
481 0.000716
482 0.000589
483 0.000492
484 0.000389
485 0.000372
486 0.000387
487 0.000417
488 0.000438
489 0.000457
490 0.000529
491 0.000563
492 0.000658
493 0.000704
494 0.000703
495 0.000716
496 0.000731
497 0.000739
498 0.000711
499 0.000678
500 0.000617
501 0.000541
502 0.000492
503 0.000461
504 0.000436
505 0.000433
506 0.000385
507 0.000304
508 0.000239
509 0.000209
510 0.000235
511 0.000238
512 0.000219
513 0.000218
514 0.000167
515 0.000149
516 0.000161
517 0.000196
518 0.000189
519 0.000174
520 0.000194
521 0.000221
522 0.000237
523 0.000245
524 0.000187
525 0.000101
526 0.000005
527 -0.000032
528 -0.000086
529 -0.000139
530 -0.000183
531 -0.000227
532 -0.000275
533 -0.000323
534 -0.000336
535 -0.000306
536 -0.000232
537 -0.000145
538 -0.000099
539 -0.000082
540 -0.000044
541 0.000008
542 0.000124
543 0.000216
544 0.000247
545 0.000279
546 0.000346
547 0.000449
548 0.000468
549 0.000471
550 0.000483
551 0.000480
552 0.000397
553 0.000333
554 0.000288
555 0.000225
556 0.000208
557 0.000191
558 0.000179
559 0.000146
560 0.000111
561 0.000035
562 0.000029
563 -0.000031
564 -0.000062
565 -0.000056
566 0.000002
567 0.000064
568 0.000106
569 0.000117
570 0.000127
571 0.000072
572 0.000060
573 0.000041
574 0.000119
575 0.000140
576 0.000161
577 0.000154
578 0.000117
579 0.000095
580 0.000062
581 0.000036
582 0.000009
583 -0.000009
584 0.000004
585 -0.000008
586 -0.000026
587 -0.000040
588 -0.000041
589 -0.000021
590 0.000006
591 0.000039
592 0.000027
593 0.000088
594 0.000140
595 0.000168
596 0.000196
597 0.000249
598 0.000266
599 0.000315
600 0.000319
601 0.000323
602 0.000320
603 0.000321
604 0.000333
605 0.000311
606 0.000277
607 0.000252
608 0.000238
609 0.000202
610 0.000193
611 0.000202
612 0.000250
613 0.000325
614 0.000357
615 0.000356
616 0.000313
617 0.000278
618 0.000289
619 0.000289
620 0.000243
621 0.000208
622 0.000154
623 0.000132
624 0.000165
625 0.000157
626 0.000195
627 0.000244
628 0.000275
629 0.000287
630 0.000280
631 0.000273
632 0.000240
633 0.000207
634 0.000200
635 0.000164
636 0.000160
637 0.000127
638 0.000098
639 0.000066
640 0.000078
641 0.000056
642 0.000013
643 -0.000011
644 0.000023
645 0.000041
646 0.000100
647 0.000143
648 0.000148
649 0.000120
650 0.000122
651 0.000110
652 0.000151
653 0.000159
654 0.000196
655 0.000202
656 0.000215
657 0.000205
658 0.000182
659 0.000184
660 0.000181
661 0.000141
662 0.000100
663 0.000049
664 0.000038
665 0.000041
666 -0.000002
667 -0.000051
668 -0.000102
669 -0.000132
670 -0.000146
671 -0.000120
672 -0.000061
673 0.000023
674 0.000076
675 0.000089
676 0.000095
677 0.000101
678 0.000132
679 0.000127
680 0.000126
681 0.000147
682 0.000171
683 0.000167
684 0.000159
685 0.000145
686 0.000129
687 0.000084
688 0.000037
689 0.000030
690 0.000045
691 0.000075
692 0.000112
693 0.000166
694 0.000189
695 0.000187
696 0.000171
697 0.000184
698 0.000210
699 0.000249
700 0.000286
701 0.000310
702 0.000344
703 0.000359
704 0.000377
705 0.000386
706 0.000388
707 0.000352
708 0.000324
709 0.000285
710 0.000285
711 0.000281
712 0.000266
713 0.000248
714 0.000255
715 0.000246
716 0.000229
717 0.000194
718 0.000158
719 0.000108
720 0.000055
721 0.000030
722 0.000029
723 0.000038
724 0.000065
725 0.000115
726 0.000159
727 0.000201
728 0.000211
729 0.000210
730 0.000226
731 0.000230
732 0.000232
733 0.000227
734 0.000248
735 0.000269
736 0.000242
737 0.000211
738 0.000170
739 0.000181
740 0.000191
741 0.000180
742 0.000184
743 0.000164
744 0.000143
745 0.000128
746 0.000110
747 0.000110
748 0.000122
749 0.000162
750 0.000169
751 0.000186
752 0.000216
753 0.000242
754 0.000250
755 0.000232
756 0.000175
757 0.000129
758 0.000100
759 0.000154
760 0.000215
761 0.000268
762 0.000281
763 0.000253
764 0.000232
765 0.000217
766 0.000203
767 0.000195
768 0.000168
769 0.000163
770 0.000160
771 0.000159
772 0.000130
773 0.000093
774 0.000046
775 -0.000001
776 -0.000035
777 -0.000029
778 -0.000025
779 0.000009
780 0.000068
781 0.000094
782 0.000135
783 0.000140
784 0.000140
785 0.000141
786 0.000127
787 0.000137
788 0.000161
789 0.000188
790 0.000218
791 0.000221
792 0.000231
793 0.000215
794 0.000179
795 0.000139
796 0.000129
797 0.000107
798 0.000114
799 0.000133
800 0.000133
801 0.000152
802 0.000170
803 0.000165
804 0.000149
805 0.000145
806 0.000150
807 0.000196
808 0.000212
809 0.000223
