# i correlation
1 0.005742
2 0.005089
3 0.004602
4 0.004222
5 0.003913
6 0.003583
7 0.003305
8 0.003067
9 0.002870
10 0.002696
11 0.002535
12 0.002380
13 0.002256
14 0.002182
15 0.002044
16 0.001883
17 0.001793
18 0.001705
19 0.001648
20 0.001526
21 0.001493
22 0.001456
23 0.001350
24 0.001232
25 0.001221
26 0.001226
27 0.001214
28 0.001203
29 0.001242
30 0.001301
31 0.001349
32 0.001293
33 0.001252
34 0.001098
35 0.000983
36 0.000931
37 0.000886
38 0.000938
39 0.000972
40 0.001070
41 0.001190
42 0.001245
43 0.001342
44 0.001437
45 0.001478
46 0.001528
47 0.001585
48 0.001646
49 0.001668
50 0.001710
51 0.001790
52 0.001806
53 0.001750
54 0.001722
55 0.001717
56 0.001623
57 0.001481
58 0.001370
59 0.001290
60 0.001254
61 0.001205
62 0.001159
63 0.001138
64 0.001080
65 0.001038
66 0.001088
67 0.001091
68 0.000953
69 0.000954
70 0.000959
71 0.001012
72 0.001084
73 0.001118
74 0.001134
75 0.001092
76 0.001122
77 0.001175
78 0.001153
79 0.001159
80 0.001218
81 0.001255
82 0.001331
83 0.001403
84 0.001442
85 0.001513
86 0.001507
87 0.001412
88 0.001247
89 0.001158
90 0.001106
91 0.001091
92 0.001103
93 0.001129
94 0.001141
95 0.001219
96 0.001270
97 0.001308
98 0.001319
99 0.001253
100 0.001194
101 0.001031
102 0.000963
103 0.000874
104 0.000809
105 0.000781
106 0.000673
107 0.000611
108 0.000428
109 0.000363
110 0.000383
111 0.000392
112 0.000372
113 0.000305
114 0.000292
115 0.000293
116 0.000310
117 0.000376
118 0.000332
119 0.000230
120 0.000105
121 0.000028
122 -0.000006
123 0.000000
124 0.000015
125 0.000006
126 0.000069
127 0.000166
128 0.000323
129 0.000342
130 0.000371
131 0.000427
132 0.000461
133 0.000516
134 0.000563
135 0.000549
136 0.000562
137 0.000510
138 0.000537
139 0.000518
140 0.000492
141 0.000440
142 0.000446
143 0.000478
144 0.000509
145 0.000557
146 0.000575
147 0.000598
148 0.000568
149 0.000596
150 0.000677
151 0.000720
152 0.000772
153 0.000755
154 0.000696
155 0.000692
156 0.000687
157 0.000735
158 0.000751
159 0.000771
160 0.000729
161 0.000760
162 0.000786
163 0.000753
164 0.000705
165 0.000673
166 0.000665
167 0.000659
168 0.000582
169 0.000596
170 0.000585
171 0.000565
172 0.000595
173 0.000594
174 0.000570
175 0.000559
176 0.000546
177 0.000545
178 0.000527
179 0.000450
180 0.000389
181 0.000400
182 0.000413
183 0.000405
184 0.000350
185 0.000295
186 0.000271
187 0.000301
188 0.000283
189 0.000294
190 0.000317
191 0.000315
192 0.000295
193 0.000273
194 0.000198
195 0.000104
196 -0.000020
197 -0.000081
198 -0.000121
199 -0.000132
200 -0.000075
201 -0.000056
202 -0.000014
203 0.000032
204 0.000036
205 0.000059
206 0.000038
207 0.000075
208 0.000167
209 0.000206
210 0.000226
211 0.000198
212 0.000205
213 0.000246
214 0.000337
215 0.000345
216 0.000463
217 0.000515
218 0.000547
219 0.000588
220 0.000620
221 0.000691
222 0.000713
223 0.000678
224 0.000663
225 0.000661
226 0.000657
227 0.000576
228 0.000576
229 0.000599
230 0.000643
231 0.000673
232 0.000699
233 0.000782
234 0.000879
235 0.000927
236 0.000941
237 0.000930
238 0.000943
239 0.000894
240 0.000774
241 0.000716
242 0.000619
243 0.000498
244 0.000369
245 0.000288
246 0.000159
247 0.000117
248 0.000048
249 -0.000020
250 -0.000118
251 -0.000169
252 -0.000146
253 -0.000224
254 -0.000215
255 -0.000223
256 -0.000170
257 -0.000158
258 -0.000160
259 -0.000128
260 -0.000098
261 -0.000044
262 0.000035
263 0.000073
264 0.000116
265 0.000050
266 -0.000026
267 -0.000007
268 -0.000004
269 0.000013
270 -0.000021
271 -0.000091
272 -0.000079
273 -0.000063
274 -0.000031
275 -0.000082
276 -0.000085
277 -0.000083
278 -0.000109
279 -0.000132
280 -0.000208
281 -0.000257
282 -0.000308
283 -0.000357
284 -0.000385
285 -0.000387
286 -0.000374
287 -0.000306
288 -0.000225
289 -0.000170
290 -0.000158
291 -0.000164
292 -0.000158
293 -0.000143
294 -0.000152
295 -0.000137
296 -0.000150
297 -0.000127
298 -0.000078
299 -0.000028
300 0.000032
301 0.000054
302 0.000067
303 0.000162
304 0.000234
305 0.000326
306 0.000359
307 0.000410
308 0.000459
309 0.000504
310 0.000576
311 0.000599
312 0.000626
313 0.000608
314 0.000628
315 0.000663
316 0.000720
317 0.000751
318 0.000805
319 0.000951
320 0.001040
321 0.001139
322 0.001111
323 0.001059
324 0.001051
325 0.001093
326 0.001070
327 0.000971
328 0.000901
329 0.000811
330 0.000738
331 0.000659
332 0.000589
333 0.000544
334 0.000466
335 0.000389
336 0.000295
337 0.000124
338 0.000041
339 0.000002
340 -0.000069
341 -0.000119
342 -0.000219
343 -0.000317
344 -0.000364
345 -0.000427
346 -0.000466
347 -0.000467
348 -0.000377
349 -0.000286
350 -0.000175
351 -0.000174
352 -0.000129
353 -0.000071
354 0.000052
355 0.000100
356 0.000146
357 0.000145
358 0.000152
359 0.000194
360 0.000264
361 0.000329
362 0.000407
363 0.000463
364 0.000541
365 0.000626
366 0.000630
367 0.000647
368 0.000699
369 0.000773
370 0.000761
371 0.000797
372 0.000825
373 0.000830
374 0.000871
375 0.000883
376 0.000904
377 0.000850
378 0.000760
379 0.000780
380 0.000821
381 0.000886
382 0.000939
383 0.000913
384 0.000827
385 0.000768
386 0.000782
387 0.000784
388 0.000717
389 0.000593
390 0.000563
391 0.000554
392 0.000532
393 0.000532
394 0.000535
395 0.000577
396 0.000585
397 0.000541
398 0.000492
399 0.000439
400 0.000419
401 0.000437
402 0.000423
403 0.000396
404 0.000377
405 0.000411
406 0.000465
407 0.000477
408 0.000514
409 0.000540
410 0.000570
411 0.000592
412 0.000624
413 0.000624
414 0.000623
415 0.000668
416 0.000687
417 0.000709
418 0.000666
419 0.000619
420 0.000599
421 0.000537
422 0.000458
423 0.000390
424 0.000351
425 0.000284
426 0.000313
427 0.000322
428 0.000291
429 0.000210
430 0.000112
431 0.000078
432 -0.000015
433 -0.000124
434 -0.000173
435 -0.000185
436 -0.000189
437 -0.000193
438 -0.000188
439 -0.000220
440 -0.000277
441 -0.000293
442 -0.000281
443 -0.000298
444 -0.000409
445 -0.000422
446 -0.000445
447 -0.000456
448 -0.000435
449 -0.000409
450 -0.000404
451 -0.000422
452 -0.000465
453 -0.000501
454 -0.000471
455 -0.000504
456 -0.000555
457 -0.000570
458 -0.000580
459 -0.000502
460 -0.000411
461 -0.000281
462 -0.000183
463 -0.000134
464 -0.000081
465 -0.000062
466 -0.000010
467 0.000104
468 0.000183
469 0.000201
470 0.000138
471 0.000097
472 0.000151
473 0.000179
474 0.000159
475 0.000118
476 0.000137
477 0.000162
478 0.000229
479 0.000245
480 0.000223
481 0.000213
482 0.000199
483 0.000153
484 0.000101
485 -0.000003
486 0.000016
487 0.000029
488 0.000002
489 -0.000032
490 -0.000026
491 -0.000031
492 0.000010
493 0.000125
494 0.000173
495 0.000203
496 0.000156
497 0.000152
498 0.000167
499 0.000181
500 0.000197
501 0.000191
502 0.000195
503 0.000219
504 0.000163
505 0.000136
506 0.000040
507 -0.000058
508 -0.000116
509 -0.000111
510 -0.000096
511 -0.000063
512 -0.000047
513 -0.000056
514 -0.000025
515 0.000012
516 -0.000001
517 0.000010
518 -0.000006
519 0.000006
520 0.000025
521 0.000042
522 0.000024
523 -0.000001
524 0.000041
525 0.000084
526 0.000151
527 0.000162
528 0.000149
529 0.000116
530 0.000081
531 0.000091
532 0.000086
533 0.000123
534 0.000167
535 0.000170
536 0.000104
537 0.000038
538 0.000062
539 0.000056
540 0.000053
541 0.000092
542 0.000146
543 0.000214
544 0.000270
545 0.000353
546 0.000427
547 0.000497
548 0.000561
549 0.000606
550 0.000638
551 0.000627
552 0.000628
553 0.000624
554 0.000614
555 0.000593
556 0.000583
557 0.000606
558 0.000613
559 0.000629
560 0.000619
561 0.000596
562 0.000587
563 0.000594
564 0.000658
565 0.000674
566 0.000712
567 0.000695
568 0.000640
569 0.000611
570 0.000588
571 0.000561
572 0.000550
573 0.000548
574 0.000522
575 0.000462
576 0.000450
577 0.000473
578 0.000502
579 0.000519
580 0.000516
581 0.000493
582 0.000452
583 0.000432
584 0.000431
585 0.000424
586 0.000437
587 0.000469
588 0.000536
589 0.000591
590 0.000628
591 0.000606
592 0.000598
593 0.000627
594 0.000647
595 0.000703
596 0.000711
597 0.000760
598 0.000836
599 0.000882
600 0.000933
601 0.000973
602 0.000960
603 0.000939
604 0.000949
605 0.000900
606 0.000821
607 0.000808
608 0.000780
609 0.000729
610 0.000701
611 0.000671
612 0.000680
613 0.000635
614 0.000608
615 0.000548
616 0.000518
617 0.000544
618 0.000594
619 0.000636
620 0.000705
621 0.000721
622 0.000703
623 0.000662
624 0.000650
625 0.000616
626 0.000626
627 0.000628
628 0.000666
629 0.000742
630 0.000787
631 0.000864
632 0.000870
633 0.000862
634 0.000840
635 0.000801
636 0.000780
637 0.000778
638 0.000794
639 0.000780
640 0.000761
641 0.000732
642 0.000712
643 0.000717
644 0.000729
645 0.000793
646 0.000774
647 0.000737
648 0.000755
649 0.000778
650 0.000827
651 0.000843
652 0.000834
653 0.000800
654 0.000745
655 0.000696
656 0.000647
657 0.000606
658 0.000523
659 0.000486
660 0.000487
661 0.000461
662 0.000456
663 0.000401
664 0.000366
665 0.000322
666 0.000243
667 0.000190
668 0.000159
669 0.000175
670 0.000198
671 0.000236
672 0.000232
673 0.000211
674 0.000245
675 0.000299
676 0.000380
677 0.000442
678 0.000507
679 0.000578
680 0.000644
681 0.000696
682 0.000729
683 0.000801
684 0.000842
685 0.000866
686 0.000875
687 0.000895
688 0.000859
689 0.000800
690 0.000779
691 0.000721
692 0.000677
693 0.000674
694 0.000657
695 0.000651
696 0.000629
697 0.000650
698 0.000670
699 0.000658
700 0.000700
701 0.000744
702 0.000753
703 0.000763
704 0.000775
705 0.000763
706 0.000749
707 0.000737
708 0.000726
709 0.000696
710 0.000659
711 0.000655
712 0.000630
713 0.000585
714 0.000576
715 0.000615
716 0.000657
717 0.000671
718 0.000671
719 0.000667
720 0.000671
721 0.000685
722 0.000687
723 0.000708
724 0.000720
725 0.000731
726 0.000721
727 0.000691
728 0.000683
729 0.000688
730 0.000719
731 0.000762
732 0.000740
733 0.000734
734 0.000753
735 0.000788
736 0.000855
737 0.000859
738 0.000834
739 0.000806
740 0.000780
741 0.000772
742 0.000757
743 0.000729
744 0.000684
745 0.000648
746 0.000603
747 0.000576
748 0.000546
749 0.000522
750 0.000522
751 0.000516
752 0.000514
753 0.000514
754 0.000510
755 0.000505
756 0.000512
757 0.000494
758 0.000426
759 0.000377
760 0.000351
761 0.000329
762 0.000327
763 0.000302
764 0.000298
765 0.000287
766 0.000335
767 0.000393
768 0.000374
769 0.000353
770 0.000347
771 0.000321
772 0.000298
773 0.000283
774 0.000301
775 0.000290
776 0.000278
777 0.000284
778 0.000284
779 0.000280
780 0.000297
781 0.000346
782 0.000386
783 0.000433
784 0.000474
785 0.000482
786 0.000480
787 0.000496
788 0.000519
789 0.000508
790 0.000498
791 0.000502
792 0.000519
793 0.000545
794 0.000543
795 0.000541
796 0.000532
797 0.000536
798 0.000540
799 0.000521
800 0.000512
801 0.000473
802 0.000464
803 0.000475
804 0.000453
805 0.000417
806 0.000371
807 0.000342
808 0.000307
809 0.000253
