# i correlation
1 0.005118
2 0.004378
3 0.003802
4 0.003360
5 0.003007
6 0.002714
7 0.002486
8 0.002283
9 0.002186
10 0.002120
11 0.001987
12 0.001924
13 0.001891
14 0.001814
15 0.001793
16 0.001733
17 0.001647
18 0.001571
19 0.001492
20 0.001503
21 0.001530
22 0.001538
23 0.001497
24 0.001536
25 0.001710
26 0.001858
27 0.001859
28 0.001844
29 0.001845
30 0.001803
31 0.001718
32 0.001639
33 0.001480
34 0.001346
35 0.001252
36 0.001201
37 0.001132
38 0.001070
39 0.000986
40 0.000947
41 0.000936
42 0.000990
43 0.000947
44 0.000834
45 0.000722
46 0.000668
47 0.000613
48 0.000552
49 0.000498
50 0.000458
51 0.000507
52 0.000554
53 0.000566
54 0.000618
55 0.000678
56 0.000706
57 0.000782
58 0.000911
59 0.000852
60 0.000786
61 0.000819
62 0.000812
63 0.000730
64 0.000617
65 0.000524
66 0.000430
67 0.000343
68 0.000343
69 0.000299
70 0.000354
71 0.000394
72 0.000428
73 0.000404
74 0.000420
75 0.000439
76 0.000472
77 0.000487
78 0.000497
79 0.000515
80 0.000565
81 0.000556
82 0.000596
83 0.000686
84 0.000735
85 0.000716
86 0.000763
87 0.000800
88 0.000746
89 0.000719
90 0.000749
91 0.000785
92 0.000776
93 0.000794
94 0.000790
95 0.000822
96 0.000852
97 0.000849
98 0.000782
99 0.000717
100 0.000728
101 0.000809
102 0.000877
103 0.000877
104 0.000839
105 0.000870
106 0.000846
107 0.000885
108 0.000980
109 0.001082
110 0.001179
111 0.001241
112 0.001303
113 0.001301
114 0.001255
115 0.001083
116 0.000951
117 0.000847
118 0.000769
119 0.000685
120 0.000663
121 0.000624
122 0.000659
123 0.000713
124 0.000709
125 0.000639
126 0.000606
127 0.000580
128 0.000535
129 0.000469
130 0.000315
131 0.000212
132 0.000133
133 0.000199
134 0.000363
135 0.000428
136 0.000473
137 0.000498
138 0.000582
139 0.000620
140 0.000642
141 0.000664
142 0.000680
143 0.000678
144 0.000725
145 0.000732
146 0.000765
147 0.000704
148 0.000727
149 0.000747
150 0.000709
151 0.000626
152 0.000529
153 0.000413
154 0.000405
155 0.000384
156 0.000397
157 0.000346
158 0.000299
159 0.000328
160 0.000296
161 0.000291
162 0.000293
163 0.000318
164 0.000355
165 0.000421
166 0.000477
167 0.000485
168 0.000468
169 0.000421
170 0.000367
171 0.000416
172 0.000475
173 0.000433
174 0.000366
175 0.000343
176 0.000331
177 0.000402
178 0.000397
179 0.000391
180 0.000474
181 0.000501
182 0.000406
183 0.000297
184 0.000238
185 0.000210
186 0.000171
187 0.000120
188 0.000107
189 0.000051
190 0.000039
191 -0.000026
192 0.000024
193 0.000126
194 0.000189
195 0.000196
196 0.000190
197 0.000279
198 0.000309
199 0.000331
200 0.000318
201 0.000359
202 0.000408
203 0.000434
204 0.000472
205 0.000416
206 0.000418
207 0.000463
208 0.000493
209 0.000497
210 0.000488
211 0.000475
212 0.000450
213 0.000381
214 0.000337
215 0.000339
216 0.000312
217 0.000395
218 0.000460
219 0.000562
220 0.000637
221 0.000686
222 0.000777
223 0.000871
224 0.000938
225 0.000925
226 0.000896
227 0.000871
228 0.000794
229 0.000737
230 0.000734
231 0.000711
232 0.000707
233 0.000664
234 0.000625
235 0.000594
236 0.000650
237 0.000707
238 0.000764
239 0.000846
240 0.000855
241 0.000870
242 0.000847
243 0.000857
244 0.000826
245 0.000803
246 0.000809
247 0.000814
248 0.000817
249 0.000830
250 0.000844
251 0.000926
252 0.000960
253 0.000928
254 0.000876
255 0.000909
256 0.000897
257 0.000940
258 0.000935
259 0.000916
260 0.000859
261 0.000763
262 0.000710
263 0.000639
264 0.000608
265 0.000554
266 0.000510
267 0.000499
268 0.000520
269 0.000532
270 0.000586
271 0.000589
272 0.000645
273 0.000728
274 0.000757
275 0.000691
276 0.000586
277 0.000512
278 0.000512
279 0.000565
280 0.000621
281 0.000621
282 0.000633
283 0.000629
284 0.000662
285 0.000735
286 0.000643
287 0.000526
288 0.000437
289 0.000391
290 0.000387
291 0.000333
292 0.000271
293 0.000148
294 0.000115
295 0.000112
296 0.000005
297 -0.000097
298 -0.000165
299 -0.000191
300 -0.000214
301 -0.000296
302 -0.000326
303 -0.000356
304 -0.000307
305 -0.000235
306 -0.000150
307 -0.000096
308 0.000014
309 0.000096
310 0.000173
311 0.000261
312 0.000327
313 0.000379
314 0.000401
315 0.000445
316 0.000431
317 0.000403
318 0.000355
319 0.000280
320 0.000272
321 0.000336
322 0.000377
323 0.000324
324 0.000238
325 0.000156
326 0.000125
327 0.000109
328 0.000053
329 0.000004
330 -0.000037
331 -0.000011
332 -0.000001
333 -0.000044
334 -0.000077
335 -0.000107
336 -0.000041
337 0.000007
338 0.000044
339 0.000101
340 0.000139
341 0.000187
342 0.000244
343 0.000210
344 0.000202
345 0.000141
346 0.000219
347 0.000288
348 0.000367
349 0.000377
350 0.000357
351 0.000351
352 0.000390
353 0.000435
354 0.000380
355 0.000266
356 0.000161
357 0.000146
358 0.000121
359 0.000045
360 0.000003
361 0.000001
362 -0.000023
363 -0.000058
364 -0.000073
365 -0.000035
366 0.000098
367 0.000225
368 0.000316
369 0.000367
370 0.000394
371 0.000421
372 0.000401
373 0.000426
374 0.000440
375 0.000441
376 0.000453
377 0.000401
378 0.000397
379 0.000343
380 0.000285
381 0.000261
382 0.000239
383 0.000250
384 0.000259
385 0.000247
386 0.000212
387 0.000145
388 0.000120
389 0.000100
390 0.000056
391 0.000071
392 0.000090
393 0.000173
394 0.000189
395 0.000216
396 0.000251
397 0.000249
398 0.000247
399 0.000247
400 0.000191
401 0.000132
402 0.000098
403 0.000051
404 0.000030
405 -0.000021
406 -0.000088
407 -0.000131
408 -0.000125
409 -0.000109
410 -0.000094
411 -0.000083
412 -0.000094
413 -0.000127
414 -0.000155
415 -0.000234
416 -0.000258
417 -0.000296
418 -0.000274
419 -0.000209
420 -0.000111
421 -0.000044
422 0.000001
423 0.000108
424 0.000179
425 0.000208
426 0.000194
427 0.000127
428 0.000104
429 0.000080
430 0.000050
431 0.000075
432 0.000096
433 0.000109
434 0.000169
435 0.000217
436 0.000254
437 0.000220
438 0.000185
439 0.000144
440 0.000087
441 0.000052
442 -0.000044
443 -0.000157
444 -0.000179
445 -0.000141
446 -0.000095
447 -0.000048
448 0.000009
449 0.000051
450 0.000107
451 0.000188
452 0.000225
453 0.000235
454 0.000321
455 0.000351
456 0.000388
457 0.000431
458 0.000468
459 0.000483
460 0.000538
461 0.000606
462 0.000662
463 0.000699
464 0.000707
465 0.000707
466 0.000712
467 0.000724
468 0.000702
469 0.000662
470 0.000650
471 0.000616
472 0.000566
473 0.000458
474 0.000382
475 0.000385
476 0.000402
477 0.000444
478 0.000475
479 0.000481
480 0.000509
481 0.000525
482 0.000556
483 0.000587
484 0.000623
485 0.000616
486 0.000620
487 0.000601
488 0.000586
489 0.000586
490 0.000603
491 0.000555
492 0.000527
493 0.000524
494 0.000555
495 0.000582
496 0.000681
497 0.000703
498 0.000684
499 0.000623
500 0.000527
501 0.000454
502 0.000422
503 0.000428
504 0.000386
505 0.000331
506 0.000302
507 0.000274
508 0.000203
509 0.000167
510 0.000173
511 0.000171
512 0.000196
513 0.000194
514 0.000132
515 0.000028
516 -0.000017
517 -0.000079
518 -0.000155
519 -0.000132
520 -0.000135
521 -0.000159
522 -0.000129
523 -0.000091
524 -0.000035
525 0.000025
526 0.000048
527 0.000039
528 0.000023
529 0.000003
530 -0.000033
531 -0.000057
532 -0.000016
533 0.000025
534 0.000034
535 0.000005
536 -0.000041
537 -0.000051
538 -0.000033
539 -0.000033
540 -0.000069
541 -0.000105
542 -0.000126
543 -0.000134
544 -0.000121
545 -0.000067
546 -0.000046
547 0.000011
548 0.000077
549 0.000126
550 0.000184
551 0.000196
552 0.000229
553 0.000197
554 0.000220
555 0.000207
556 0.000202
557 0.000183
558 0.000214
559 0.000292
560 0.000358
561 0.000436
562 0.000481
563 0.000507
564 0.000475
565 0.000454
566 0.000403
567 0.000321
568 0.000276
569 0.000267
570 0.000326
571 0.000366
572 0.000437
573 0.000508
574 0.000572
575 0.000621
576 0.000624
577 0.000613
578 0.000609
579 0.000618
580 0.000654
581 0.000645
582 0.000629
583 0.000594
584 0.000552
585 0.000522
586 0.000496
587 0.000476
588 0.000504
589 0.000516
590 0.000575
591 0.000645
592 0.000678
593 0.000714
594 0.000710
595 0.000699
596 0.000661
597 0.000649
598 0.000643
599 0.000650
600 0.000654
601 0.000601
602 0.000539
603 0.000565
604 0.000575
605 0.000593
606 0.000623
607 0.000601
608 0.000595
609 0.000543
610 0.000517
611 0.000482
612 0.000473
613 0.000447
614 0.000400
615 0.000371
616 0.000397
617 0.000422
618 0.000443
619 0.000436
620 0.000445
621 0.000473
622 0.000475
623 0.000446
624 0.000441
625 0.000405
626 0.000359
627 0.000306
628 0.000247
629 0.000201
630 0.000190
631 0.000184
632 0.000218
633 0.000269
634 0.000366
635 0.000410
636 0.000448
637 0.000450
638 0.000444
639 0.000383
640 0.000335
641 0.000272
642 0.000204
643 0.000153
644 0.000110
645 0.000072
646 0.000052
647 0.000054
648 0.000061
649 0.000056
650 0.000035
651 0.000016
652 -0.000007
653 -0.000042
654 -0.000103
655 -0.000108
656 -0.000096
657 -0.000111
658 -0.000091
659 -0.000091
660 -0.000097
661 -0.000024
662 0.000039
663 0.000108
664 0.000138
665 0.000147
666 0.000130
667 0.000108
668 0.000111
669 0.000085
670 0.000074
671 0.000072
672 0.000067
673 0.000075
674 0.000085
675 0.000110
676 0.000114
677 0.000093
678 0.000110
679 0.000090
680 0.000055
681 0.000011
682 -0.000000
683 -0.000002
684 -0.000013
685 -0.000019
686 -0.000019
687 -0.000021
688 -0.000018
689 -0.000023
690 -0.000019
691 -0.000051
692 -0.000075
693 -0.000046
694 0.000004
695 0.000033
696 0.000050
697 0.000030
698 -0.000008
699 -0.000058
700 -0.000073
701 -0.000078
702 -0.000098
703 -0.000107
704 -0.000057
705 0.000009
706 0.000038
707 0.000067
708 0.000071
709 0.000051
710 0.000038
711 -0.000002
712 -0.000054
713 -0.000034
714 -0.000024
715 -0.000012
716 -0.000008
717 0.000019
718 0.000042
719 0.000100
720 0.000188
721 0.000227
722 0.000213
723 0.000179
724 0.000127
725 0.000080
726 0.000055
727 0.000047
728 0.000039
729 0.000054
730 0.000086
731 0.000109
732 0.000147
733 0.000184
734 0.000202
735 0.000217
736 0.000219
737 0.000233
738 0.000211
739 0.000217
740 0.000218
741 0.000191
742 0.000200
743 0.000205
744 0.000203
745 0.000231
746 0.000268
747 0.000277
748 0.000230
749 0.000195
750 0.000172
751 0.000159
752 0.000157
753 0.000134
754 0.000078
755 0.000017
756 0.000001
757 -0.000011
758 -0.000024
759 -0.000035
760 -0.000035
761 -0.000067
762 -0.000048
763 -0.000028
764 -0.000043
765 -0.000046
766 -0.000075
767 -0.000103
768 -0.000125
769 -0.000126
770 -0.000136
771 -0.000135
772 -0.000110
773 -0.000092
774 -0.000086
775 -0.000052
776 -0.000023
777 -0.000007
778 0.000019
779 0.000014
780 -0.000002
781 -0.000010
782 -0.000035
783 -0.000059
784 -0.000080
785 -0.000086
786 -0.000141
787 -0.000177
788 -0.000200
789 -0.000238
790 -0.000262
791 -0.000271
792 -0.000264
793 -0.000259
794 -0.000266
795 -0.000260
796 -0.000273
797 -0.000252
798 -0.000215
799 -0.000207
800 -0.000217
801 -0.000214
802 -0.000206
803 -0.000227
804 -0.000244
805 -0.000253
806 -0.000270
807 -0.000241
808 -0.000239
809 -0.000234
