# i correlation
1 0.005342
2 0.004698
3 0.004147
4 0.003688
5 0.003370
6 0.003183
7 0.003000
8 0.002860
9 0.002669
10 0.002444
11 0.002172
12 0.001958
13 0.001801
14 0.001587
15 0.001421
16 0.001292
17 0.001183
18 0.001136
19 0.001050
20 0.000934
21 0.000882
22 0.000827
23 0.000689
24 0.000586
25 0.000557
26 0.000537
27 0.000470
28 0.000437
29 0.000445
30 0.000457
31 0.000479
32 0.000502
33 0.000548
34 0.000555
35 0.000564
36 0.000557
37 0.000485
38 0.000396
39 0.000331
40 0.000280
41 0.000232
42 0.000212
43 0.000204
44 0.000240
45 0.000188
46 0.000189
47 0.000193
48 0.000217
49 0.000182
50 0.000230
51 0.000272
52 0.000288
53 0.000255
54 0.000295
55 0.000388
56 0.000402
57 0.000448
58 0.000435
59 0.000427
60 0.000432
61 0.000449
62 0.000421
63 0.000343
64 0.000272
65 0.000251
66 0.000265
67 0.000292
68 0.000345
69 0.000357
70 0.000345
71 0.000335
72 0.000260
73 0.000214
74 0.000149
75 0.000099
76 0.000087
77 0.000031
78 -0.000067
79 -0.000127
80 -0.000142
81 -0.000230
82 -0.000323
83 -0.000378
84 -0.000395
85 -0.000366
86 -0.000434
87 -0.000427
88 -0.000364
89 -0.000336
90 -0.000343
91 -0.000393
92 -0.000422
93 -0.000447
94 -0.000479
95 -0.000536
96 -0.000503
97 -0.000439
98 -0.000360
99 -0.000284
100 -0.000262
101 -0.000152
102 0.000014
103 0.000165
104 0.000297
105 0.000377
106 0.000503
107 0.000639
108 0.000688
109 0.000759
110 0.000823
111 0.000925
112 0.000943
113 0.001001
114 0.001038
115 0.001105
116 0.001166
117 0.001174
118 0.001089
119 0.001015
120 0.000955
121 0.000925
122 0.000797
123 0.000800
124 0.000787
125 0.000738
126 0.000651
127 0.000559
128 0.000498
129 0.000469
130 0.000385
131 0.000294
132 0.000212
133 0.000124
134 0.000074
135 0.000128
136 0.000226
137 0.000275
138 0.000303
139 0.000274
140 0.000270
141 0.000187
142 0.000218
143 0.000226
144 0.000276
145 0.000327
146 0.000421
147 0.000501
148 0.000648
149 0.000752
150 0.000804
151 0.000762
152 0.000747
153 0.000719
154 0.000678
155 0.000690
156 0.000652
157 0.000696
158 0.000744
159 0.000711
160 0.000653
161 0.000608
162 0.000521
163 0.000426
164 0.000352
165 0.000368
166 0.000333
167 0.000358
168 0.000406
169 0.000319
170 0.000317
171 0.000306
172 0.000315
173 0.000360
174 0.000430
175 0.000543
176 0.000637
177 0.000697
178 0.000762
179 0.000807
180 0.000816
181 0.000828
182 0.000835
183 0.000887
184 0.000948
185 0.000975
186 0.001043
187 0.001120
188 0.001126
189 0.001107
190 0.001057
191 0.000982
192 0.000992
193 0.000950
194 0.000933
195 0.000892
196 0.000921
197 0.000965
198 0.000866
199 0.000732
200 0.000673
201 0.000567
202 0.000431
203 0.000403
204 0.000362
205 0.000390
206 0.000466
207 0.000492
208 0.000477
209 0.000461
210 0.000422
211 0.000315
212 0.000274
213 0.000291
214 0.000325
215 0.000386
216 0.000403
217 0.000370
218 0.000344
219 0.000325
220 0.000293
221 0.000272
222 0.000312
223 0.000422
224 0.000466
225 0.000506
226 0.000530
227 0.000571
228 0.000510
229 0.000429
230 0.000264
231 0.000161
232 0.000164
233 0.000174
234 0.000227
235 0.000189
236 0.000174
237 0.000150
238 0.000090
239 0.000085
240 0.000106
241 0.000183
242 0.000191
243 0.000183
244 0.000090
245 -0.000013
246 -0.000043
247 -0.000105
248 -0.000193
249 -0.000252
250 -0.000300
251 -0.000310
252 -0.000288
253 -0.000242
254 -0.000176
255 -0.000116
256 -0.000085
257 -0.000010
258 0.000110
259 0.000199
260 0.000270
261 0.000362
262 0.000324
263 0.000315
264 0.000327
265 0.000363
266 0.000307
267 0.000258
268 0.000170
269 0.000084
270 -0.000033
271 -0.000096
272 -0.000131
273 -0.000172
274 -0.000185
275 -0.000206
276 -0.000242
277 -0.000287
278 -0.000301
279 -0.000383
280 -0.000489
281 -0.000498
282 -0.000515
283 -0.000451
284 -0.000407
285 -0.000379
286 -0.000314
287 -0.000302
288 -0.000283
289 -0.000231
290 -0.000179
291 -0.000067
292 -0.000020
293 0.000072
294 0.000263
295 0.000364
296 0.000460
297 0.000539
298 0.000650
299 0.000723
300 0.000760
301 0.000758
302 0.000741
303 0.000775
304 0.000778
305 0.000796
306 0.000734
307 0.000714
308 0.000741
309 0.000740
310 0.000711
311 0.000724
312 0.000753
313 0.000765
314 0.000799
315 0.000792
316 0.000805
317 0.000771
318 0.000685
319 0.000536
320 0.000447
321 0.000345
322 0.000309
323 0.000284
324 0.000307
325 0.000376
326 0.000433
327 0.000430
328 0.000408
329 0.000391
330 0.000443
331 0.000478
332 0.000458
333 0.000516
334 0.000531
335 0.000518
336 0.000493
337 0.000406
338 0.000373
339 0.000358
340 0.000354
341 0.000314
342 0.000263
343 0.000250
344 0.000277
345 0.000306
346 0.000366
347 0.000418
348 0.000445
349 0.000427
350 0.000432
351 0.000383
352 0.000342
353 0.000346
354 0.000320
355 0.000291
356 0.000257
357 0.000214
358 0.000138
359 0.000056
360 0.000029
361 0.000023
362 0.000049
363 0.000072
364 0.000063
365 0.000061
366 0.000040
367 0.000024
368 0.000003
369 -0.000004
370 0.000001
371 0.000099
372 0.000170
373 0.000180
374 0.000233
375 0.000255
376 0.000260
377 0.000190
378 0.000140
379 0.000089
380 0.000052
381 0.000065
382 0.000131
383 0.000156
384 0.000119
385 0.000080
386 -0.000007
387 -0.000108
388 -0.000193
389 -0.000265
390 -0.000259
391 -0.000243
392 -0.000229
393 -0.000236
394 -0.000243
395 -0.000303
396 -0.000286
397 -0.000259
398 -0.000235
399 -0.000202
400 -0.000152
401 -0.000053
402 0.000076
403 0.000158
404 0.000279
405 0.000336
406 0.000339
407 0.000398
408 0.000414
409 0.000439
410 0.000489
411 0.000527
412 0.000574
413 0.000592
414 0.000636
415 0.000735
416 0.000779
417 0.000741
418 0.000694
419 0.000686
420 0.000665
421 0.000635
422 0.000615
423 0.000634
424 0.000629
425 0.000553
426 0.000523
427 0.000435
428 0.000309
429 0.000234
430 0.000133
431 0.000049
432 0.000003
433 0.000017
434 0.000029
435 0.000019
436 -0.000024
437 -0.000083
438 -0.000119
439 -0.000206
440 -0.000292
441 -0.000307
442 -0.000324
443 -0.000380
444 -0.000421
445 -0.000457
446 -0.000471
447 -0.000468
448 -0.000451
449 -0.000466
450 -0.000498
451 -0.000471
452 -0.000461
453 -0.000470
454 -0.000444
455 -0.000450
456 -0.000454
457 -0.000458
458 -0.000506
459 -0.000496
460 -0.000512
461 -0.000527
462 -0.000518
463 -0.000540
464 -0.000551
465 -0.000601
466 -0.000612
467 -0.000620
468 -0.000601
469 -0.000572
470 -0.000505
471 -0.000491
472 -0.000465
473 -0.000440
474 -0.000410
475 -0.000371
476 -0.000378
477 -0.000431
478 -0.000454
479 -0.000455
480 -0.000429
481 -0.000359
482 -0.000301
483 -0.000294
484 -0.000253
485 -0.000241
486 -0.000240
487 -0.000285
488 -0.000263
489 -0.000287
490 -0.000315
491 -0.000322
492 -0.000291
493 -0.000273
494 -0.000243
495 -0.000231
496 -0.000286
497 -0.000321
498 -0.000340
499 -0.000363
500 -0.000348
501 -0.000314
502 -0.000346
503 -0.000357
504 -0.000407
505 -0.000444
506 -0.000454
507 -0.000446
508 -0.000468
509 -0.000498
510 -0.000517
511 -0.000543
512 -0.000540
513 -0.000515
514 -0.000453
515 -0.000344
516 -0.000288
517 -0.000288
518 -0.000277
519 -0.000284
520 -0.000281
521 -0.000244
522 -0.000168
523 -0.000091
524 -0.000023
525 0.000055
526 0.000065
527 0.000070
528 0.000099
529 0.000089
530 0.000122
531 0.000178
532 0.000240
533 0.000270
534 0.000260
535 0.000243
536 0.000321
537 0.000386
538 0.000412
539 0.000444
540 0.000472
541 0.000491
542 0.000470
543 0.000407
544 0.000358
545 0.000296
546 0.000267
547 0.000213
548 0.000166
549 0.000156
550 0.000158
551 0.000152
552 0.000163
553 0.000191
554 0.000228
555 0.000243
556 0.000255
557 0.000254
558 0.000283
559 0.000361
560 0.000411
561 0.000444
562 0.000426
563 0.000361
564 0.000298
565 0.000234
566 0.000176
567 0.000129
568 0.000122
569 0.000118
570 0.000091
571 0.000070
572 0.000098
573 0.000085
574 0.000038
575 0.000008
576 -0.000049
577 -0.000061
578 -0.000109
579 -0.000181
580 -0.000294
581 -0.000461
582 -0.000519
583 -0.000554
584 -0.000568
585 -0.000565
586 -0.000537
587 -0.000535
588 -0.000492
589 -0.000449
590 -0.000395
591 -0.000307
592 -0.000274
593 -0.000284
594 -0.000228
595 -0.000219
596 -0.000208
597 -0.000175
598 -0.000130
599 -0.000050
600 -0.000009
601 -0.000004
602 -0.000045
603 -0.000088
604 -0.000123
605 -0.000123
606 -0.000147
607 -0.000130
608 -0.000110
609 -0.000092
610 -0.000096
611 -0.000101
612 -0.000069
613 -0.000099
614 -0.000157
615 -0.000229
616 -0.000260
617 -0.000251
618 -0.000269
619 -0.000276
620 -0.000294
621 -0.000320
622 -0.000346
623 -0.000378
624 -0.000399
625 -0.000410
626 -0.000410
627 -0.000441
628 -0.000456
629 -0.000445
630 -0.000456
631 -0.000451
632 -0.000481
633 -0.000476
634 -0.000501
635 -0.000542
636 -0.000614
637 -0.000653
638 -0.000661
639 -0.000635
640 -0.000621
641 -0.000609
642 -0.000630
643 -0.000610
644 -0.000579
645 -0.000569
646 -0.000553
647 -0.000556
648 -0.000559
649 -0.000532
650 -0.000532
651 -0.000549
652 -0.000556
653 -0.000513
654 -0.000546
655 -0.000532
656 -0.000523
657 -0.000506
658 -0.000491
659 -0.000472
660 -0.000439
661 -0.000392
662 -0.000326
663 -0.000274
664 -0.000264
665 -0.000220
666 -0.000231
667 -0.000213
668 -0.000155
669 -0.000140
670 -0.000122
671 -0.000115
672 -0.000106
673 -0.000080
674 -0.000046
675 -0.000036
676 -0.000032
677 -0.000058
678 -0.000110
679 -0.000162
680 -0.000182
681 -0.000135
682 -0.000106
683 -0.000086
684 -0.000098
685 -0.000139
686 -0.000186
687 -0.000205
688 -0.000176
689 -0.000186
690 -0.000194
691 -0.000205
692 -0.000261
693 -0.000299
694 -0.000329
695 -0.000352
696 -0.000336
697 -0.000294
698 -0.000276
699 -0.000255
700 -0.000271
701 -0.000213
702 -0.000201
703 -0.000157
704 -0.000182
705 -0.000196
706 -0.000200
707 -0.000167
708 -0.000139
709 -0.000048
710 -0.000027
711 -0.000016
712 -0.000021
713 0.000037
714 0.000074
715 0.000135
716 0.000202
717 0.000248
718 0.000290
719 0.000306
720 0.000320
721 0.000347
722 0.000407
723 0.000425
724 0.000457
725 0.000490
726 0.000512
727 0.000510
728 0.000524
729 0.000557
730 0.000565
731 0.000556
732 0.000599
733 0.000607
734 0.000602
735 0.000594
736 0.000580
737 0.000565
738 0.000558
739 0.000500
740 0.000455
741 0.000403
742 0.000382
743 0.000378
744 0.000347
745 0.000317
746 0.000264
747 0.000223
748 0.000189
749 0.000205
750 0.000202
751 0.000168
752 0.000138
753 0.000117
754 0.000071
755 0.000016
756 -0.000012
757 -0.000017
758 -0.000013
759 -0.000035
760 -0.000081
761 -0.000148
762 -0.000201
763 -0.000238
764 -0.000257
765 -0.000251
766 -0.000246
767 -0.000291
768 -0.000303
769 -0.000305
770 -0.000334
771 -0.000358
772 -0.000398
773 -0.000422
774 -0.000428
775 -0.000436
776 -0.000408
777 -0.000395
778 -0.000384
779 -0.000371
780 -0.000368
781 -0.000376
782 -0.000347
783 -0.000315
784 -0.000271
785 -0.000231
786 -0.000179
787 -0.000176
788 -0.000156
789 -0.000147
790 -0.000171
791 -0.000192
792 -0.000213
793 -0.000258
794 -0.000318
795 -0.000326
796 -0.000348
797 -0.000339
798 -0.000330
799 -0.000321
800 -0.000339
801 -0.000341
802 -0.000359
803 -0.000399
804 -0.000436
805 -0.000452
806 -0.000461
807 -0.000482
808 -0.000477
809 -0.000478
