# i correlation
1 0.005602
2 0.004965
3 0.004446
4 0.003990
5 0.003636
6 0.003308
7 0.003116
8 0.002859
9 0.002669
10 0.002507
11 0.002392
12 0.002293
13 0.002139
14 0.001976
15 0.001907
16 0.001773
17 0.001758
18 0.001776
19 0.001768
20 0.001757
21 0.001778
22 0.001750
23 0.001707
24 0.001681
25 0.001649
26 0.001597
27 0.001624
28 0.001550
29 0.001448
30 0.001380
31 0.001274
32 0.001236
33 0.001182
34 0.001076
35 0.001027
36 0.001050
37 0.001134
38 0.001191
39 0.001182
40 0.001176
41 0.001111
42 0.001134
43 0.001119
44 0.001072
45 0.001020
46 0.000987
47 0.001046
48 0.001113
49 0.001170
50 0.001201
51 0.001206
52 0.001194
53 0.001225
54 0.001228
55 0.001195
56 0.001146
57 0.001106
58 0.001116
59 0.001070
60 0.001095
61 0.001095
62 0.001063
63 0.000977
64 0.000928
65 0.000932
66 0.000917
67 0.000903
68 0.000886
69 0.000856
70 0.000897
71 0.000865
72 0.000802
73 0.000735
74 0.000752
75 0.000752
76 0.000773
77 0.000807
78 0.000788
79 0.000842
80 0.000942
81 0.000999
82 0.001023
83 0.001046
84 0.000943
85 0.000832
86 0.000818
87 0.000795
88 0.000836
89 0.000880
90 0.000919
91 0.000960
92 0.000924
93 0.000951
94 0.000928
95 0.000939
96 0.000933
97 0.000958
98 0.001047
99 0.001051
100 0.001058
101 0.001013
102 0.000984
103 0.000930
104 0.001028
105 0.001080
106 0.001154
107 0.001244
108 0.001323
109 0.001363
110 0.001342
111 0.001318
112 0.001338
113 0.001384
114 0.001334
115 0.001297
116 0.001297
117 0.001340
118 0.001389
119 0.001483
120 0.001510
121 0.001451
122 0.001392
123 0.001369
124 0.001327
125 0.001275
126 0.001216
127 0.001221
128 0.001276
129 0.001322
130 0.001339
131 0.001361
132 0.001328
133 0.001196
134 0.001065
135 0.000982
136 0.000951
137 0.000902
138 0.000843
139 0.000805
140 0.000834
141 0.000854
142 0.000841
143 0.000797
144 0.000733
145 0.000592
146 0.000536
147 0.000483
148 0.000442
149 0.000456
150 0.000502
151 0.000552
152 0.000587
153 0.000600
154 0.000567
155 0.000531
156 0.000565
157 0.000580
158 0.000519
159 0.000524
160 0.000583
161 0.000689
162 0.000763
163 0.000824
164 0.000813
165 0.000807
166 0.000765
167 0.000692
168 0.000641
169 0.000569
170 0.000566
171 0.000546
172 0.000605
173 0.000588
174 0.000581
175 0.000546
176 0.000478
177 0.000429
178 0.000414
179 0.000452
180 0.000473
181 0.000537
182 0.000489
183 0.000536
184 0.000583
185 0.000640
186 0.000687
187 0.000650
188 0.000661
189 0.000732
190 0.000818
191 0.000848
192 0.000847
193 0.000864
194 0.000821
195 0.000843
196 0.000822
197 0.000806
198 0.000860
199 0.000889
200 0.000876
201 0.000799
202 0.000712
203 0.000652
204 0.000642
205 0.000592
206 0.000597
207 0.000562
208 0.000574
209 0.000564
210 0.000594
211 0.000583
212 0.000588
213 0.000634
214 0.000654
215 0.000668
216 0.000656
217 0.000812
218 0.000896
219 0.000977
220 0.000950
221 0.000908
222 0.000888
223 0.000878
224 0.000818
225 0.000763
226 0.000714
227 0.000678
228 0.000567
229 0.000439
230 0.000422
231 0.000399
232 0.000399
233 0.000392
234 0.000341
235 0.000211
236 0.000180
237 0.000194
238 0.000177
239 0.000149
240 0.000155
241 0.000113
242 0.000093
243 0.000153
244 0.000286
245 0.000422
246 0.000505
247 0.000557
248 0.000616
249 0.000687
250 0.000724
251 0.000776
252 0.000768
253 0.000744
254 0.000709
255 0.000730
256 0.000779
257 0.000780
258 0.000766
259 0.000782
260 0.000835
261 0.000836
262 0.000834
263 0.000792
264 0.000759
265 0.000750
266 0.000744
267 0.000766
268 0.000786
269 0.000896
270 0.001015
271 0.001144
272 0.001247
273 0.001301
274 0.001353
275 0.001266
276 0.001152
277 0.001027
278 0.000952
279 0.000920
280 0.000940
281 0.000960
282 0.000920
283 0.000940
284 0.000924
285 0.000889
286 0.000846
287 0.000874
288 0.000847
289 0.000829
290 0.000780
291 0.000728
292 0.000695
293 0.000730
294 0.000818
295 0.000845
296 0.000836
297 0.000905
298 0.000965
299 0.001008
300 0.000996
301 0.000985
302 0.000975
303 0.000999
304 0.001032
305 0.001074
306 0.001087
307 0.001065
308 0.001012
309 0.000938
310 0.000909
311 0.000815
312 0.000755
313 0.000799
314 0.000760
315 0.000744
316 0.000744
317 0.000728
318 0.000688
319 0.000599
320 0.000527
321 0.000502
322 0.000480
323 0.000505
324 0.000574
325 0.000691
326 0.000767
327 0.000878
328 0.000911
329 0.000929
330 0.000912
331 0.000889
332 0.000919
333 0.000827
334 0.000796
335 0.000723
336 0.000696
337 0.000691
338 0.000684
339 0.000639
340 0.000558
341 0.000470
342 0.000385
343 0.000330
344 0.000296
345 0.000310
346 0.000306
347 0.000297
348 0.000272
349 0.000290
350 0.000282
351 0.000266
352 0.000222
353 0.000181
354 0.000152
355 0.000169
356 0.000141
357 0.000075
358 -0.000038
359 -0.000095
360 -0.000106
361 -0.000103
362 -0.000137
363 -0.000163
364 -0.000161
365 -0.000210
366 -0.000283
367 -0.000279
368 -0.000313
369 -0.000276
370 -0.000281
371 -0.000262
372 -0.000235
373 -0.000207
374 -0.000116
375 -0.000083
376 -0.000019
377 0.000038
378 0.000098
379 0.000125
380 0.000217
381 0.000261
382 0.000302
383 0.000298
384 0.000309
385 0.000386
386 0.000441
387 0.000635
388 0.000705
389 0.000802
390 0.000826
391 0.000792
392 0.000841
393 0.000875
394 0.000910
395 0.000905
396 0.000914
397 0.000931
398 0.000905
399 0.000905
400 0.000834
401 0.000764
402 0.000747
403 0.000765
404 0.000733
405 0.000708
406 0.000689
407 0.000646
408 0.000613
409 0.000605
410 0.000614
411 0.000632
412 0.000673
413 0.000725
414 0.000812
415 0.000889
416 0.000916
417 0.000959
418 0.000969
419 0.000942
420 0.000907
421 0.000849
422 0.000842
423 0.000835
424 0.000774
425 0.000728
426 0.000671
427 0.000648
428 0.000562
429 0.000510
430 0.000495
431 0.000460
432 0.000456
433 0.000352
434 0.000304
435 0.000309
436 0.000361
437 0.000434
438 0.000411
439 0.000363
440 0.000321
441 0.000326
442 0.000281
443 0.000287
444 0.000333
445 0.000360
446 0.000372
447 0.000383
448 0.000401
449 0.000365
450 0.000292
451 0.000239
452 0.000181
453 0.000079
454 0.000044
455 0.000074
456 0.000091
457 0.000187
458 0.000204
459 0.000288
460 0.000316
461 0.000288
462 0.000204
463 0.000139
464 0.000147
465 0.000107
466 0.000077
467 0.000061
468 0.000078
469 0.000120
470 0.000165
471 0.000188
472 0.000156
473 0.000154
474 0.000144
475 0.000130
476 0.000182
477 0.000196
478 0.000301
479 0.000406
480 0.000492
481 0.000532
482 0.000498
483 0.000450
484 0.000450
485 0.000431
486 0.000449
487 0.000464
488 0.000506
489 0.000519
490 0.000495
491 0.000515
492 0.000506
493 0.000522
494 0.000504
495 0.000447
496 0.000491
497 0.000554
498 0.000594
499 0.000655
500 0.000638
501 0.000612
502 0.000612
503 0.000617
504 0.000640
505 0.000678
506 0.000729
507 0.000746
508 0.000782
509 0.000778
510 0.000730
511 0.000701
512 0.000641
513 0.000638
514 0.000586
515 0.000552
516 0.000577
517 0.000641
518 0.000712
519 0.000756
520 0.000781
521 0.000781
522 0.000748
523 0.000776
524 0.000819
525 0.000871
526 0.000951
527 0.001003
528 0.001044
529 0.001082
530 0.001094
531 0.001101
532 0.001057
533 0.000982
534 0.000965
535 0.000935
536 0.000901
537 0.000844
538 0.000783
539 0.000736
540 0.000705
541 0.000683
542 0.000661
543 0.000658
544 0.000695
545 0.000734
546 0.000786
547 0.000813
548 0.000825
549 0.000862
550 0.000905
551 0.000903
552 0.000882
553 0.000876
554 0.000874
555 0.000906
556 0.000931
557 0.000923
558 0.000878
559 0.000847
560 0.000737
561 0.000669
562 0.000611
563 0.000527
564 0.000479
565 0.000397
566 0.000322
567 0.000263
568 0.000253
569 0.000248
570 0.000254
571 0.000276
572 0.000292
573 0.000309
574 0.000310
575 0.000277
576 0.000311
577 0.000416
578 0.000524
579 0.000633
580 0.000699
581 0.000691
582 0.000699
583 0.000717
584 0.000720
585 0.000662
586 0.000660
587 0.000677
588 0.000692
589 0.000686
590 0.000628
591 0.000579
592 0.000523
593 0.000480
594 0.000479
595 0.000470
596 0.000502
597 0.000561
598 0.000579
599 0.000613
600 0.000665
601 0.000718
602 0.000692
603 0.000669
604 0.000713
605 0.000715
606 0.000723
607 0.000719
608 0.000751
609 0.000770
610 0.000763
611 0.000764
612 0.000750
613 0.000700
614 0.000610
615 0.000562
616 0.000519
617 0.000462
618 0.000415
619 0.000365
620 0.000367
621 0.000396
622 0.000441
623 0.000466
624 0.000466
625 0.000437
626 0.000398
627 0.000386
628 0.000314
629 0.000252
630 0.000243
631 0.000245
632 0.000238
633 0.000254
634 0.000266
635 0.000267
636 0.000295
637 0.000298
638 0.000262
639 0.000247
640 0.000244
641 0.000214
642 0.000222
643 0.000209
644 0.000187
645 0.000226
646 0.000242
647 0.000236
648 0.000251
649 0.000275
650 0.000302
651 0.000259
652 0.000249
653 0.000236
654 0.000269
655 0.000280
656 0.000218
657 0.000207
658 0.000198
659 0.000237
660 0.000276
661 0.000338
662 0.000363
663 0.000364
664 0.000350
665 0.000318
666 0.000303
667 0.000289
668 0.000239
669 0.000259
670 0.000284
671 0.000243
672 0.000194
673 0.000150
674 0.000160
675 0.000115
676 0.000094
677 0.000122
678 0.000124
679 0.000113
680 0.000081
681 0.000041
682 0.000019
683 -0.000043
684 -0.000055
685 -0.000084
686 -0.000083
687 -0.000066
688 -0.000075
689 -0.000075
690 -0.000053
691 -0.000010
692 0.000055
693 0.000095
694 0.000085
695 0.000059
696 0.000019
697 0.000016
698 -0.000009
699 -0.000076
700 -0.000133
701 -0.000146
702 -0.000171
703 -0.000201
704 -0.000213
705 -0.000170
706 -0.000151
707 -0.000138
708 -0.000118
709 -0.000102
710 -0.000068
711 -0.000068
712 -0.000063
713 -0.000074
714 -0.000063
715 -0.000070
716 -0.000035
717 0.000024
718 0.000044
719 0.000102
720 0.000129
721 0.000124
722 0.000099
723 0.000057
724 0.000068
725 0.000041
726 0.000010
727 -0.000009
728 0.000023
729 0.000070
730 0.000097
731 0.000140
732 0.000157
733 0.000132
734 0.000088
735 0.000067
736 0.000040
737 -0.000012
738 -0.000076
739 -0.000148
740 -0.000192
741 -0.000202
742 -0.000191
743 -0.000153
744 -0.000090
745 -0.000026
746 -0.000018
747 -0.000043
748 -0.000055
749 -0.000045
750 -0.000039
751 -0.000051
752 -0.000059
753 -0.000075
754 -0.000073
755 -0.000099
756 -0.000112
757 -0.000134
758 -0.000156
759 -0.000171
760 -0.000205
761 -0.000236
762 -0.000247
763 -0.000261
764 -0.000278
765 -0.000290
766 -0.000288
767 -0.000252
768 -0.000196
769 -0.000146
770 -0.000093
771 -0.000065
772 -0.000027
773 0.000029
774 0.000085
775 0.000146
776 0.000173
777 0.000187
778 0.000174
779 0.000139
780 0.000069
781 0.000017
782 -0.000011
783 -0.000040
784 -0.000065
785 -0.000081
786 -0.000038
787 -0.000024
788 -0.000033
789 -0.000011
790 0.000010
791 0.000020
792 0.000030
793 0.000055
794 0.000061
795 0.000047
796 0.000051
797 0.000056
798 0.000045
799 0.000039
800 0.000036
801 0.000036
802 0.000040
803 0.000054
804 0.000056
805 0.000072
806 0.000117
807 0.000148
808 0.000134
809 0.000112
