# i correlation
1 0.004585
2 0.003919
3 0.003312
4 0.002791
5 0.002372
6 0.002097
7 0.001865
8 0.001681
9 0.001565
10 0.001497
11 0.001338
12 0.001267
13 0.001160
14 0.001043
15 0.000939
16 0.000829
17 0.000731
18 0.000709
19 0.000681
20 0.000698
21 0.000666
22 0.000661
23 0.000700
24 0.000643
25 0.000569
26 0.000588
27 0.000652
28 0.000669
29 0.000668
30 0.000689
31 0.000682
32 0.000686
33 0.000682
34 0.000719
35 0.000706
36 0.000791
37 0.000924
38 0.000964
39 0.000999
40 0.001052
41 0.001080
42 0.001091
43 0.001110
44 0.001145
45 0.001111
46 0.001059
47 0.000935
48 0.000842
49 0.000763
50 0.000781
51 0.000787
52 0.000765
53 0.000709
54 0.000650
55 0.000558
56 0.000455
57 0.000388
58 0.000287
59 0.000243
60 0.000181
61 0.000157
62 0.000165
63 0.000233
64 0.000283
65 0.000367
66 0.000382
67 0.000452
68 0.000493
69 0.000557
70 0.000605
71 0.000600
72 0.000631
73 0.000529
74 0.000458
75 0.000389
76 0.000356
77 0.000300
78 0.000304
79 0.000322
80 0.000365
81 0.000368
82 0.000360
83 0.000419
84 0.000441
85 0.000540
86 0.000593
87 0.000631
88 0.000698
89 0.000696
90 0.000639
91 0.000671
92 0.000656
93 0.000799
94 0.000934
95 0.001096
96 0.001228
97 0.001278
98 0.001197
99 0.001104
100 0.000831
101 0.000603
102 0.000373
103 0.000276
104 0.000136
105 0.000122
106 0.000099
107 0.000133
108 0.000165
109 0.000266
110 0.000245
111 0.000253
112 0.000312
113 0.000415
114 0.000395
115 0.000425
116 0.000474
117 0.000547
118 0.000573
119 0.000563
120 0.000530
121 0.000503
122 0.000440
123 0.000415
124 0.000402
125 0.000350
126 0.000300
127 0.000289
128 0.000252
129 0.000164
130 0.000151
131 0.000159
132 0.000112
133 0.000198
134 0.000208
135 0.000249
136 0.000394
137 0.000550
138 0.000597
139 0.000669
140 0.000638
141 0.000563
142 0.000543
143 0.000487
144 0.000305
145 0.000168
146 0.000030
147 -0.000019
148 0.000034
149 0.000094
150 0.000166
151 0.000199
152 0.000192
153 0.000124
154 0.000055
155 -0.000026
156 -0.000118
157 -0.000138
158 -0.000138
159 -0.000090
160 -0.000074
161 -0.000052
162 -0.000045
163 0.000003
164 0.000029
165 0.000086
166 0.000091
167 0.000131
168 0.000246
169 0.000300
170 0.000307
171 0.000251
172 0.000223
173 0.000111
174 0.000125
175 0.000158
176 0.000166
177 0.000198
178 0.000184
179 0.000195
180 0.000169
181 0.000181
182 0.000122
183 0.000010
184 -0.000036
185 -0.000061
186 -0.000078
187 -0.000089
188 0.000003
189 0.000004
190 0.000087
191 0.000140
192 0.000239
193 0.000363
194 0.000352
195 0.000315
196 0.000221
197 0.000085
198 -0.000015
199 -0.000101
200 -0.000126
201 -0.000186
202 -0.000140
203 -0.000186
204 -0.000125
205 -0.000074
206 0.000019
207 0.000030
208 0.000047
209 0.000079
210 0.000033
211 0.000045
212 0.000044
213 0.000025
214 0.000011
215 -0.000037
216 -0.000069
217 -0.000112
218 -0.000169
219 -0.000225
220 -0.000205
221 -0.000147
222 -0.000103
223 -0.000141
224 -0.000068
225 -0.000057
226 -0.000037
227 -0.000017
228 -0.000034
229 0.000001
230 0.000063
231 0.000076
232 0.000129
233 0.000171
234 0.000183
235 0.000237
236 0.000374
237 0.000458
238 0.000449
239 0.000463
240 0.000453
241 0.000419
242 0.000338
243 0.000299
244 0.000247
245 0.000266
246 0.000320
247 0.000331
248 0.000348
249 0.000290
250 0.000194
251 0.000158
252 0.000042
253 -0.000039
254 -0.000129
255 -0.000124
256 -0.000114
257 -0.000130
258 -0.000113
259 -0.000193
260 -0.000209
261 -0.000229
262 -0.000259
263 -0.000189
264 -0.000053
265 -0.000032
266 -0.000005
267 0.000024
268 0.000071
269 0.000188
270 0.000294
271 0.000355
272 0.000359
273 0.000454
274 0.000518
275 0.000567
276 0.000660
277 0.000628
278 0.000576
279 0.000511
280 0.000429
281 0.000425
282 0.000396
283 0.000397
284 0.000413
285 0.000469
286 0.000478
287 0.000565
288 0.000575
289 0.000580
290 0.000586
291 0.000602
292 0.000610
293 0.000591
294 0.000510
295 0.000420
296 0.000317
297 0.000282
298 0.000204
299 0.000132
300 0.000088
301 0.000056
302 0.000058
303 0.000107
304 0.000099
305 0.000102
306 0.000106
307 0.000124
308 0.000162
309 0.000184
310 0.000252
311 0.000254
312 0.000328
313 0.000374
314 0.000393
315 0.000404
316 0.000396
317 0.000454
318 0.000466
319 0.000463
320 0.000491
321 0.000484
322 0.000380
323 0.000370
324 0.000318
325 0.000213
326 0.000164
327 0.000141
328 0.000063
329 0.000047
330 0.000076
331 0.000121
332 0.000168
333 0.000273
334 0.000318
335 0.000343
336 0.000398
337 0.000382
338 0.000352
339 0.000309
340 0.000245
341 0.000228
342 0.000267
343 0.000336
344 0.000383
345 0.000403
346 0.000389
347 0.000333
348 0.000253
349 0.000190
350 0.000146
351 0.000046
352 -0.000019
353 -0.000033
354 0.000004
355 -0.000021
356 -0.000027
357 -0.000023
358 0.000007
359 -0.000026
360 0.000035
361 0.000011
362 -0.000038
363 -0.000010
364 -0.000007
365 0.000047
366 0.000049
367 0.000118
368 0.000082
369 0.000094
370 0.000092
371 0.000034
372 0.000003
373 -0.000014
374 0.000014
375 -0.000009
376 -0.000013
377 -0.000056
378 -0.000112
379 -0.000170
380 -0.000180
381 -0.000118
382 -0.000023
383 0.000095
384 0.000221
385 0.000309
386 0.000430
387 0.000489
388 0.000558
389 0.000555
390 0.000519
391 0.000365
392 0.000245
393 0.000115
394 0.000044
395 0.000014
396 0.000016
397 0.000053
398 0.000080
399 0.000097
400 0.000128
401 0.000194
402 0.000259
403 0.000293
404 0.000334
405 0.000344
406 0.000421
407 0.000493
408 0.000568
409 0.000600
410 0.000595
411 0.000630
412 0.000658
413 0.000666
414 0.000618
415 0.000617
416 0.000615
417 0.000613
418 0.000592
419 0.000590
420 0.000589
421 0.000554
422 0.000512
423 0.000478
424 0.000433
425 0.000372
426 0.000393
427 0.000406
428 0.000376
429 0.000383
430 0.000465
431 0.000452
432 0.000492
433 0.000528
434 0.000535
435 0.000549
436 0.000585
437 0.000567
438 0.000556
439 0.000612
440 0.000623
441 0.000689
442 0.000696
443 0.000684
444 0.000608
445 0.000572
446 0.000597
447 0.000544
448 0.000553
449 0.000568
450 0.000532
451 0.000483
452 0.000413
453 0.000422
454 0.000410
455 0.000370
456 0.000408
457 0.000479
458 0.000477
459 0.000423
460 0.000363
461 0.000304
462 0.000286
463 0.000262
464 0.000254
465 0.000173
466 0.000141
467 0.000097
468 -0.000020
469 0.000003
470 -0.000017
471 -0.000059
472 -0.000026
473 -0.000001
474 -0.000050
475 -0.000068
476 -0.000054
477 -0.000015
478 -0.000019
479 -0.000027
480 0.000049
481 0.000112
482 0.000212
483 0.000306
484 0.000411
485 0.000518
486 0.000553
487 0.000555
488 0.000439
489 0.000296
490 0.000132
491 -0.000002
492 -0.000113
493 -0.000129
494 -0.000088
495 -0.000016
496 0.000074
497 0.000163
498 0.000171
499 0.000146
500 0.000149
501 0.000147
502 0.000178
503 0.000198
504 0.000206
505 0.000192
506 0.000176
507 0.000159
508 0.000130
509 0.000102
510 0.000097
511 0.000110
512 0.000139
513 0.000163
514 0.000190
515 0.000168
516 0.000117
517 0.000107
518 0.000070
519 0.000067
520 0.000054
521 0.000092
522 0.000151
523 0.000190
524 0.000269
525 0.000331
526 0.000410
527 0.000420
528 0.000441
529 0.000464
530 0.000420
531 0.000351
532 0.000271
533 0.000202
534 0.000229
535 0.000249
536 0.000260
537 0.000266
538 0.000233
539 0.000231
540 0.000207
541 0.000159
542 0.000092
543 -0.000006
544 -0.000049
545 -0.000062
546 -0.000042
547 -0.000021
548 0.000013
549 0.000056
550 0.000088
551 0.000088
552 0.000103
553 0.000076
554 0.000088
555 0.000131
556 0.000164
557 0.000186
558 0.000246
559 0.000265
560 0.000306
561 0.000276
562 0.000278
563 0.000292
564 0.000267
565 0.000230
566 0.000261
567 0.000294
568 0.000287
569 0.000322
570 0.000341
571 0.000309
572 0.000270
573 0.000224
574 0.000202
575 0.000184
576 0.000198
577 0.000179
578 0.000216
579 0.000246
580 0.000276
581 0.000343
582 0.000395
583 0.000379
584 0.000318
585 0.000262
586 0.000132
587 0.000000
588 -0.000118
589 -0.000176
590 -0.000190
591 -0.000168
592 -0.000165
593 -0.000120
594 -0.000103
595 -0.000115
596 -0.000123
597 -0.000157
598 -0.000177
599 -0.000181
600 -0.000147
601 -0.000109
602 -0.000157
603 -0.000186
604 -0.000214
605 -0.000223
606 -0.000211
607 -0.000178
608 -0.000130
609 -0.000124
610 -0.000129
611 -0.000125
612 -0.000152
613 -0.000145
614 -0.000109
615 -0.000082
616 -0.000071
617 -0.000029
618 0.000023
619 0.000037
620 0.000085
621 0.000090
622 0.000107
623 0.000130
624 0.000155
625 0.000154
626 0.000115
627 0.000070
628 0.000006
629 -0.000073
630 -0.000126
631 -0.000187
632 -0.000245
633 -0.000299
634 -0.000281
635 -0.000286
636 -0.000291
637 -0.000273
638 -0.000238
639 -0.000213
640 -0.000216
641 -0.000216
642 -0.000287
643 -0.000319
644 -0.000320
645 -0.000301
646 -0.000249
647 -0.000230
648 -0.000231
649 -0.000270
650 -0.000268
651 -0.000244
652 -0.000190
653 -0.000122
654 -0.000079
655 -0.000037
656 -0.000032
657 -0.000001
658 -0.000019
659 -0.000035
660 -0.000103
661 -0.000155
662 -0.000191
663 -0.000190
664 -0.000190
665 -0.000174
666 -0.000155
667 -0.000164
668 -0.000191
669 -0.000261
670 -0.000319
671 -0.000338
672 -0.000327
673 -0.000297
674 -0.000315
675 -0.000279
676 -0.000237
677 -0.000166
678 -0.000094
679 -0.000033
680 -0.000033
681 -0.000076
682 -0.000145
683 -0.000206
684 -0.000220
685 -0.000221
686 -0.000185
687 -0.000143
688 -0.000107
689 -0.000010
690 0.000046
691 0.000084
692 0.000085
693 0.000082
694 0.000108
695 0.000093
696 0.000097
697 0.000107
698 0.000136
699 0.000177
700 0.000193
701 0.000164
702 0.000159
703 0.000141
704 0.000123
705 0.000145
706 0.000152
707 0.000098
708 0.000042
709 0.000030
710 -0.000005
711 -0.000045
712 -0.000066
713 -0.000094
714 -0.000109
715 -0.000113
716 -0.000116
717 -0.000088
718 -0.000054
719 -0.000031
720 -0.000033
721 -0.000018
722 0.000009
723 0.000044
724 0.000048
725 0.000044
726 0.000019
727 0.000009
728 -0.000003
729 -0.000029
730 -0.000052
731 -0.000040
732 0.000016
733 0.000099
734 0.000141
735 0.000184
736 0.000196
737 0.000209
738 0.000219
739 0.000213
740 0.000215
741 0.000228
742 0.000244
743 0.000292
744 0.000317
745 0.000306
746 0.000271
747 0.000254
748 0.000220
749 0.000168
750 0.000170
751 0.000187
752 0.000190
753 0.000192
754 0.000198
755 0.000199
756 0.000227
757 0.000235
758 0.000237
759 0.000260
760 0.000280
761 0.000293
762 0.000264
763 0.000226
764 0.000203
765 0.000174
766 0.000150
767 0.000086
768 0.000036
769 0.000032
770 0.000077
771 0.000098
772 0.000113
773 0.000133
774 0.000159
775 0.000180
776 0.000181
777 0.000180
778 0.000154
779 0.000114
780 0.000084
781 0.000034
782 -0.000010
783 -0.000034
784 -0.000040
785 -0.000018
786 0.000003
787 0.000036
788 0.000061
789 0.000100
790 0.000119
791 0.000125
792 0.000124
793 0.000158
794 0.000181
795 0.000190
796 0.000184
797 0.000192
798 0.000186
799 0.000182
800 0.000184
801 0.000175
802 0.000182
803 0.000209
804 0.000204
805 0.000201
806 0.000222
807 0.000243
808 0.000242
809 0.000253
