# i correlation
1 0.005934
2 0.005242
3 0.004684
4 0.004312
5 0.003970
6 0.003599
7 0.003342
8 0.003099
9 0.002809
10 0.002563
11 0.002393
12 0.002340
13 0.002258
14 0.002160
15 0.002035
16 0.001882
17 0.001772
18 0.001602
19 0.001421
20 0.001128
21 0.001003
22 0.000965
23 0.000901
24 0.000879
25 0.000932
26 0.000955
27 0.000986
28 0.000924
29 0.000867
30 0.000848
31 0.000863
32 0.000756
33 0.000616
34 0.000583
35 0.000490
36 0.000412
37 0.000353
38 0.000384
39 0.000509
40 0.000642
41 0.000778
42 0.000831
43 0.000921
44 0.000969
45 0.000980
46 0.001014
47 0.000997
48 0.000941
49 0.000903
50 0.000822
51 0.000702
52 0.000621
53 0.000555
54 0.000513
55 0.000501
56 0.000574
57 0.000624
58 0.000698
59 0.000670
60 0.000603
61 0.000571
62 0.000548
63 0.000474
64 0.000429
65 0.000439
66 0.000523
67 0.000475
68 0.000493
69 0.000533
70 0.000596
71 0.000605
72 0.000673
73 0.000797
74 0.000992
75 0.001177
76 0.001288
77 0.001334
78 0.001299
79 0.001323
80 0.001395
81 0.001470
82 0.001536
83 0.001623
84 0.001683
85 0.001766
86 0.001780
87 0.001817
88 0.001869
89 0.001963
90 0.002028
91 0.002035
92 0.002047
93 0.002115
94 0.002062
95 0.002019
96 0.001969
97 0.001918
98 0.001887
99 0.001783
100 0.001730
101 0.001650
102 0.001614
103 0.001555
104 0.001513
105 0.001472
106 0.001388
107 0.001387
108 0.001354
109 0.001328
110 0.001300
111 0.001291
112 0.001308
113 0.001280
114 0.001282
115 0.001303
116 0.001299
117 0.001285
118 0.001179
119 0.001140
120 0.001140
121 0.001116
122 0.001106
123 0.001094
124 0.001114
125 0.001171
126 0.001282
127 0.001367
128 0.001404
129 0.001418
130 0.001456
131 0.001424
132 0.001386
133 0.001416
134 0.001423
135 0.001374
136 0.001282
137 0.001160
138 0.001097
139 0.001037
140 0.000992
141 0.001007
142 0.001014
143 0.001056
144 0.001142
145 0.001186
146 0.001113
147 0.000994
148 0.000844
149 0.000755
150 0.000731
151 0.000754
152 0.000704
153 0.000598
154 0.000490
155 0.000466
156 0.000473
157 0.000517
158 0.000511
159 0.000533
160 0.000550
161 0.000576
162 0.000550
163 0.000490
164 0.000400
165 0.000330
166 0.000243
167 0.000206
168 0.000212
169 0.000251
170 0.000355
171 0.000446
172 0.000483
173 0.000479
174 0.000518
175 0.000579
176 0.000628
177 0.000635
178 0.000670
179 0.000657
180 0.000569
181 0.000478
182 0.000477
183 0.000514
184 0.000557
185 0.000660
186 0.000737
187 0.000845
188 0.000922
189 0.001009
190 0.001062
191 0.001103
192 0.001112
193 0.001075
194 0.001014
195 0.000869
196 0.000833
197 0.000808
198 0.000777
199 0.000761
200 0.000856
201 0.001007
202 0.001118
203 0.001158
204 0.001196
205 0.001250
206 0.001335
207 0.001355
208 0.001319
209 0.001306
210 0.001346
211 0.001379
212 0.001399
213 0.001438
214 0.001396
215 0.001389
216 0.001393
217 0.001430
218 0.001487
219 0.001588
220 0.001638
221 0.001655
222 0.001574
223 0.001531
224 0.001438
225 0.001388
226 0.001358
227 0.001339
228 0.001327
229 0.001283
230 0.001163
231 0.001079
232 0.001000
233 0.000970
234 0.001008
235 0.000984
236 0.001048
237 0.001152
238 0.001180
239 0.001146
240 0.001147
241 0.001140
242 0.001058
243 0.000986
244 0.000993
245 0.000925
246 0.000910
247 0.000882
248 0.000924
249 0.000943
250 0.000969
251 0.000971
252 0.000979
253 0.000917
254 0.000835
255 0.000801
256 0.000729
257 0.000651
258 0.000585
259 0.000595
260 0.000608
261 0.000608
262 0.000608
263 0.000641
264 0.000640
265 0.000682
266 0.000686
267 0.000686
268 0.000680
269 0.000614
270 0.000537
271 0.000516
272 0.000529
273 0.000495
274 0.000424
275 0.000363
276 0.000306
277 0.000325
278 0.000368
279 0.000403
280 0.000427
281 0.000472
282 0.000525
283 0.000571
284 0.000598
285 0.000630
286 0.000641
287 0.000640
288 0.000552
289 0.000495
290 0.000487
291 0.000541
292 0.000562
293 0.000553
294 0.000511
295 0.000545
296 0.000563
297 0.000566
298 0.000546
299 0.000500
300 0.000477
301 0.000467
302 0.000507
303 0.000551
304 0.000581
305 0.000655
306 0.000769
307 0.000864
308 0.000919
309 0.000970
310 0.001017
311 0.001051
312 0.001101
313 0.001152
314 0.001195
315 0.001157
316 0.001123
317 0.001121
318 0.001100
319 0.001096
320 0.001108
321 0.001148
322 0.001109
323 0.001122
324 0.001111
325 0.001090
326 0.001035
327 0.001014
328 0.001000
329 0.000978
330 0.000932
331 0.000898
332 0.000905
333 0.000977
334 0.001016
335 0.000991
336 0.000967
337 0.000960
338 0.000932
339 0.000873
340 0.000749
341 0.000705
342 0.000708
343 0.000640
344 0.000525
345 0.000441
346 0.000466
347 0.000483
348 0.000558
349 0.000612
350 0.000639
351 0.000723
352 0.000712
353 0.000721
354 0.000723
355 0.000715
356 0.000725
357 0.000694
358 0.000672
359 0.000609
360 0.000516
361 0.000533
362 0.000496
363 0.000522
364 0.000569
365 0.000587
366 0.000586
367 0.000600
368 0.000604
369 0.000558
370 0.000568
371 0.000578
372 0.000541
373 0.000506
374 0.000440
375 0.000399
376 0.000416
377 0.000449
378 0.000512
379 0.000484
380 0.000500
381 0.000474
382 0.000515
383 0.000565
384 0.000563
385 0.000569
386 0.000524
387 0.000449
388 0.000408
389 0.000413
390 0.000459
391 0.000460
392 0.000492
393 0.000585
394 0.000620
395 0.000714
396 0.000735
397 0.000777
398 0.000818
399 0.000838
400 0.000859
401 0.000814
402 0.000769
403 0.000726
404 0.000706
405 0.000711
406 0.000665
407 0.000726
408 0.000795
409 0.000845
410 0.000861
411 0.000896
412 0.000976
413 0.000981
414 0.000982
415 0.000937
416 0.000909
417 0.000922
418 0.000872
419 0.000814
420 0.000698
421 0.000580
422 0.000538
423 0.000581
424 0.000684
425 0.000729
426 0.000763
427 0.000766
428 0.000733
429 0.000706
430 0.000736
431 0.000784
432 0.000783
433 0.000768
434 0.000761
435 0.000764
436 0.000819
437 0.000831
438 0.000882
439 0.000958
440 0.001074
441 0.001158
442 0.001205
443 0.001193
444 0.001160
445 0.001069
446 0.000997
447 0.000943
448 0.000957
449 0.000934
450 0.000902
451 0.000878
452 0.000872
453 0.000894
454 0.000908
455 0.000891
456 0.000889
457 0.000898
458 0.000888
459 0.000860
460 0.000741
461 0.000646
462 0.000632
463 0.000687
464 0.000708
465 0.000726
466 0.000728
467 0.000741
468 0.000711
469 0.000696
470 0.000700
471 0.000712
472 0.000681
473 0.000666
474 0.000667
475 0.000705
476 0.000708
477 0.000673
478 0.000716
479 0.000724
480 0.000754
481 0.000770
482 0.000820
483 0.000910
484 0.000988
485 0.001014
486 0.000986
487 0.000994
488 0.000990
489 0.000952
490 0.000893
491 0.000834
492 0.000837
493 0.000827
494 0.000791
495 0.000740
496 0.000682
497 0.000636
498 0.000578
499 0.000533
500 0.000477
501 0.000428
502 0.000391
503 0.000315
504 0.000228
505 0.000208
506 0.000199
507 0.000195
508 0.000194
509 0.000214
510 0.000247
511 0.000234
512 0.000262
513 0.000284
514 0.000333
515 0.000347
516 0.000281
517 0.000159
518 0.000073
519 0.000007
520 -0.000007
521 0.000030
522 0.000058
523 0.000128
524 0.000182
525 0.000203
526 0.000207
527 0.000240
528 0.000286
529 0.000365
530 0.000355
531 0.000321
532 0.000287
533 0.000338
534 0.000386
535 0.000377
536 0.000388
537 0.000399
538 0.000431
539 0.000495
540 0.000567
541 0.000615
542 0.000611
543 0.000563
544 0.000524
545 0.000479
546 0.000435
547 0.000349
548 0.000267
549 0.000193
550 0.000141
551 0.000066
552 0.000081
553 0.000086
554 0.000128
555 0.000195
556 0.000243
557 0.000323
558 0.000412
559 0.000466
560 0.000532
561 0.000592
562 0.000622
563 0.000636
564 0.000689
565 0.000746
566 0.000754
567 0.000784
568 0.000831
569 0.000899
570 0.000940
571 0.001028
572 0.001046
573 0.001076
574 0.001105
575 0.001140
576 0.001149
577 0.001158
578 0.001128
579 0.001085
580 0.001051
581 0.000999
582 0.001027
583 0.001061
584 0.001027
585 0.001028
586 0.001039
587 0.001036
588 0.000980
589 0.000936
590 0.000921
591 0.000841
592 0.000730
593 0.000598
594 0.000463
595 0.000353
596 0.000268
597 0.000197
598 0.000156
599 0.000115
600 0.000061
601 0.000061
602 0.000068
603 0.000036
604 0.000009
605 -0.000028
606 -0.000104
607 -0.000181
608 -0.000264
609 -0.000303
610 -0.000322
611 -0.000374
612 -0.000434
613 -0.000450
614 -0.000388
615 -0.000351
616 -0.000279
617 -0.000226
618 -0.000141
619 -0.000059
620 0.000005
621 0.000064
622 0.000075
623 0.000068
624 0.000060
625 0.000031
626 0.000062
627 0.000093
628 0.000104
629 0.000099
630 0.000120
631 0.000144
632 0.000173
633 0.000190
634 0.000227
635 0.000247
636 0.000263
637 0.000253
638 0.000233
639 0.000202
640 0.000169
641 0.000154
642 0.000149
643 0.000138
644 0.000137
645 0.000141
646 0.000134
647 0.000101
648 0.000134
649 0.000162
650 0.000176
651 0.000154
652 0.000166
653 0.000220
654 0.000240
655 0.000243
656 0.000259
657 0.000298
658 0.000317
659 0.000365
660 0.000389
661 0.000411
662 0.000439
663 0.000467
664 0.000518
665 0.000581
666 0.000628
667 0.000718
668 0.000735
669 0.000720
670 0.000704
671 0.000691
672 0.000675
673 0.000637
674 0.000590
675 0.000583
676 0.000595
677 0.000584
678 0.000556
679 0.000544
680 0.000555
681 0.000554
682 0.000498
683 0.000464
684 0.000470
685 0.000476
686 0.000440
687 0.000339
688 0.000248
689 0.000161
690 0.000112
691 0.000081
692 0.000100
693 0.000119
694 0.000146
695 0.000146
696 0.000143
697 0.000160
698 0.000192
699 0.000229
700 0.000247
701 0.000253
702 0.000245
703 0.000240
704 0.000209
705 0.000191
706 0.000180
707 0.000170
708 0.000148
709 0.000136
710 0.000129
711 0.000141
712 0.000149
713 0.000140
714 0.000145
715 0.000158
716 0.000211
717 0.000231
718 0.000239
719 0.000256
720 0.000237
721 0.000240
722 0.000232
723 0.000249
724 0.000259
725 0.000256
726 0.000286
727 0.000303
728 0.000317
729 0.000314
730 0.000282
731 0.000274
732 0.000229
733 0.000218
734 0.000176
735 0.000137
736 0.000075
737 -0.000017
738 -0.000174
739 -0.000272
740 -0.000382
741 -0.000397
742 -0.000423
743 -0.000436
744 -0.000459
745 -0.000485
746 -0.000490
747 -0.000468
748 -0.000422
749 -0.000374
750 -0.000331
751 -0.000288
752 -0.000255
753 -0.000256
754 -0.000219
755 -0.000206
756 -0.000190
757 -0.000176
758 -0.000144
759 -0.000125
760 -0.000058
761 0.000003
762 0.000062
763 0.000061
764 0.000040
765 0.000052
766 0.000082
767 0.000106
768 0.000093
769 0.000090
770 0.000079
771 0.000074
772 0.000067
773 0.000092
774 0.000139
775 0.000207
776 0.000246
777 0.000260
778 0.000292
779 0.000327
780 0.000344
781 0.000328
782 0.000311
783 0.000302
784 0.000262
785 0.000198
786 0.000157
787 0.000107
788 0.000087
789 0.000048
790 0.000037
791 0.000059
792 0.000076
793 0.000097
794 0.000100
795 0.000138
796 0.000153
797 0.000166
798 0.000150
799 0.000131
800 0.000093
801 0.000107
802 0.000081
803 0.000062
804 0.000050
805 0.000058
806 0.000078
807 0.000111
808 0.000140
809 0.000177
