# i correlation
1 0.005328
2 0.004699
3 0.004263
4 0.003812
5 0.003432
6 0.003053
7 0.002692
8 0.002414
9 0.002195
10 0.002014
11 0.001891
12 0.001785
13 0.001668
14 0.001616
15 0.001599
16 0.001603
17 0.001599
18 0.001582
19 0.001502
20 0.001401
21 0.001322
22 0.001293
23 0.001287
24 0.001207
25 0.001191
26 0.001137
27 0.001076
28 0.000997
29 0.000910
30 0.000914
31 0.000913
32 0.000862
33 0.000836
34 0.000803
35 0.000798
36 0.000800
37 0.000845
38 0.000887
39 0.000888
40 0.000792
41 0.000789
42 0.000755
43 0.000708
44 0.000664
45 0.000676
46 0.000619
47 0.000540
48 0.000559
49 0.000599
50 0.000646
51 0.000654
52 0.000689
53 0.000784
54 0.000879
55 0.000978
56 0.001077
57 0.001050
58 0.001089
59 0.001125
60 0.001153
61 0.001258
62 0.001288
63 0.001273
64 0.001272
65 0.001302
66 0.001299
67 0.001319
68 0.001318
69 0.001351
70 0.001350
71 0.001262
72 0.001152
73 0.001071
74 0.001036
75 0.001018
76 0.001073
77 0.001022
78 0.000968
79 0.000953
80 0.000953
81 0.000930
82 0.000884
83 0.000811
84 0.000760
85 0.000734
86 0.000726
87 0.000671
88 0.000630
89 0.000560
90 0.000499
91 0.000441
92 0.000415
93 0.000415
94 0.000415
95 0.000435
96 0.000405
97 0.000430
98 0.000495
99 0.000523
100 0.000495
101 0.000397
102 0.000271
103 0.000134
104 0.000073
105 0.000023
106 0.000003
107 -0.000121
108 -0.000238
109 -0.000248
110 -0.000222
111 -0.000207
112 -0.000131
113 -0.000020
114 0.000083
115 0.000215
116 0.000304
117 0.000396
118 0.000456
119 0.000417
120 0.000369
121 0.000417
122 0.000452
123 0.000496
124 0.000534
125 0.000610
126 0.000737
127 0.000803
128 0.000826
129 0.000801
130 0.000777
131 0.000740
132 0.000731
133 0.000609
134 0.000528
135 0.000514
136 0.000464
137 0.000404
138 0.000279
139 0.000178
140 0.000180
141 0.000191
142 0.000131
143 0.000070
144 0.000047
145 0.000046
146 0.000116
147 0.000168
148 0.000265
149 0.000342
150 0.000370
151 0.000392
152 0.000428
153 0.000510
154 0.000597
155 0.000635
156 0.000646
157 0.000660
158 0.000707
159 0.000711
160 0.000722
161 0.000605
162 0.000487
163 0.000420
164 0.000401
165 0.000391
166 0.000315
167 0.000246
168 0.000189
169 0.000086
170 -0.000008
171 -0.000014
172 -0.000043
173 -0.000096
174 -0.000185
175 -0.000214
176 -0.000240
177 -0.000278
178 -0.000231
179 -0.000148
180 -0.000057
181 0.000041
182 0.000077
183 0.000145
184 0.000216
185 0.000286
186 0.000368
187 0.000429
188 0.000491
189 0.000574
190 0.000623
191 0.000600
192 0.000566
193 0.000557
194 0.000516
195 0.000516
196 0.000537
197 0.000576
198 0.000639
199 0.000649
200 0.000583
201 0.000540
202 0.000512
203 0.000538
204 0.000550
205 0.000475
206 0.000390
207 0.000270
208 0.000187
209 0.000137
210 0.000114
211 0.000100
212 0.000112
213 0.000139
214 0.000216
215 0.000247
216 0.000281
217 0.000268
218 0.000236
219 0.000171
220 0.000102
221 0.000064
222 0.000033
223 -0.000049
224 -0.000159
225 -0.000253
226 -0.000310
227 -0.000323
228 -0.000360
229 -0.000329
230 -0.000301
231 -0.000293
232 -0.000229
233 -0.000199
234 -0.000115
235 -0.000035
236 -0.000044
237 -0.000050
238 -0.000071
239 -0.000074
240 -0.000001
241 0.000116
242 0.000239
243 0.000285
244 0.000294
245 0.000355
246 0.000436
247 0.000534
248 0.000603
249 0.000593
250 0.000601
251 0.000624
252 0.000661
253 0.000701
254 0.000705
255 0.000725
256 0.000715
257 0.000768
258 0.000812
259 0.000919
260 0.000987
261 0.000916
262 0.000811
263 0.000738
264 0.000745
265 0.000754
266 0.000729
267 0.000706
268 0.000630
269 0.000581
270 0.000565
271 0.000561
272 0.000580
273 0.000593
274 0.000595
275 0.000620
276 0.000599
277 0.000590
278 0.000618
279 0.000624
280 0.000603
281 0.000627
282 0.000607
283 0.000590
284 0.000577
285 0.000608
286 0.000582
287 0.000514
288 0.000459
289 0.000384
290 0.000349
291 0.000349
292 0.000275
293 0.000231
294 0.000186
295 0.000146
296 0.000187
297 0.000244
298 0.000271
299 0.000299
300 0.000266
301 0.000180
302 0.000173
303 0.000154
304 0.000153
305 0.000074
306 0.000043
307 0.000091
308 0.000147
309 0.000224
310 0.000336
311 0.000440
312 0.000585
313 0.000751
314 0.000928
315 0.001157
316 0.001359
317 0.001395
318 0.001469
319 0.001502
320 0.001535
321 0.001581
322 0.001571
323 0.001477
324 0.001401
325 0.001357
326 0.001333
327 0.001278
328 0.001266
329 0.001272
330 0.001254
331 0.001221
332 0.001202
333 0.001195
334 0.001193
335 0.001237
336 0.001290
337 0.001324
338 0.001340
339 0.001314
340 0.001287
341 0.001287
342 0.001235
343 0.001192
344 0.001129
345 0.001072
346 0.001089
347 0.001107
348 0.001074
349 0.001063
350 0.000988
351 0.000889
352 0.000871
353 0.000855
354 0.000834
355 0.000814
356 0.000755
357 0.000723
358 0.000679
359 0.000650
360 0.000660
361 0.000639
362 0.000586
363 0.000564
364 0.000536
365 0.000541
366 0.000518
367 0.000494
368 0.000480
369 0.000532
370 0.000538
371 0.000552
372 0.000559
373 0.000556
374 0.000561
375 0.000536
376 0.000548
377 0.000618
378 0.000668
379 0.000706
380 0.000705
381 0.000701
382 0.000732
383 0.000756
384 0.000755
385 0.000740
386 0.000704
387 0.000715
388 0.000752
389 0.000762
390 0.000787
391 0.000819
392 0.000868
393 0.000889
394 0.000925
395 0.000944
396 0.000950
397 0.000947
398 0.000971
399 0.000988
400 0.000971
401 0.000961
402 0.000965
403 0.000883
404 0.000833
405 0.000849
406 0.000850
407 0.000854
408 0.000858
409 0.000792
410 0.000779
411 0.000723
412 0.000661
413 0.000677
414 0.000691
415 0.000741
416 0.000795
417 0.000817
418 0.000780
419 0.000737
420 0.000680
421 0.000574
422 0.000476
423 0.000400
424 0.000332
425 0.000348
426 0.000328
427 0.000284
428 0.000243
429 0.000146
430 0.000135
431 0.000183
432 0.000223
433 0.000243
434 0.000244
435 0.000265
436 0.000273
437 0.000296
438 0.000324
439 0.000352
440 0.000386
441 0.000374
442 0.000342
443 0.000358
444 0.000337
445 0.000310
446 0.000297
447 0.000333
448 0.000367
449 0.000363
450 0.000356
451 0.000355
452 0.000331
453 0.000311
454 0.000291
455 0.000282
456 0.000296
457 0.000290
458 0.000273
459 0.000218
460 0.000141
461 0.000086
462 0.000040
463 -0.000015
464 0.000013
465 -0.000003
466 -0.000067
467 -0.000067
468 -0.000092
469 -0.000113
470 -0.000097
471 -0.000102
472 -0.000072
473 -0.000060
474 -0.000036
475 0.000034
476 0.000053
477 0.000039
478 0.000029
479 0.000033
480 0.000033
481 0.000012
482 0.000015
483 0.000039
484 0.000053
485 0.000027
486 0.000073
487 0.000160
488 0.000133
489 0.000092
490 0.000042
491 -0.000050
492 -0.000137
493 -0.000192
494 -0.000248
495 -0.000262
496 -0.000259
497 -0.000264
498 -0.000327
499 -0.000376
500 -0.000384
501 -0.000326
502 -0.000261
503 -0.000215
504 -0.000209
505 -0.000153
506 -0.000033
507 0.000044
508 0.000068
509 0.000053
510 0.000077
511 0.000091
512 0.000123
513 0.000169
514 0.000254
515 0.000270
516 0.000268
517 0.000292
518 0.000333
519 0.000371
520 0.000450
521 0.000480
522 0.000458
523 0.000481
524 0.000506
525 0.000586
526 0.000594
527 0.000548
528 0.000548
529 0.000525
530 0.000446
531 0.000427
532 0.000424
533 0.000380
534 0.000324
535 0.000242
536 0.000166
537 0.000090
538 0.000024
539 -0.000088
540 -0.000187
541 -0.000216
542 -0.000222
543 -0.000256
544 -0.000278
545 -0.000264
546 -0.000264
547 -0.000257
548 -0.000248
549 -0.000275
550 -0.000280
551 -0.000241
552 -0.000255
553 -0.000259
554 -0.000299
555 -0.000323
556 -0.000318
557 -0.000275
558 -0.000254
559 -0.000245
560 -0.000261
561 -0.000285
562 -0.000281
563 -0.000232
564 -0.000220
565 -0.000248
566 -0.000228
567 -0.000205
568 -0.000174
569 -0.000125
570 -0.000091
571 -0.000049
572 0.000001
573 0.000061
574 0.000077
575 0.000067
576 0.000054
577 0.000052
578 0.000013
579 0.000009
580 -0.000000
581 0.000033
582 0.000052
583 0.000074
584 0.000096
585 0.000137
586 0.000175
587 0.000202
588 0.000263
589 0.000286
590 0.000291
591 0.000236
592 0.000165
593 0.000139
594 0.000086
595 0.000074
596 0.000094
597 0.000119
598 0.000073
599 0.000041
600 0.000039
601 0.000037
602 0.000040
603 0.000076
604 0.000094
605 0.000077
606 0.000083
607 0.000105
608 0.000084
609 0.000056
610 -0.000007
611 0.000003
612 0.000062
613 0.000124
614 0.000165
615 0.000157
616 0.000122
617 0.000036
618 -0.000042
619 -0.000117
620 -0.000162
621 -0.000224
622 -0.000260
623 -0.000290
624 -0.000273
625 -0.000308
626 -0.000384
627 -0.000403
628 -0.000388
629 -0.000341
630 -0.000316
631 -0.000282
632 -0.000266
633 -0.000242
634 -0.000197
635 -0.000202
636 -0.000172
637 -0.000140
638 -0.000062
639 -0.000029
640 0.000014
641 0.000069
642 0.000127
643 0.000125
644 0.000080
645 0.000053
646 0.000046
647 0.000051
648 0.000043
649 0.000039
650 0.000058
651 0.000084
652 0.000095
653 0.000125
654 0.000194
655 0.000268
656 0.000286
657 0.000356
658 0.000404
659 0.000437
660 0.000455
661 0.000439
662 0.000422
663 0.000414
664 0.000390
665 0.000395
666 0.000392
667 0.000356
668 0.000306
669 0.000307
670 0.000291
671 0.000240
672 0.000260
673 0.000311
674 0.000359
675 0.000414
676 0.000446
677 0.000469
678 0.000497
679 0.000524
680 0.000536
681 0.000513
682 0.000452
683 0.000460
684 0.000430
685 0.000421
686 0.000402
687 0.000368
688 0.000298
689 0.000232
690 0.000194
691 0.000155
692 0.000148
693 0.000117
694 0.000093
695 0.000109
696 0.000115
697 0.000082
698 0.000067
699 0.000081
700 0.000084
701 0.000097
702 0.000082
703 0.000085
704 0.000082
705 0.000085
706 0.000071
707 0.000070
708 0.000033
709 0.000008
710 0.000035
711 0.000042
712 0.000045
713 0.000065
714 0.000076
715 0.000076
716 0.000065
717 0.000093
718 0.000145
719 0.000186
720 0.000211
721 0.000236
722 0.000287
723 0.000311
724 0.000336
725 0.000348
726 0.000351
727 0.000337
728 0.000347
729 0.000384
730 0.000416
731 0.000448
732 0.000456
733 0.000455
734 0.000454
735 0.000457
736 0.000444
737 0.000424
738 0.000396
739 0.000381
740 0.000365
741 0.000318
742 0.000282
743 0.000244
744 0.000187
745 0.000141
746 0.000112
747 0.000063
748 0.000042
749 0.000024
750 -0.000016
751 -0.000046
752 -0.000050
753 -0.000042
754 -0.000040
755 -0.000007
756 0.000046
757 0.000062
758 0.000016
759 -0.000011
760 -0.000018
761 -0.000020
762 -0.000044
763 -0.000079
764 -0.000110
765 -0.000124
766 -0.000127
767 -0.000131
768 -0.000127
769 -0.000132
770 -0.000150
771 -0.000121
772 -0.000087
773 -0.000079
774 -0.000076
775 -0.000080
776 -0.000094
777 -0.000080
778 -0.000059
779 -0.000056
780 -0.000057
781 -0.000075
782 -0.000092
783 -0.000102
784 -0.000109
785 -0.000133
786 -0.000138
787 -0.000146
788 -0.000170
789 -0.000196
790 -0.000228
791 -0.000278
792 -0.000327
793 -0.000341
794 -0.000349
795 -0.000344
796 -0.000331
797 -0.000355
798 -0.000346
799 -0.000321
800 -0.000291
801 -0.000256
802 -0.000210
803 -0.000172
804 -0.000148
805 -0.000112
806 -0.000087
807 -0.000071
808 -0.000076
809 -0.000080
