# i correlation
1 0.005642
2 0.005043
3 0.004471
4 0.003993
5 0.003560
6 0.003211
7 0.002906
8 0.002679
9 0.002492
10 0.002340
11 0.002231
12 0.002139
13 0.002080
14 0.002047
15 0.002055
16 0.001981
17 0.001920
18 0.001860
19 0.001801
20 0.001691
21 0.001526
22 0.001260
23 0.001086
24 0.000954
25 0.000904
26 0.000860
27 0.000855
28 0.000856
29 0.000978
30 0.001036
31 0.001096
32 0.001115
33 0.001137
34 0.001205
35 0.001170
36 0.001060
37 0.000992
38 0.000926
39 0.000863
40 0.000791
41 0.000756
42 0.000700
43 0.000653
44 0.000626
45 0.000641
46 0.000639
47 0.000679
48 0.000670
49 0.000710
50 0.000709
51 0.000705
52 0.000709
53 0.000626
54 0.000532
55 0.000419
56 0.000427
57 0.000390
58 0.000491
59 0.000554
60 0.000555
61 0.000524
62 0.000543
63 0.000606
64 0.000692
65 0.000789
66 0.000797
67 0.000789
68 0.000747
69 0.000691
70 0.000643
71 0.000590
72 0.000516
73 0.000489
74 0.000504
75 0.000608
76 0.000760
77 0.000934
78 0.001127
79 0.001278
80 0.001335
81 0.001357
82 0.001292
83 0.001230
84 0.001245
85 0.001300
86 0.001325
87 0.001367
88 0.001447
89 0.001489
90 0.001550
91 0.001644
92 0.001720
93 0.001742
94 0.001828
95 0.001866
96 0.001924
97 0.001862
98 0.001793
99 0.001765
100 0.001833
101 0.001772
102 0.001710
103 0.001610
104 0.001548
105 0.001488
106 0.001403
107 0.001286
108 0.001211
109 0.001187
110 0.001200
111 0.001097
112 0.000929
113 0.000728
114 0.000553
115 0.000481
116 0.000471
117 0.000364
118 0.000266
119 0.000233
120 0.000145
121 0.000097
122 0.000072
123 0.000124
124 0.000113
125 0.000166
126 0.000242
127 0.000328
128 0.000311
129 0.000403
130 0.000459
131 0.000476
132 0.000368
133 0.000287
134 0.000170
135 0.000074
136 0.000020
137 -0.000055
138 -0.000126
139 -0.000111
140 -0.000098
141 -0.000050
142 0.000084
143 0.000229
144 0.000425
145 0.000531
146 0.000557
147 0.000590
148 0.000605
149 0.000521
150 0.000450
151 0.000347
152 0.000262
153 0.000150
154 0.000070
155 0.000052
156 0.000090
157 0.000116
158 0.000163
159 0.000217
160 0.000216
161 0.000253
162 0.000312
163 0.000352
164 0.000425
165 0.000487
166 0.000514
167 0.000548
168 0.000599
169 0.000594
170 0.000612
171 0.000576
172 0.000575
173 0.000560
174 0.000596
175 0.000650
176 0.000695
177 0.000765
178 0.000881
179 0.001013
180 0.001098
181 0.001229
182 0.001315
183 0.001396
184 0.001387
185 0.001492
186 0.001571
187 0.001620
188 0.001660
189 0.001712
190 0.001759
191 0.001753
192 0.001700
193 0.001649
194 0.001687
195 0.001753
196 0.001868
197 0.001899
198 0.001931
199 0.001878
200 0.001836
201 0.001764
202 0.001759
203 0.001651
204 0.001628
205 0.001534
206 0.001459
207 0.001389
208 0.001290
209 0.001158
210 0.001032
211 0.000944
212 0.000827
213 0.000679
214 0.000538
215 0.000445
216 0.000334
217 0.000259
218 0.000132
219 0.000051
220 0.000008
221 0.000006
222 0.000016
223 0.000049
224 0.000064
225 0.000114
226 0.000176
227 0.000214
228 0.000206
229 0.000170
230 0.000176
231 0.000215
232 0.000217
233 0.000274
234 0.000333
235 0.000434
236 0.000539
237 0.000639
238 0.000647
239 0.000690
240 0.000684
241 0.000716
242 0.000712
243 0.000713
244 0.000718
245 0.000721
246 0.000754
247 0.000738
248 0.000673
249 0.000677
250 0.000645
251 0.000597
252 0.000575
253 0.000555
254 0.000534
255 0.000559
256 0.000609
257 0.000620
258 0.000683
259 0.000737
260 0.000840
261 0.000908
262 0.000903
263 0.000827
264 0.000787
265 0.000687
266 0.000586
267 0.000545
268 0.000532
269 0.000552
270 0.000595
271 0.000662
272 0.000712
273 0.000776
274 0.000884
275 0.001029
276 0.001136
277 0.001211
278 0.001221
279 0.001187
280 0.001146
281 0.001091
282 0.001071
283 0.001083
284 0.001085
285 0.001086
286 0.001090
287 0.001105
288 0.001119
289 0.001169
290 0.001310
291 0.001420
292 0.001474
293 0.001445
294 0.001394
295 0.001328
296 0.001241
297 0.001141
298 0.001038
299 0.000893
300 0.000721
301 0.000580
302 0.000449
303 0.000325
304 0.000248
305 0.000195
306 0.000144
307 0.000070
308 0.000009
309 -0.000048
310 -0.000150
311 -0.000182
312 -0.000169
313 -0.000225
314 -0.000263
315 -0.000334
316 -0.000428
317 -0.000483
318 -0.000545
319 -0.000596
320 -0.000619
321 -0.000619
322 -0.000576
323 -0.000523
324 -0.000426
325 -0.000334
326 -0.000271
327 -0.000118
328 -0.000062
329 0.000001
330 0.000005
331 0.000043
332 0.000054
333 0.000112
334 0.000155
335 0.000182
336 0.000203
337 0.000247
338 0.000327
339 0.000400
340 0.000446
341 0.000502
342 0.000558
343 0.000603
344 0.000640
345 0.000616
346 0.000603
347 0.000513
348 0.000428
349 0.000363
350 0.000331
351 0.000316
352 0.000308
353 0.000357
354 0.000402
355 0.000411
356 0.000460
357 0.000517
358 0.000549
359 0.000523
360 0.000539
361 0.000548
362 0.000550
363 0.000554
364 0.000560
365 0.000590
366 0.000664
367 0.000688
368 0.000744
369 0.000826
370 0.000934
371 0.000980
372 0.001020
373 0.000980
374 0.000980
375 0.000979
376 0.000954
377 0.000960
378 0.000995
379 0.001011
380 0.001026
381 0.001036
382 0.001061
383 0.001112
384 0.001101
385 0.001129
386 0.001157
387 0.001238
388 0.001215
389 0.001165
390 0.001105
391 0.001056
392 0.001018
393 0.000960
394 0.000892
395 0.000811
396 0.000656
397 0.000566
398 0.000462
399 0.000386
400 0.000378
401 0.000388
402 0.000415
403 0.000521
404 0.000547
405 0.000501
406 0.000486
407 0.000421
408 0.000383
409 0.000387
410 0.000306
411 0.000207
412 0.000130
413 0.000043
414 -0.000031
415 -0.000086
416 -0.000108
417 -0.000091
418 -0.000048
419 -0.000013
420 0.000011
421 0.000096
422 0.000172
423 0.000239
424 0.000284
425 0.000271
426 0.000199
427 0.000166
428 0.000176
429 0.000120
430 0.000096
431 0.000026
432 0.000040
433 0.000087
434 0.000145
435 0.000247
436 0.000319
437 0.000335
438 0.000405
439 0.000459
440 0.000464
441 0.000467
442 0.000463
443 0.000476
444 0.000452
445 0.000443
446 0.000466
447 0.000501
448 0.000551
449 0.000566
450 0.000590
451 0.000639
452 0.000637
453 0.000687
454 0.000725
455 0.000772
456 0.000808
457 0.000856
458 0.000857
459 0.000865
460 0.000804
461 0.000742
462 0.000727
463 0.000678
464 0.000612
465 0.000531
466 0.000525
467 0.000551
468 0.000603
469 0.000659
470 0.000719
471 0.000761
472 0.000806
473 0.000865
474 0.000915
475 0.000909
476 0.000895
477 0.000877
478 0.000837
479 0.000810
480 0.000829
481 0.000853
482 0.000911
483 0.000917
484 0.000865
485 0.000796
486 0.000763
487 0.000732
488 0.000737
489 0.000729
490 0.000693
491 0.000634
492 0.000563
493 0.000524
494 0.000479
495 0.000405
496 0.000295
497 0.000231
498 0.000165
499 0.000124
500 0.000101
501 0.000097
502 0.000092
503 0.000069
504 0.000033
505 0.000027
506 0.000026
507 -0.000017
508 -0.000061
509 -0.000092
510 -0.000082
511 -0.000050
512 -0.000017
513 0.000048
514 0.000106
515 0.000105
516 0.000103
517 0.000080
518 0.000036
519 0.000010
520 0.000025
521 -0.000016
522 -0.000020
523 -0.000052
524 -0.000060
525 -0.000062
526 -0.000038
527 0.000021
528 0.000070
529 0.000155
530 0.000225
531 0.000322
532 0.000432
533 0.000546
534 0.000675
535 0.000767
536 0.000856
537 0.000869
538 0.000877
539 0.000856
540 0.000820
541 0.000727
542 0.000664
543 0.000554
544 0.000490
545 0.000516
546 0.000489
547 0.000492
548 0.000511
549 0.000538
550 0.000538
551 0.000573
552 0.000595
553 0.000593
554 0.000604
555 0.000597
556 0.000539
557 0.000489
558 0.000404
559 0.000364
560 0.000296
561 0.000282
562 0.000258
563 0.000223
564 0.000204
565 0.000241
566 0.000299
567 0.000349
568 0.000432
569 0.000517
570 0.000602
571 0.000646
572 0.000734
573 0.000793
574 0.000871
575 0.000880
576 0.000880
577 0.000841
578 0.000819
579 0.000785
580 0.000782
581 0.000769
582 0.000765
583 0.000764
584 0.000717
585 0.000681
586 0.000641
587 0.000601
588 0.000546
589 0.000550
590 0.000534
591 0.000512
592 0.000474
593 0.000424
594 0.000393
595 0.000361
596 0.000287
597 0.000270
598 0.000271
599 0.000304
600 0.000303
601 0.000336
602 0.000353
603 0.000414
604 0.000475
605 0.000481
606 0.000504
607 0.000499
608 0.000472
609 0.000422
610 0.000405
611 0.000397
612 0.000392
613 0.000424
614 0.000467
615 0.000511
616 0.000555
617 0.000599
618 0.000648
619 0.000653
620 0.000628
621 0.000613
622 0.000584
623 0.000547
624 0.000500
625 0.000469
626 0.000461
627 0.000424
628 0.000416
629 0.000447
630 0.000502
631 0.000541
632 0.000625
633 0.000712
634 0.000764
635 0.000747
636 0.000792
637 0.000805
638 0.000828
639 0.000840
640 0.000826
641 0.000803
642 0.000761
643 0.000697
644 0.000636
645 0.000601
646 0.000579
647 0.000584
648 0.000579
649 0.000586
650 0.000608
651 0.000644
652 0.000643
653 0.000617
654 0.000566
655 0.000559
656 0.000539
657 0.000545
658 0.000548
659 0.000597
660 0.000619
661 0.000637
662 0.000665
663 0.000665
664 0.000672
665 0.000712
666 0.000708
667 0.000699
668 0.000695
669 0.000661
670 0.000640
671 0.000607
672 0.000609
673 0.000559
674 0.000524
675 0.000515
676 0.000490
677 0.000477
678 0.000513
679 0.000570
680 0.000627
681 0.000689
682 0.000741
683 0.000768
684 0.000787
685 0.000813
686 0.000790
687 0.000691
688 0.000585
689 0.000486
690 0.000391
691 0.000299
692 0.000262
693 0.000237
694 0.000223
695 0.000231
696 0.000231
697 0.000267
698 0.000283
699 0.000366
700 0.000426
701 0.000460
702 0.000441
703 0.000424
704 0.000407
705 0.000341
706 0.000306
707 0.000264
708 0.000229
709 0.000212
710 0.000231
711 0.000229
712 0.000232
713 0.000279
714 0.000342
715 0.000387
716 0.000421
717 0.000473
718 0.000523
719 0.000587
720 0.000603
721 0.000596
722 0.000560
723 0.000510
724 0.000487
725 0.000431
726 0.000401
727 0.000367
728 0.000347
729 0.000300
730 0.000297
731 0.000308
732 0.000316
733 0.000352
734 0.000393
735 0.000405
736 0.000411
737 0.000427
738 0.000449
739 0.000474
740 0.000494
741 0.000518
742 0.000544
743 0.000558
744 0.000588
745 0.000590
746 0.000583
747 0.000598
748 0.000603
749 0.000590
750 0.000575
751 0.000588
752 0.000593
753 0.000601
754 0.000560
755 0.000504
756 0.000431
757 0.000400
758 0.000327
759 0.000307
760 0.000288
761 0.000293
762 0.000323
763 0.000358
764 0.000373
765 0.000386
766 0.000408
767 0.000372
768 0.000347
769 0.000325
770 0.000295
771 0.000274
772 0.000272
773 0.000265
774 0.000264
775 0.000278
776 0.000298
777 0.000315
778 0.000338
779 0.000333
780 0.000340
781 0.000370
782 0.000391
783 0.000375
784 0.000379
785 0.000349
786 0.000318
787 0.000244
788 0.000201
789 0.000154
790 0.000093
791 0.000088
792 0.000061
793 0.000054
794 0.000061
795 0.000091
796 0.000127
797 0.000142
798 0.000142
799 0.000130
800 0.000107
801 0.000110
802 0.000099
803 0.000103
804 0.000096
805 0.000078
806 0.000087
807 0.000077
808 0.000078
809 0.000098
