# i correlation
1 0.006716
2 0.005962
3 0.005348
4 0.004901
5 0.004564
6 0.004268
7 0.004011
8 0.003830
9 0.003632
10 0.003516
11 0.003488
12 0.003463
13 0.003370
14 0.003266
15 0.003131
16 0.002999
17 0.002864
18 0.002820
19 0.002723
20 0.002569
21 0.002465
22 0.002358
23 0.002258
24 0.002203
25 0.002164
26 0.002019
27 0.001918
28 0.001923
29 0.001947
30 0.001899
31 0.001752
32 0.001571
33 0.001353
34 0.001185
35 0.001205
36 0.001286
37 0.001392
38 0.001323
39 0.001334
40 0.001406
41 0.001510
42 0.001616
43 0.001618
44 0.001524
45 0.001447
46 0.001370
47 0.001311
48 0.001260
49 0.001206
50 0.001280
51 0.001326
52 0.001327
53 0.001276
54 0.001187
55 0.001081
56 0.000957
57 0.000801
58 0.000630
59 0.000457
60 0.000412
61 0.000374
62 0.000313
63 0.000200
64 0.000206
65 0.000173
66 0.000167
67 0.000185
68 0.000165
69 0.000160
70 0.000123
71 0.000121
72 0.000284
73 0.000360
74 0.000349
75 0.000334
76 0.000392
77 0.000484
78 0.000521
79 0.000580
80 0.000700
81 0.000803
82 0.000843
83 0.000851
84 0.000879
85 0.000889
86 0.000854
87 0.000865
88 0.000838
89 0.000847
90 0.000821
91 0.000869
92 0.001023
93 0.001179
94 0.001335
95 0.001464
96 0.001513
97 0.001507
98 0.001444
99 0.001416
100 0.001424
101 0.001425
102 0.001511
103 0.001525
104 0.001522
105 0.001610
106 0.001650
107 0.001695
108 0.001689
109 0.001625
110 0.001535
111 0.001440
112 0.001409
113 0.001398
114 0.001494
115 0.001590
116 0.001653
117 0.001763
118 0.001906
119 0.001953
120 0.001942
121 0.001906
122 0.001904
123 0.001918
124 0.001943
125 0.001904
126 0.001911
127 0.001919
128 0.001906
129 0.001929
130 0.001914
131 0.001968
132 0.001987
133 0.002022
134 0.002114
135 0.002161
136 0.002197
137 0.002167
138 0.002075
139 0.001908
140 0.001772
141 0.001679
142 0.001698
143 0.001714
144 0.001768
145 0.001853
146 0.001964
147 0.002080
148 0.002177
149 0.002193
150 0.002156
151 0.002035
152 0.001859
153 0.001674
154 0.001561
155 0.001442
156 0.001447
157 0.001462
158 0.001470
159 0.001508
160 0.001528
161 0.001517
162 0.001467
163 0.001320
164 0.001220
165 0.001151
166 0.001057
167 0.000964
168 0.000946
169 0.000936
170 0.000897
171 0.000960
172 0.001062
173 0.001134
174 0.001219
175 0.001221
176 0.001200
177 0.001113
178 0.001057
179 0.001017
180 0.000972
181 0.000850
182 0.000792
183 0.000737
184 0.000771
185 0.000784
186 0.000827
187 0.000845
188 0.000838
189 0.000829
190 0.000821
191 0.000788
192 0.000680
193 0.000567
194 0.000465
195 0.000365
196 0.000339
197 0.000302
198 0.000320
199 0.000352
200 0.000408
201 0.000533
202 0.000658
203 0.000733
204 0.000698
205 0.000565
206 0.000417
207 0.000316
208 0.000222
209 0.000140
210 0.000035
211 -0.000025
212 -0.000017
213 -0.000120
214 -0.000120
215 -0.000048
216 -0.000006
217 0.000025
218 0.000026
219 0.000041
220 0.000057
221 0.000121
222 0.000094
223 0.000137
224 0.000125
225 0.000090
226 0.000150
227 0.000217
228 0.000297
229 0.000363
230 0.000427
231 0.000570
232 0.000626
233 0.000690
234 0.000712
235 0.000600
236 0.000554
237 0.000549
238 0.000510
239 0.000473
240 0.000424
241 0.000399
242 0.000398
243 0.000399
244 0.000412
245 0.000391
246 0.000388
247 0.000320
248 0.000226
249 0.000161
250 0.000103
251 0.000127
252 0.000200
253 0.000337
254 0.000421
255 0.000493
256 0.000578
257 0.000602
258 0.000649
259 0.000645
260 0.000628
261 0.000539
262 0.000498
263 0.000476
264 0.000506
265 0.000536
266 0.000511
267 0.000518
268 0.000570
269 0.000593
270 0.000593
271 0.000600
272 0.000524
273 0.000485
274 0.000488
275 0.000477
276 0.000492
277 0.000456
278 0.000437
279 0.000489
280 0.000526
281 0.000605
282 0.000682
283 0.000750
284 0.000825
285 0.000845
286 0.000877
287 0.000832
288 0.000812
289 0.000776
290 0.000736
291 0.000672
292 0.000644
293 0.000641
294 0.000677
295 0.000751
296 0.000788
297 0.000690
298 0.000640
299 0.000623
300 0.000650
301 0.000618
302 0.000525
303 0.000458
304 0.000515
305 0.000570
306 0.000648
307 0.000697
308 0.000737
309 0.000765
310 0.000796
311 0.000758
312 0.000655
313 0.000588
314 0.000516
315 0.000450
316 0.000384
317 0.000392
318 0.000441
319 0.000472
320 0.000514
321 0.000502
322 0.000518
323 0.000540
324 0.000586
325 0.000596
326 0.000543
327 0.000423
328 0.000319
329 0.000252
330 0.000207
331 0.000219
332 0.000259
333 0.000280
334 0.000305
335 0.000359
336 0.000492
337 0.000609
338 0.000666
339 0.000611
340 0.000548
341 0.000462
342 0.000436
343 0.000436
344 0.000382
345 0.000366
346 0.000358
347 0.000350
348 0.000350
349 0.000299
350 0.000335
351 0.000369
352 0.000403
353 0.000352
354 0.000246
355 0.000157
356 0.000064
357 -0.000073
358 -0.000242
359 -0.000349
360 -0.000324
361 -0.000206
362 -0.000133
363 -0.000129
364 -0.000196
365 -0.000273
366 -0.000355
367 -0.000439
368 -0.000490
369 -0.000557
370 -0.000661
371 -0.000767
372 -0.000855
373 -0.000823
374 -0.000792
375 -0.000744
376 -0.000694
377 -0.000641
378 -0.000616
379 -0.000537
380 -0.000431
381 -0.000363
382 -0.000287
383 -0.000322
384 -0.000373
385 -0.000363
386 -0.000378
387 -0.000399
388 -0.000366
389 -0.000354
390 -0.000344
391 -0.000272
392 -0.000227
393 -0.000176
394 -0.000142
395 -0.000121
396 -0.000132
397 -0.000135
398 -0.000095
399 -0.000096
400 -0.000157
401 -0.000223
402 -0.000259
403 -0.000241
404 -0.000209
405 -0.000158
406 -0.000131
407 -0.000138
408 -0.000227
409 -0.000320
410 -0.000378
411 -0.000419
412 -0.000443
413 -0.000467
414 -0.000536
415 -0.000589
416 -0.000569
417 -0.000488
418 -0.000406
419 -0.000347
420 -0.000357
421 -0.000391
422 -0.000400
423 -0.000436
424 -0.000413
425 -0.000378
426 -0.000411
427 -0.000384
428 -0.000346
429 -0.000302
430 -0.000192
431 -0.000121
432 -0.000048
433 0.000062
434 0.000065
435 0.000087
436 0.000159
437 0.000288
438 0.000406
439 0.000436
440 0.000471
441 0.000515
442 0.000610
443 0.000597
444 0.000597
445 0.000523
446 0.000465
447 0.000426
448 0.000449
449 0.000435
450 0.000397
451 0.000285
452 0.000222
453 0.000146
454 0.000174
455 0.000235
456 0.000248
457 0.000261
458 0.000346
459 0.000357
460 0.000411
461 0.000436
462 0.000472
463 0.000432
464 0.000332
465 0.000246
466 0.000186
467 0.000162
468 0.000155
469 0.000146
470 0.000146
471 0.000112
472 0.000058
473 0.000044
474 0.000049
475 0.000012
476 0.000002
477 -0.000033
478 -0.000043
479 -0.000003
480 0.000060
481 0.000079
482 0.000044
483 0.000046
484 0.000050
485 0.000050
486 -0.000010
487 -0.000028
488 -0.000032
489 -0.000021
490 0.000001
491 0.000060
492 0.000095
493 0.000130
494 0.000173
495 0.000133
496 0.000064
497 0.000054
498 0.000075
499 0.000105
500 0.000092
501 0.000016
502 -0.000025
503 -0.000133
504 -0.000225
505 -0.000286
506 -0.000328
507 -0.000397
508 -0.000431
509 -0.000483
510 -0.000459
511 -0.000385
512 -0.000288
513 -0.000190
514 -0.000175
515 -0.000237
516 -0.000292
517 -0.000413
518 -0.000566
519 -0.000688
520 -0.000739
521 -0.000754
522 -0.000692
523 -0.000684
524 -0.000705
525 -0.000749
526 -0.000748
527 -0.000716
528 -0.000763
529 -0.000828
530 -0.000854
531 -0.000886
532 -0.000922
533 -0.000995
534 -0.001012
535 -0.000994
536 -0.000999
537 -0.001012
538 -0.001029
539 -0.001035
540 -0.001054
541 -0.001044
542 -0.000999
543 -0.000969
544 -0.000972
545 -0.000971
546 -0.000991
547 -0.001009
548 -0.001042
549 -0.001065
550 -0.001078
551 -0.001055
552 -0.001027
553 -0.000970
554 -0.000896
555 -0.000838
556 -0.000811
557 -0.000816
558 -0.000866
559 -0.000896
560 -0.000873
561 -0.000904
562 -0.000902
563 -0.000824
564 -0.000752
565 -0.000736
566 -0.000696
567 -0.000649
568 -0.000574
569 -0.000511
570 -0.000499
571 -0.000450
572 -0.000433
573 -0.000395
574 -0.000368
575 -0.000292
576 -0.000221
577 -0.000175
578 -0.000092
579 -0.000043
580 -0.000016
581 -0.000005
582 0.000004
583 -0.000011
584 0.000016
585 0.000014
586 -0.000012
587 -0.000036
588 -0.000035
589 0.000010
590 0.000042
591 0.000051
592 0.000072
593 0.000084
594 0.000127
595 0.000149
596 0.000198
597 0.000194
598 0.000162
599 0.000149
600 0.000132
601 0.000048
602 -0.000070
603 -0.000150
604 -0.000197
605 -0.000243
606 -0.000225
607 -0.000210
608 -0.000189
609 -0.000215
610 -0.000177
611 -0.000209
612 -0.000252
613 -0.000278
614 -0.000306
615 -0.000236
616 -0.000154
617 -0.000132
618 -0.000105
619 -0.000066
620 -0.000036
621 -0.000020
622 -0.000004
623 -0.000028
624 -0.000069
625 -0.000126
626 -0.000174
627 -0.000221
628 -0.000218
629 -0.000189
630 -0.000202
631 -0.000222
632 -0.000234
633 -0.000245
634 -0.000226
635 -0.000219
636 -0.000202
637 -0.000175
638 -0.000188
639 -0.000194
640 -0.000151
641 -0.000103
642 -0.000113
643 -0.000198
644 -0.000262
645 -0.000300
646 -0.000368
647 -0.000411
648 -0.000461
649 -0.000517
650 -0.000544
651 -0.000570
652 -0.000590
653 -0.000654
654 -0.000766
655 -0.000891
656 -0.000905
657 -0.000866
658 -0.000825
659 -0.000797
660 -0.000766
661 -0.000742
662 -0.000719
663 -0.000708
664 -0.000680
665 -0.000644
666 -0.000653
667 -0.000705
668 -0.000733
669 -0.000695
670 -0.000592
671 -0.000518
672 -0.000502
673 -0.000515
674 -0.000539
675 -0.000595
676 -0.000632
677 -0.000664
678 -0.000654
679 -0.000672
680 -0.000687
681 -0.000678
682 -0.000683
683 -0.000686
684 -0.000712
685 -0.000740
686 -0.000705
687 -0.000661
688 -0.000600
689 -0.000570
690 -0.000573
691 -0.000577
692 -0.000588
693 -0.000605
694 -0.000604
695 -0.000592
696 -0.000603
697 -0.000579
698 -0.000531
699 -0.000480
700 -0.000459
701 -0.000456
702 -0.000406
703 -0.000437
704 -0.000476
705 -0.000517
706 -0.000533
707 -0.000542
708 -0.000584
709 -0.000639
710 -0.000682
711 -0.000658
712 -0.000607
713 -0.000547
714 -0.000469
715 -0.000418
716 -0.000331
717 -0.000221
718 -0.000110
719 -0.000071
720 -0.000071
721 -0.000111
722 -0.000138
723 -0.000109
724 -0.000079
725 -0.000037
726 -0.000034
727 -0.000068
728 -0.000099
729 -0.000112
730 -0.000119
731 -0.000127
732 -0.000120
733 -0.000132
734 -0.000100
735 -0.000083
736 -0.000053
737 0.000002
738 0.000022
739 0.000021
740 -0.000036
741 -0.000052
742 0.000011
743 0.000086
744 0.000192
745 0.000224
746 0.000258
747 0.000286
748 0.000266
749 0.000239
750 0.000199
751 0.000131
752 0.000072
753 0.000022
754 0.000015
755 0.000038
756 0.000026
757 -0.000006
758 -0.000002
759 0.000015
760 0.000043
761 0.000013
762 0.000038
763 0.000057
764 0.000081
765 0.000114
766 0.000161
767 0.000200
768 0.000219
769 0.000213
770 0.000187
771 0.000170
772 0.000158
773 0.000106
774 0.000056
775 0.000057
776 0.000058
777 0.000035
778 0.000038
779 0.000044
780 0.000054
781 0.000046
782 -0.000018
783 -0.000059
784 -0.000023
785 -0.000014
786 -0.000006
787 -0.000006
788 -0.000011
789 -0.000047
790 -0.000062
791 -0.000087
792 -0.000115
793 -0.000148
794 -0.000157
795 -0.000188
796 -0.000231
797 -0.000236
798 -0.000236
799 -0.000249
800 -0.000250
801 -0.000287
802 -0.000323
803 -0.000393
804 -0.000458
805 -0.000489
806 -0.000481
807 -0.000488
808 -0.000496
809 -0.000518
