# i correlation
1 0.005515
2 0.004892
3 0.004418
4 0.003979
5 0.003542
6 0.003216
7 0.002981
8 0.002775
9 0.002601
10 0.002526
11 0.002447
12 0.002404
13 0.002416
14 0.002356
15 0.002271
16 0.002197
17 0.002058
18 0.001895
19 0.001701
20 0.001485
21 0.001324
22 0.001204
23 0.001149
24 0.001160
25 0.001119
26 0.001081
27 0.001071
28 0.001062
29 0.001112
30 0.001109
31 0.001026
32 0.000907
33 0.000837
34 0.000774
35 0.000689
36 0.000619
37 0.000626
38 0.000658
39 0.000687
40 0.000738
41 0.000773
42 0.000798
43 0.000810
44 0.000898
45 0.001008
46 0.001099
47 0.001183
48 0.001130
49 0.001073
50 0.000939
51 0.000893
52 0.000855
53 0.000778
54 0.000733
55 0.000727
56 0.000724
57 0.000764
58 0.000769
59 0.000783
60 0.000882
61 0.000956
62 0.001028
63 0.001054
64 0.001027
65 0.000949
66 0.000841
67 0.000763
68 0.000676
69 0.000600
70 0.000624
71 0.000627
72 0.000523
73 0.000492
74 0.000557
75 0.000601
76 0.000594
77 0.000561
78 0.000575
79 0.000576
80 0.000587
81 0.000619
82 0.000617
83 0.000615
84 0.000714
85 0.000799
86 0.000863
87 0.000950
88 0.001007
89 0.001053
90 0.001054
91 0.001022
92 0.001008
93 0.000963
94 0.001001
95 0.001035
96 0.001035
97 0.001078
98 0.001134
99 0.001115
100 0.001043
101 0.000979
102 0.000960
103 0.000972
104 0.000978
105 0.000967
106 0.000957
107 0.000943
108 0.000964
109 0.001001
110 0.001048
111 0.001063
112 0.001104
113 0.001191
114 0.001201
115 0.001148
116 0.001118
117 0.001096
118 0.001025
119 0.000921
120 0.000895
121 0.000908
122 0.000970
123 0.001080
124 0.001189
125 0.001248
126 0.001319
127 0.001413
128 0.001454
129 0.001432
130 0.001423
131 0.001401
132 0.001343
133 0.001328
134 0.001347
135 0.001335
136 0.001375
137 0.001329
138 0.001309
139 0.001378
140 0.001387
141 0.001382
142 0.001403
143 0.001411
144 0.001382
145 0.001270
146 0.001236
147 0.001211
148 0.001141
149 0.001085
150 0.001057
151 0.001020
152 0.000963
153 0.000873
154 0.000867
155 0.000925
156 0.000889
157 0.000825
158 0.000814
159 0.000797
160 0.000820
161 0.000719
162 0.000653
163 0.000586
164 0.000491
165 0.000419
166 0.000302
167 0.000180
168 0.000165
169 0.000153
170 0.000099
171 -0.000011
172 -0.000051
173 -0.000024
174 0.000004
175 0.000052
176 0.000092
177 0.000117
178 0.000093
179 0.000059
180 0.000032
181 -0.000033
182 -0.000183
183 -0.000259
184 -0.000266
185 -0.000236
186 -0.000246
187 -0.000198
188 -0.000115
189 -0.000034
190 -0.000036
191 -0.000009
192 0.000035
193 0.000124
194 0.000190
195 0.000218
196 0.000272
197 0.000327
198 0.000382
199 0.000392
200 0.000435
201 0.000434
202 0.000517
203 0.000542
204 0.000500
205 0.000458
206 0.000431
207 0.000449
208 0.000393
209 0.000393
210 0.000463
211 0.000570
212 0.000661
213 0.000768
214 0.000855
215 0.000943
216 0.001034
217 0.001103
218 0.001163
219 0.001224
220 0.001322
221 0.001408
222 0.001448
223 0.001472
224 0.001490
225 0.001481
226 0.001470
227 0.001394
228 0.001322
229 0.001258
230 0.001298
231 0.001307
232 0.001264
233 0.001232
234 0.001235
235 0.001163
236 0.001115
237 0.001108
238 0.001121
239 0.001115
240 0.001194
241 0.001266
242 0.001273
243 0.001315
244 0.001335
245 0.001316
246 0.001261
247 0.001244
248 0.001174
249 0.001171
250 0.001163
251 0.001120
252 0.001053
253 0.001026
254 0.001023
255 0.001041
256 0.001058
257 0.001103
258 0.001140
259 0.001213
260 0.001333
261 0.001403
262 0.001387
263 0.001359
264 0.001394
265 0.001346
266 0.001316
267 0.001319
268 0.001356
269 0.001332
270 0.001292
271 0.001235
272 0.001196
273 0.001164
274 0.001045
275 0.000889
276 0.000788
277 0.000733
278 0.000688
279 0.000617
280 0.000566
281 0.000580
282 0.000645
283 0.000714
284 0.000742
285 0.000775
286 0.000787
287 0.000773
288 0.000697
289 0.000593
290 0.000553
291 0.000456
292 0.000357
293 0.000269
294 0.000241
295 0.000156
296 0.000114
297 0.000130
298 0.000190
299 0.000223
300 0.000222
301 0.000246
302 0.000222
303 0.000095
304 0.000032
305 -0.000002
306 -0.000025
307 -0.000066
308 -0.000043
309 -0.000013
310 0.000038
311 0.000167
312 0.000288
313 0.000332
314 0.000379
315 0.000460
316 0.000529
317 0.000548
318 0.000543
319 0.000521
320 0.000498
321 0.000432
322 0.000331
323 0.000270
324 0.000304
325 0.000342
326 0.000288
327 0.000313
328 0.000386
329 0.000479
330 0.000512
331 0.000522
332 0.000524
333 0.000486
334 0.000467
335 0.000461
336 0.000386
337 0.000297
338 0.000249
339 0.000217
340 0.000176
341 0.000170
342 0.000146
343 0.000176
344 0.000268
345 0.000366
346 0.000454
347 0.000535
348 0.000595
349 0.000625
350 0.000591
351 0.000569
352 0.000528
353 0.000524
354 0.000599
355 0.000617
356 0.000654
357 0.000743
358 0.000850
359 0.000903
360 0.000913
361 0.000882
362 0.000885
363 0.000903
364 0.000894
365 0.000870
366 0.000791
367 0.000724
368 0.000725
369 0.000689
370 0.000676
371 0.000653
372 0.000625
373 0.000615
374 0.000604
375 0.000606
376 0.000640
377 0.000628
378 0.000606
379 0.000572
380 0.000550
381 0.000604
382 0.000612
383 0.000599
384 0.000563
385 0.000545
386 0.000506
387 0.000435
388 0.000355
389 0.000228
390 0.000152
391 0.000113
392 0.000094
393 0.000052
394 0.000076
395 0.000087
396 0.000121
397 0.000072
398 0.000070
399 0.000072
400 0.000123
401 0.000112
402 0.000049
403 0.000061
404 0.000037
405 0.000010
406 -0.000034
407 -0.000050
408 -0.000055
409 -0.000025
410 0.000028
411 0.000070
412 0.000081
413 0.000038
414 0.000017
415 -0.000021
416 -0.000019
417 -0.000017
418 -0.000067
419 -0.000086
420 -0.000105
421 -0.000110
422 -0.000100
423 -0.000073
424 -0.000053
425 -0.000027
426 -0.000017
427 -0.000027
428 -0.000021
429 -0.000024
430 -0.000010
431 -0.000030
432 -0.000025
433 0.000033
434 0.000026
435 0.000012
436 0.000029
437 0.000052
438 0.000119
439 0.000169
440 0.000217
441 0.000305
442 0.000388
443 0.000442
444 0.000431
445 0.000476
446 0.000470
447 0.000447
448 0.000441
449 0.000443
450 0.000382
451 0.000290
452 0.000266
453 0.000212
454 0.000196
455 0.000215
456 0.000272
457 0.000334
458 0.000403
459 0.000424
460 0.000466
461 0.000494
462 0.000586
463 0.000622
464 0.000592
465 0.000512
466 0.000456
467 0.000377
468 0.000335
469 0.000306
470 0.000277
471 0.000363
472 0.000428
473 0.000461
474 0.000550
475 0.000662
476 0.000693
477 0.000709
478 0.000693
479 0.000745
480 0.000788
481 0.000804
482 0.000741
483 0.000707
484 0.000716
485 0.000727
486 0.000709
487 0.000777
488 0.000811
489 0.000847
490 0.000910
491 0.000917
492 0.000935
493 0.001009
494 0.001049
495 0.001059
496 0.001002
497 0.001006
498 0.001006
499 0.000980
500 0.000976
501 0.001017
502 0.001036
503 0.001048
504 0.001116
505 0.001174
506 0.001175
507 0.001158
508 0.001144
509 0.001137
510 0.001077
511 0.001011
512 0.000901
513 0.000788
514 0.000663
515 0.000557
516 0.000444
517 0.000343
518 0.000315
519 0.000285
520 0.000272
521 0.000233
522 0.000229
523 0.000229
524 0.000216
525 0.000129
526 0.000041
527 0.000015
528 -0.000001
529 -0.000064
530 -0.000129
531 -0.000139
532 -0.000129
533 -0.000111
534 -0.000055
535 -0.000029
536 -0.000030
537 -0.000054
538 -0.000034
539 -0.000034
540 -0.000066
541 -0.000100
542 -0.000103
543 -0.000162
544 -0.000181
545 -0.000169
546 -0.000101
547 -0.000023
548 0.000037
549 0.000067
550 0.000116
551 0.000200
552 0.000232
553 0.000237
554 0.000254
555 0.000286
556 0.000282
557 0.000244
558 0.000241
559 0.000262
560 0.000294
561 0.000323
562 0.000353
563 0.000375
564 0.000381
565 0.000392
566 0.000407
567 0.000407
568 0.000388
569 0.000379
570 0.000358
571 0.000348
572 0.000373
573 0.000380
574 0.000350
575 0.000366
576 0.000355
577 0.000343
578 0.000344
579 0.000404
580 0.000453
581 0.000515
582 0.000560
583 0.000581
584 0.000614
585 0.000674
586 0.000644
587 0.000621
588 0.000616
589 0.000627
590 0.000569
591 0.000525
592 0.000468
593 0.000433
594 0.000444
595 0.000474
596 0.000531
597 0.000618
598 0.000684
599 0.000683
600 0.000643
601 0.000638
602 0.000645
603 0.000657
604 0.000630
605 0.000609
606 0.000573
607 0.000542
608 0.000525
609 0.000515
610 0.000530
611 0.000527
612 0.000533
613 0.000527
614 0.000508
615 0.000495
616 0.000483
617 0.000455
618 0.000436
619 0.000416
620 0.000363
621 0.000333
622 0.000308
623 0.000286
624 0.000241
625 0.000200
626 0.000188
627 0.000194
628 0.000221
629 0.000257
630 0.000246
631 0.000229
632 0.000200
633 0.000183
634 0.000172
635 0.000161
636 0.000185
637 0.000229
638 0.000221
639 0.000173
640 0.000140
641 0.000127
642 0.000134
643 0.000158
644 0.000191
645 0.000220
646 0.000211
647 0.000223
648 0.000213
649 0.000220
650 0.000192
651 0.000181
652 0.000211
653 0.000165
654 0.000113
655 0.000083
656 0.000063
657 0.000032
658 0.000083
659 0.000127
660 0.000146
661 0.000137
662 0.000147
663 0.000152
664 0.000142
665 0.000106
666 0.000081
667 0.000039
668 0.000030
669 0.000015
670 -0.000015
671 -0.000061
672 -0.000104
673 -0.000127
674 -0.000151
675 -0.000148
676 -0.000154
677 -0.000184
678 -0.000192
679 -0.000231
680 -0.000270
681 -0.000311
682 -0.000275
683 -0.000238
684 -0.000234
685 -0.000266
686 -0.000254
687 -0.000233
688 -0.000238
689 -0.000255
690 -0.000237
691 -0.000259
692 -0.000249
693 -0.000212
694 -0.000176
695 -0.000165
696 -0.000155
697 -0.000101
698 -0.000065
699 -0.000020
700 0.000047
701 0.000073
702 0.000128
703 0.000196
704 0.000254
705 0.000308
706 0.000336
707 0.000377
708 0.000388
709 0.000404
710 0.000428
711 0.000468
712 0.000497
713 0.000514
714 0.000513
715 0.000551
716 0.000553
717 0.000551
718 0.000566
719 0.000566
720 0.000529
721 0.000543
722 0.000602
723 0.000631
724 0.000674
725 0.000711
726 0.000722
727 0.000738
728 0.000751
729 0.000747
730 0.000712
731 0.000686
732 0.000674
733 0.000632
734 0.000580
735 0.000549
736 0.000529
737 0.000471
738 0.000410
739 0.000404
740 0.000404
741 0.000399
742 0.000394
743 0.000380
744 0.000389
745 0.000398
746 0.000379
747 0.000375
748 0.000379
749 0.000383
750 0.000394
751 0.000412
752 0.000415
753 0.000409
754 0.000384
755 0.000323
756 0.000302
757 0.000332
758 0.000350
759 0.000363
760 0.000344
761 0.000349
762 0.000375
763 0.000391
764 0.000429
765 0.000469
766 0.000477
767 0.000441
768 0.000396
769 0.000360
770 0.000322
771 0.000299
772 0.000284
773 0.000268
774 0.000242
775 0.000209
776 0.000171
777 0.000170
778 0.000175
779 0.000173
780 0.000162
781 0.000144
782 0.000114
783 0.000047
784 -0.000015
785 -0.000062
786 -0.000089
787 -0.000098
788 -0.000128
789 -0.000128
790 -0.000150
791 -0.000132
792 -0.000096
793 -0.000078
794 -0.000071
795 -0.000055
796 -0.000006
797 0.000017
798 0.000001
799 0.000020
800 0.000003
801 -0.000014
802 -0.000013
803 0.000008
804 0.000045
805 0.000084
806 0.000152
807 0.000182
808 0.000200
809 0.000244
