# i correlation
1 0.004865
2 0.004065
3 0.003308
4 0.002821
5 0.002461
6 0.002080
7 0.001843
8 0.001724
9 0.001694
10 0.001589
11 0.001523
12 0.001472
13 0.001449
14 0.001426
15 0.001365
16 0.001303
17 0.001304
18 0.001211
19 0.001165
20 0.001218
21 0.001293
22 0.001271
23 0.001103
24 0.000892
25 0.000678
26 0.000563
27 0.000450
28 0.000371
29 0.000405
30 0.000467
31 0.000586
32 0.000667
33 0.000798
34 0.000905
35 0.001058
36 0.001116
37 0.001149
38 0.001123
39 0.001017
40 0.000980
41 0.000955
42 0.000932
43 0.000907
44 0.000925
45 0.000847
46 0.000819
47 0.000786
48 0.000735
49 0.000700
50 0.000712
51 0.000720
52 0.000789
53 0.000814
54 0.000812
55 0.000946
56 0.001030
57 0.001180
58 0.001293
59 0.001281
60 0.001197
61 0.001111
62 0.000980
63 0.000839
64 0.000830
65 0.000898
66 0.001045
67 0.001184
68 0.001294
69 0.001379
70 0.001479
71 0.001549
72 0.001547
73 0.001553
74 0.001537
75 0.001522
76 0.001494
77 0.001463
78 0.001485
79 0.001524
80 0.001485
81 0.001395
82 0.001321
83 0.001248
84 0.001242
85 0.001180
86 0.001152
87 0.001035
88 0.000962
89 0.000815
90 0.000661
91 0.000588
92 0.000585
93 0.000590
94 0.000577
95 0.000692
96 0.000879
97 0.001071
98 0.001093
99 0.001123
100 0.001160
101 0.001170
102 0.001164
103 0.001098
104 0.001056
105 0.001001
106 0.000926
107 0.000819
108 0.000841
109 0.000810
110 0.000805
111 0.000728
112 0.000633
113 0.000617
114 0.000634
115 0.000691
116 0.000707
117 0.000825
118 0.000880
119 0.000933
120 0.000875
121 0.000786
122 0.000755
123 0.000684
124 0.000606
125 0.000595
126 0.000620
127 0.000712
128 0.000752
129 0.000752
130 0.000840
131 0.000885
132 0.000935
133 0.000878
134 0.000796
135 0.000771
136 0.000703
137 0.000628
138 0.000567
139 0.000564
140 0.000595
141 0.000685
142 0.000711
143 0.000794
144 0.000835
145 0.000805
146 0.000738
147 0.000653
148 0.000619
149 0.000570
150 0.000513
151 0.000489
152 0.000571
153 0.000663
154 0.000724
155 0.000705
156 0.000664
157 0.000638
158 0.000588
159 0.000545
160 0.000434
161 0.000419
162 0.000410
163 0.000406
164 0.000433
165 0.000429
166 0.000456
167 0.000438
168 0.000385
169 0.000416
170 0.000468
171 0.000490
172 0.000468
173 0.000452
174 0.000471
175 0.000584
176 0.000679
177 0.000734
178 0.000736
179 0.000739
180 0.000733
181 0.000707
182 0.000650
183 0.000666
184 0.000787
185 0.000888
186 0.000888
187 0.000789
188 0.000729
189 0.000719
190 0.000725
191 0.000644
192 0.000624
193 0.000636
194 0.000648
195 0.000544
196 0.000431
197 0.000311
198 0.000293
199 0.000361
200 0.000441
201 0.000552
202 0.000601
203 0.000619
204 0.000568
205 0.000543
206 0.000542
207 0.000513
208 0.000467
209 0.000402
210 0.000383
211 0.000399
212 0.000355
213 0.000377
214 0.000440
215 0.000437
216 0.000464
217 0.000408
218 0.000334
219 0.000338
220 0.000306
221 0.000290
222 0.000328
223 0.000410
224 0.000363
225 0.000328
226 0.000293
227 0.000405
228 0.000527
229 0.000593
230 0.000694
231 0.000751
232 0.000800
233 0.000780
234 0.000734
235 0.000700
236 0.000687
237 0.000721
238 0.000705
239 0.000722
240 0.000791
241 0.000905
242 0.000996
243 0.001047
244 0.001034
245 0.000995
246 0.000905
247 0.000795
248 0.000721
249 0.000678
250 0.000669
251 0.000724
252 0.000789
253 0.000786
254 0.000809
255 0.000740
256 0.000690
257 0.000668
258 0.000768
259 0.000834
260 0.000950
261 0.001042
262 0.001116
263 0.001162
264 0.001102
265 0.000977
266 0.000828
267 0.000675
268 0.000496
269 0.000371
270 0.000201
271 0.000117
272 0.000098
273 0.000103
274 0.000160
275 0.000214
276 0.000211
277 0.000243
278 0.000276
279 0.000342
280 0.000414
281 0.000476
282 0.000465
283 0.000405
284 0.000350
285 0.000343
286 0.000304
287 0.000324
288 0.000341
289 0.000360
290 0.000324
291 0.000236
292 0.000173
293 0.000134
294 0.000236
295 0.000295
296 0.000378
297 0.000433
298 0.000599
299 0.000720
300 0.000786
301 0.000754
302 0.000785
303 0.000842
304 0.000824
305 0.000770
306 0.000675
307 0.000730
308 0.000736
309 0.000763
310 0.000799
311 0.000890
312 0.000959
313 0.000999
314 0.000971
315 0.000959
316 0.000949
317 0.000950
318 0.000947
319 0.000981
320 0.000999
321 0.000969
322 0.000906
323 0.000796
324 0.000722
325 0.000661
326 0.000545
327 0.000531
328 0.000535
329 0.000621
330 0.000724
331 0.000770
332 0.000785
333 0.000797
334 0.000782
335 0.000681
336 0.000657
337 0.000652
338 0.000672
339 0.000621
340 0.000613
341 0.000573
342 0.000558
343 0.000545
344 0.000574
345 0.000623
346 0.000641
347 0.000663
348 0.000616
349 0.000575
350 0.000556
351 0.000541
352 0.000485
353 0.000416
354 0.000407
355 0.000437
356 0.000435
357 0.000454
358 0.000502
359 0.000589
360 0.000668
361 0.000697
362 0.000780
363 0.000752
364 0.000769
365 0.000761
366 0.000756
367 0.000744
368 0.000633
369 0.000576
370 0.000511
371 0.000480
372 0.000385
373 0.000343
374 0.000339
375 0.000371
376 0.000380
377 0.000425
378 0.000458
379 0.000517
380 0.000577
381 0.000554
382 0.000564
383 0.000552
384 0.000592
385 0.000573
386 0.000613
387 0.000602
388 0.000612
389 0.000669
390 0.000629
391 0.000603
392 0.000560
393 0.000529
394 0.000468
395 0.000482
396 0.000540
397 0.000604
398 0.000663
399 0.000722
400 0.000720
401 0.000661
402 0.000608
403 0.000512
404 0.000479
405 0.000436
406 0.000472
407 0.000556
408 0.000636
409 0.000680
410 0.000722
411 0.000716
412 0.000705
413 0.000679
414 0.000666
415 0.000749
416 0.000809
417 0.000863
418 0.000877
419 0.000876
420 0.000819
421 0.000747
422 0.000693
423 0.000611
424 0.000524
425 0.000444
426 0.000419
427 0.000420
428 0.000485
429 0.000561
430 0.000670
431 0.000701
432 0.000732
433 0.000741
434 0.000695
435 0.000701
436 0.000711
437 0.000733
438 0.000736
439 0.000698
440 0.000637
441 0.000585
442 0.000614
443 0.000607
444 0.000664
445 0.000654
446 0.000692
447 0.000768
448 0.000828
449 0.000831
450 0.000815
451 0.000852
452 0.000872
453 0.000916
454 0.000887
455 0.000790
456 0.000699
457 0.000571
458 0.000481
459 0.000458
460 0.000483
461 0.000503
462 0.000515
463 0.000542
464 0.000576
465 0.000620
466 0.000606
467 0.000551
468 0.000544
469 0.000537
470 0.000542
471 0.000500
472 0.000458
473 0.000475
474 0.000478
475 0.000481
476 0.000468
477 0.000463
478 0.000436
479 0.000416
480 0.000351
481 0.000321
482 0.000346
483 0.000387
484 0.000412
485 0.000409
486 0.000447
487 0.000482
488 0.000551
489 0.000592
490 0.000595
491 0.000614
492 0.000662
493 0.000636
494 0.000649
495 0.000618
496 0.000622
497 0.000656
498 0.000592
499 0.000550
500 0.000437
501 0.000356
502 0.000312
503 0.000350
504 0.000398
505 0.000382
506 0.000393
507 0.000409
508 0.000476
509 0.000483
510 0.000423
511 0.000404
512 0.000382
513 0.000384
514 0.000436
515 0.000454
516 0.000464
517 0.000449
518 0.000497
519 0.000544
520 0.000553
521 0.000589
522 0.000601
523 0.000678
524 0.000679
525 0.000673
526 0.000644
527 0.000618
528 0.000579
529 0.000548
530 0.000587
531 0.000576
532 0.000547
533 0.000478
534 0.000417
535 0.000393
536 0.000341
537 0.000324
538 0.000308
539 0.000308
540 0.000377
541 0.000419
542 0.000438
543 0.000417
544 0.000451
545 0.000441
546 0.000463
547 0.000491
548 0.000509
549 0.000540
550 0.000610
551 0.000674
552 0.000735
553 0.000691
554 0.000626
555 0.000540
556 0.000465
557 0.000397
558 0.000346
559 0.000314
560 0.000364
561 0.000486
562 0.000626
563 0.000731
564 0.000803
565 0.000823
566 0.000743
567 0.000673
568 0.000588
569 0.000525
570 0.000393
571 0.000284
572 0.000167
573 0.000152
574 0.000140
575 0.000149
576 0.000111
577 0.000063
578 0.000023
579 -0.000005
580 -0.000039
581 -0.000025
582 0.000002
583 0.000008
584 0.000022
585 0.000073
586 0.000117
587 0.000170
588 0.000193
589 0.000194
590 0.000186
591 0.000176
592 0.000267
593 0.000306
594 0.000328
595 0.000304
596 0.000322
597 0.000337
598 0.000341
599 0.000362
600 0.000345
601 0.000361
602 0.000357
603 0.000354
604 0.000324
605 0.000318
606 0.000312
607 0.000300
608 0.000322
609 0.000377
610 0.000407
611 0.000367
612 0.000312
613 0.000266
614 0.000192
615 0.000130
616 0.000071
617 0.000015
618 0.000033
619 0.000104
620 0.000164
621 0.000219
622 0.000354
623 0.000473
624 0.000537
625 0.000506
626 0.000445
627 0.000409
628 0.000385
629 0.000365
630 0.000347
631 0.000336
632 0.000346
633 0.000363
634 0.000378
635 0.000352
636 0.000311
637 0.000256
638 0.000227
639 0.000211
640 0.000214
641 0.000216
642 0.000220
643 0.000236
644 0.000262
645 0.000271
646 0.000263
647 0.000275
648 0.000265
649 0.000299
650 0.000323
651 0.000324
652 0.000284
653 0.000285
654 0.000280
655 0.000278
656 0.000230
657 0.000212
658 0.000205
659 0.000246
660 0.000306
661 0.000367
662 0.000426
663 0.000443
664 0.000470
665 0.000498
666 0.000514
667 0.000522
668 0.000496
669 0.000482
670 0.000474
671 0.000440
672 0.000385
673 0.000343
674 0.000343
675 0.000328
676 0.000300
677 0.000320
678 0.000340
679 0.000348
680 0.000351
681 0.000361
682 0.000369
683 0.000362
684 0.000352
685 0.000291
686 0.000218
687 0.000163
688 0.000151
689 0.000216
690 0.000274
691 0.000346
692 0.000412
693 0.000458
694 0.000510
695 0.000514
696 0.000529
697 0.000513
698 0.000482
699 0.000437
700 0.000391
701 0.000366
702 0.000361
703 0.000369
704 0.000375
705 0.000394
706 0.000397
707 0.000393
708 0.000359
709 0.000363
710 0.000416
711 0.000488
712 0.000504
713 0.000530
714 0.000549
715 0.000564
716 0.000518
717 0.000465
718 0.000376
719 0.000311
720 0.000235
721 0.000168
722 0.000128
723 0.000063
724 0.000060
725 0.000067
726 0.000116
727 0.000190
728 0.000231
729 0.000274
730 0.000310
731 0.000369
732 0.000422
733 0.000469
734 0.000501
735 0.000516
736 0.000538
737 0.000518
738 0.000506
739 0.000505
740 0.000497
741 0.000510
742 0.000477
743 0.000440
744 0.000417
745 0.000403
746 0.000464
747 0.000488
748 0.000535
749 0.000532
750 0.000558
751 0.000602
752 0.000616
753 0.000621
754 0.000616
755 0.000618
756 0.000561
757 0.000506
758 0.000436
759 0.000369
760 0.000306
761 0.000242
762 0.000188
763 0.000188
764 0.000150
765 0.000132
766 0.000136
767 0.000166
768 0.000226
769 0.000262
770 0.000273
771 0.000303
772 0.000351
773 0.000376
774 0.000380
775 0.000355
776 0.000342
777 0.000342
778 0.000345
779 0.000323
780 0.000300
781 0.000298
782 0.000321
783 0.000316
784 0.000281
785 0.000261
786 0.000261
787 0.000275
788 0.000277
789 0.000266
790 0.000267
791 0.000279
792 0.000312
793 0.000359
794 0.000395
795 0.000386
796 0.000368
797 0.000314
798 0.000271
799 0.000239
800 0.000195
801 0.000131
802 0.000087
803 0.000078
804 0.000077
805 0.000074
806 0.000088
807 0.000132
808 0.000192
809 0.000243
