# i correlation
1 0.005068
2 0.004457
3 0.003947
4 0.003553
5 0.003221
6 0.003007
7 0.002919
8 0.002820
9 0.002741
10 0.002657
11 0.002635
12 0.002562
13 0.002464
14 0.002331
15 0.002167
16 0.001968
17 0.001869
18 0.001815
19 0.001754
20 0.001640
21 0.001593
22 0.001546
23 0.001478
24 0.001464
25 0.001480
26 0.001354
27 0.001285
28 0.001282
29 0.001240
30 0.001157
31 0.001160
32 0.001176
33 0.001172
34 0.001086
35 0.000993
36 0.001013
37 0.001056
38 0.001150
39 0.001141
40 0.001131
41 0.001092
42 0.001140
43 0.001181
44 0.001200
45 0.001154
46 0.001162
47 0.001164
48 0.001089
49 0.001043
50 0.001098
51 0.001186
52 0.001266
53 0.001317
54 0.001255
55 0.001196
56 0.001153
57 0.001240
58 0.001245
59 0.001206
60 0.001161
61 0.001180
62 0.001107
63 0.001087
64 0.001039
65 0.001014
66 0.001004
67 0.000979
68 0.001053
69 0.001165
70 0.001240
71 0.001342
72 0.001437
73 0.001424
74 0.001345
75 0.001288
76 0.001186
77 0.001124
78 0.001178
79 0.001268
80 0.001321
81 0.001378
82 0.001470
83 0.001487
84 0.001517
85 0.001540
86 0.001566
87 0.001515
88 0.001403
89 0.001332
90 0.001361
91 0.001368
92 0.001294
93 0.001244
94 0.001231
95 0.001197
96 0.001210
97 0.001226
98 0.001232
99 0.001234
100 0.001225
101 0.001206
102 0.001193
103 0.001141
104 0.001120
105 0.001087
106 0.001030
107 0.000960
108 0.000925
109 0.000875
110 0.000873
111 0.000871
112 0.000820
113 0.000822
114 0.000803
115 0.000872
116 0.000860
117 0.000858
118 0.000889
119 0.000889
120 0.000862
121 0.000861
122 0.000891
123 0.000905
124 0.000892
125 0.000869
126 0.000831
127 0.000684
128 0.000590
129 0.000501
130 0.000456
131 0.000442
132 0.000449
133 0.000431
134 0.000406
135 0.000377
136 0.000371
137 0.000328
138 0.000352
139 0.000379
140 0.000382
141 0.000364
142 0.000284
143 0.000288
144 0.000302
145 0.000363
146 0.000435
147 0.000483
148 0.000526
149 0.000468
150 0.000415
151 0.000412
152 0.000346
153 0.000389
154 0.000457
155 0.000526
156 0.000572
157 0.000669
158 0.000739
159 0.000797
160 0.000877
161 0.000930
162 0.000994
163 0.001025
164 0.000962
165 0.000924
166 0.000857
167 0.000820
168 0.000839
169 0.000935
170 0.001129
171 0.001247
172 0.001309
173 0.001353
174 0.001349
175 0.001293
176 0.001203
177 0.001038
178 0.000961
179 0.000898
180 0.000781
181 0.000695
182 0.000678
183 0.000663
184 0.000624
185 0.000546
186 0.000487
187 0.000517
188 0.000535
189 0.000561
190 0.000604
191 0.000609
192 0.000602
193 0.000548
194 0.000535
195 0.000518
196 0.000502
197 0.000492
198 0.000520
199 0.000550
200 0.000462
201 0.000411
202 0.000359
203 0.000314
204 0.000355
205 0.000312
206 0.000271
207 0.000323
208 0.000361
209 0.000368
210 0.000369
211 0.000382
212 0.000414
213 0.000416
214 0.000422
215 0.000459
216 0.000565
217 0.000639
218 0.000687
219 0.000708
220 0.000714
221 0.000715
222 0.000654
223 0.000632
224 0.000598
225 0.000595
226 0.000618
227 0.000586
228 0.000626
229 0.000600
230 0.000624
231 0.000694
232 0.000788
233 0.000771
234 0.000671
235 0.000629
236 0.000626
237 0.000591
238 0.000504
239 0.000478
240 0.000455
241 0.000535
242 0.000652
243 0.000751
244 0.000810
245 0.000883
246 0.000885
247 0.000844
248 0.000781
249 0.000734
250 0.000704
251 0.000683
252 0.000659
253 0.000682
254 0.000790
255 0.000850
256 0.000935
257 0.000918
258 0.000859
259 0.000798
260 0.000759
261 0.000725
262 0.000704
263 0.000673
264 0.000670
265 0.000658
266 0.000536
267 0.000434
268 0.000440
269 0.000485
270 0.000564
271 0.000541
272 0.000556
273 0.000556
274 0.000566
275 0.000577
276 0.000569
277 0.000564
278 0.000528
279 0.000550
280 0.000547
281 0.000540
282 0.000480
283 0.000472
284 0.000453
285 0.000405
286 0.000374
287 0.000350
288 0.000339
289 0.000367
290 0.000380
291 0.000301
292 0.000230
293 0.000234
294 0.000284
295 0.000320
296 0.000283
297 0.000308
298 0.000331
299 0.000297
300 0.000226
301 0.000204
302 0.000187
303 0.000119
304 0.000076
305 0.000036
306 0.000035
307 -0.000008
308 -0.000047
309 -0.000163
310 -0.000228
311 -0.000283
312 -0.000282
313 -0.000326
314 -0.000282
315 -0.000224
316 -0.000182
317 -0.000043
318 0.000045
319 0.000101
320 0.000135
321 0.000093
322 0.000050
323 0.000054
324 0.000006
325 -0.000065
326 -0.000083
327 -0.000030
328 -0.000005
329 0.000044
330 0.000115
331 0.000193
332 0.000257
333 0.000338
334 0.000374
335 0.000394
336 0.000457
337 0.000481
338 0.000491
339 0.000441
340 0.000373
341 0.000364
342 0.000350
343 0.000365
344 0.000377
345 0.000477
346 0.000477
347 0.000457
348 0.000399
349 0.000333
350 0.000317
351 0.000303
352 0.000326
353 0.000298
354 0.000297
355 0.000266
356 0.000288
357 0.000260
358 0.000338
359 0.000342
360 0.000297
361 0.000304
362 0.000287
363 0.000234
364 0.000243
365 0.000242
366 0.000227
367 0.000253
368 0.000167
369 0.000207
370 0.000225
371 0.000230
372 0.000177
373 0.000132
374 0.000108
375 0.000117
376 0.000157
377 0.000231
378 0.000262
379 0.000297
380 0.000323
381 0.000311
382 0.000264
383 0.000266
384 0.000252
385 0.000185
386 0.000181
387 0.000191
388 0.000244
389 0.000343
390 0.000408
391 0.000427
392 0.000398
393 0.000288
394 0.000206
395 0.000116
396 0.000116
397 0.000093
398 0.000096
399 0.000118
400 0.000107
401 0.000106
402 0.000146
403 0.000249
404 0.000277
405 0.000278
406 0.000233
407 0.000197
408 0.000201
409 0.000209
410 0.000210
411 0.000259
412 0.000259
413 0.000270
414 0.000293
415 0.000410
416 0.000463
417 0.000518
418 0.000573
419 0.000602
420 0.000613
421 0.000589
422 0.000565
423 0.000529
424 0.000461
425 0.000417
426 0.000387
427 0.000368
428 0.000415
429 0.000433
430 0.000517
431 0.000513
432 0.000523
433 0.000547
434 0.000580
435 0.000635
436 0.000710
437 0.000753
438 0.000784
439 0.000808
440 0.000894
441 0.001004
442 0.001029
443 0.001111
444 0.001159
445 0.001183
446 0.001167
447 0.001117
448 0.001100
449 0.001125
450 0.001090
451 0.001115
452 0.001142
453 0.001152
454 0.001113
455 0.001084
456 0.001027
457 0.000991
458 0.000962
459 0.000899
460 0.000885
461 0.000890
462 0.000922
463 0.000937
464 0.000908
465 0.000827
466 0.000783
467 0.000727
468 0.000690
469 0.000695
470 0.000613
471 0.000542
472 0.000513
473 0.000525
474 0.000550
475 0.000526
476 0.000494
477 0.000486
478 0.000458
479 0.000393
480 0.000343
481 0.000309
482 0.000278
483 0.000225
484 0.000181
485 0.000124
486 0.000091
487 0.000105
488 0.000137
489 0.000177
490 0.000205
491 0.000251
492 0.000288
493 0.000339
494 0.000377
495 0.000407
496 0.000431
497 0.000448
498 0.000494
499 0.000487
500 0.000444
501 0.000454
502 0.000501
503 0.000488
504 0.000513
505 0.000566
506 0.000640
507 0.000706
508 0.000741
509 0.000812
510 0.000833
511 0.000828
512 0.000832
513 0.000784
514 0.000772
515 0.000835
516 0.000899
517 0.000877
518 0.000841
519 0.000865
520 0.000867
521 0.000869
522 0.000847
523 0.000795
524 0.000750
525 0.000667
526 0.000648
527 0.000649
528 0.000641
529 0.000643
530 0.000643
531 0.000620
532 0.000573
533 0.000512
534 0.000512
535 0.000530
536 0.000522
537 0.000560
538 0.000540
539 0.000549
540 0.000581
541 0.000568
542 0.000502
543 0.000437
544 0.000397
545 0.000388
546 0.000328
547 0.000311
548 0.000301
549 0.000331
550 0.000302
551 0.000295
552 0.000281
553 0.000296
554 0.000305
555 0.000238
556 0.000198
557 0.000115
558 0.000043
559 0.000052
560 0.000062
561 0.000086
562 0.000108
563 0.000131
564 0.000156
565 0.000119
566 0.000166
567 0.000175
568 0.000168
569 0.000143
570 0.000105
571 0.000055
572 -0.000006
573 0.000011
574 0.000023
575 0.000006
576 -0.000008
577 -0.000022
578 -0.000003
579 -0.000001
580 0.000016
581 0.000021
582 0.000025
583 0.000002
584 -0.000008
585 -0.000022
586 -0.000127
587 -0.000150
588 -0.000123
589 -0.000089
590 -0.000072
591 -0.000048
592 0.000010
593 0.000034
594 0.000053
595 0.000028
596 -0.000012
597 -0.000048
598 -0.000076
599 -0.000069
600 -0.000066
601 -0.000038
602 -0.000026
603 -0.000035
604 -0.000088
605 -0.000144
606 -0.000086
607 -0.000025
608 0.000021
609 0.000049
610 0.000078
611 0.000071
612 0.000084
613 0.000128
614 0.000168
615 0.000187
616 0.000201
617 0.000212
618 0.000198
619 0.000189
620 0.000231
621 0.000250
622 0.000263
623 0.000243
624 0.000245
625 0.000212
626 0.000157
627 0.000133
628 0.000104
629 0.000073
630 0.000029
631 0.000060
632 0.000059
633 0.000029
634 0.000048
635 0.000093
636 0.000085
637 0.000044
638 0.000003
639 0.000009
640 -0.000011
641 -0.000050
642 -0.000062
643 -0.000102
644 -0.000153
645 -0.000167
646 -0.000208
647 -0.000225
648 -0.000266
649 -0.000327
650 -0.000398
651 -0.000428
652 -0.000450
653 -0.000409
654 -0.000384
655 -0.000374
656 -0.000366
657 -0.000334
658 -0.000333
659 -0.000268
660 -0.000186
661 -0.000145
662 -0.000088
663 -0.000060
664 -0.000041
665 -0.000045
666 -0.000040
667 0.000011
668 0.000059
669 0.000066
670 0.000055
671 0.000073
672 0.000076
673 0.000084
674 0.000065
675 0.000067
676 0.000054
677 0.000050
678 0.000061
679 0.000061
680 0.000037
681 0.000032
682 0.000026
683 -0.000019
684 -0.000031
685 0.000012
686 0.000070
687 0.000108
688 0.000134
689 0.000135
690 0.000127
691 0.000087
692 0.000088
693 0.000093
694 0.000115
695 0.000125
696 0.000111
697 0.000115
698 0.000111
699 0.000127
700 0.000166
701 0.000163
702 0.000131
703 0.000092
704 0.000071
705 0.000073
706 0.000094
707 0.000084
708 0.000051
709 0.000029
710 0.000044
711 0.000039
712 0.000022
713 -0.000014
714 -0.000022
715 -0.000052
716 -0.000093
717 -0.000120
718 -0.000131
719 -0.000160
720 -0.000194
721 -0.000235
722 -0.000301
723 -0.000343
724 -0.000413
725 -0.000475
726 -0.000503
727 -0.000562
728 -0.000568
729 -0.000568
730 -0.000567
731 -0.000578
732 -0.000582
733 -0.000596
734 -0.000613
735 -0.000591
736 -0.000596
737 -0.000583
738 -0.000562
739 -0.000550
740 -0.000548
741 -0.000542
742 -0.000521
743 -0.000521
744 -0.000547
745 -0.000550
746 -0.000541
747 -0.000509
748 -0.000494
749 -0.000494
750 -0.000483
751 -0.000481
752 -0.000479
753 -0.000462
754 -0.000430
755 -0.000417
756 -0.000425
757 -0.000416
758 -0.000399
759 -0.000397
760 -0.000391
761 -0.000381
762 -0.000375
763 -0.000344
764 -0.000315
765 -0.000274
766 -0.000260
767 -0.000265
768 -0.000238
769 -0.000241
770 -0.000257
771 -0.000274
772 -0.000254
773 -0.000200
774 -0.000163
775 -0.000157
776 -0.000126
777 -0.000110
778 -0.000126
779 -0.000110
780 -0.000080
781 -0.000063
782 -0.000051
783 -0.000035
784 -0.000004
785 0.000011
786 0.000022
787 0.000013
788 -0.000004
789 -0.000011
790 -0.000023
791 -0.000029
792 -0.000005
793 0.000016
794 0.000020
795 0.000014
796 0.000016
797 0.000012
798 0.000005
799 0.000028
800 0.000028
801 0.000027
802 -0.000007
803 -0.000048
804 -0.000081
805 -0.000079
806 -0.000098
807 -0.000104
808 -0.000109
809 -0.000118
