# i correlation
1 0.005586
2 0.004956
3 0.004365
4 0.003870
5 0.003503
6 0.003162
7 0.002918
8 0.002695
9 0.002499
10 0.002327
11 0.002206
12 0.002021
13 0.001901
14 0.001782
15 0.001698
16 0.001676
17 0.001649
18 0.001664
19 0.001715
20 0.001833
21 0.001879
22 0.001908
23 0.001954
24 0.001981
25 0.001979
26 0.001866
27 0.001822
28 0.001857
29 0.001888
30 0.001854
31 0.001717
32 0.001610
33 0.001499
34 0.001366
35 0.001317
36 0.001342
37 0.001334
38 0.001345
39 0.001349
40 0.001319
41 0.001308
42 0.001303
43 0.001397
44 0.001449
45 0.001421
46 0.001464
47 0.001565
48 0.001659
49 0.001757
50 0.001810
51 0.001774
52 0.001767
53 0.001746
54 0.001698
55 0.001533
56 0.001384
57 0.001237
58 0.001184
59 0.001087
60 0.001000
61 0.000996
62 0.000918
63 0.000889
64 0.000826
65 0.000784
66 0.000754
67 0.000732
68 0.000798
69 0.000775
70 0.000742
71 0.000637
72 0.000520
73 0.000401
74 0.000466
75 0.000563
76 0.000640
77 0.000702
78 0.000699
79 0.000820
80 0.000890
81 0.001015
82 0.001171
83 0.001287
84 0.001344
85 0.001387
86 0.001407
87 0.001343
88 0.001272
89 0.001169
90 0.001121
91 0.001099
92 0.001067
93 0.001027
94 0.000971
95 0.000920
96 0.000927
97 0.000994
98 0.001032
99 0.001114
100 0.001139
101 0.001157
102 0.001097
103 0.001020
104 0.000992
105 0.000968
106 0.000893
107 0.000891
108 0.000894
109 0.000870
110 0.000908
111 0.000906
112 0.000919
113 0.000841
114 0.000727
115 0.000627
116 0.000543
117 0.000477
118 0.000498
119 0.000493
120 0.000520
121 0.000560
122 0.000562
123 0.000618
124 0.000742
125 0.000813
126 0.000832
127 0.000753
128 0.000709
129 0.000743
130 0.000786
131 0.000780
132 0.000815
133 0.000824
134 0.000796
135 0.000836
136 0.000860
137 0.000861
138 0.000814
139 0.000773
140 0.000797
141 0.000700
142 0.000572
143 0.000474
144 0.000428
145 0.000513
146 0.000534
147 0.000526
148 0.000480
149 0.000511
150 0.000539
151 0.000589
152 0.000578
153 0.000664
154 0.000727
155 0.000710
156 0.000706
157 0.000612
158 0.000515
159 0.000401
160 0.000355
161 0.000352
162 0.000326
163 0.000241
164 0.000134
165 0.000058
166 -0.000002
167 -0.000055
168 -0.000095
169 -0.000136
170 -0.000195
171 -0.000246
172 -0.000288
173 -0.000267
174 -0.000188
175 -0.000096
176 -0.000003
177 0.000037
178 0.000050
179 0.000073
180 0.000136
181 0.000155
182 0.000216
183 0.000289
184 0.000342
185 0.000396
186 0.000433
187 0.000443
188 0.000417
189 0.000451
190 0.000476
191 0.000418
192 0.000358
193 0.000328
194 0.000269
195 0.000230
196 0.000123
197 0.000106
198 0.000099
199 0.000114
200 0.000156
201 0.000223
202 0.000253
203 0.000304
204 0.000397
205 0.000449
206 0.000446
207 0.000437
208 0.000408
209 0.000451
210 0.000509
211 0.000523
212 0.000490
213 0.000424
214 0.000389
215 0.000417
216 0.000343
217 0.000273
218 0.000088
219 -0.000045
220 -0.000194
221 -0.000239
222 -0.000232
223 -0.000230
224 -0.000162
225 -0.000163
226 -0.000223
227 -0.000335
228 -0.000364
229 -0.000343
230 -0.000256
231 -0.000246
232 -0.000197
233 -0.000131
234 -0.000090
235 -0.000010
236 0.000069
237 0.000201
238 0.000289
239 0.000380
240 0.000401
241 0.000388
242 0.000366
243 0.000316
244 0.000330
245 0.000347
246 0.000376
247 0.000396
248 0.000394
249 0.000358
250 0.000356
251 0.000339
252 0.000322
253 0.000362
254 0.000355
255 0.000355
256 0.000265
257 0.000206
258 0.000150
259 0.000098
260 0.000074
261 0.000034
262 -0.000001
263 -0.000053
264 -0.000160
265 -0.000182
266 -0.000295
267 -0.000381
268 -0.000432
269 -0.000463
270 -0.000541
271 -0.000599
272 -0.000643
273 -0.000674
274 -0.000726
275 -0.000729
276 -0.000712
277 -0.000714
278 -0.000692
279 -0.000669
280 -0.000645
281 -0.000637
282 -0.000660
283 -0.000655
284 -0.000666
285 -0.000615
286 -0.000552
287 -0.000476
288 -0.000445
289 -0.000417
290 -0.000389
291 -0.000345
292 -0.000319
293 -0.000305
294 -0.000362
295 -0.000489
296 -0.000558
297 -0.000615
298 -0.000610
299 -0.000615
300 -0.000541
301 -0.000491
302 -0.000479
303 -0.000515
304 -0.000543
305 -0.000515
306 -0.000503
307 -0.000476
308 -0.000453
309 -0.000369
310 -0.000369
311 -0.000334
312 -0.000348
313 -0.000375
314 -0.000410
315 -0.000488
316 -0.000505
317 -0.000611
318 -0.000732
319 -0.000855
320 -0.000958
321 -0.000952
322 -0.000956
323 -0.000962
324 -0.001018
325 -0.001001
326 -0.001020
327 -0.001002
328 -0.001002
329 -0.000908
330 -0.000750
331 -0.000619
332 -0.000570
333 -0.000456
334 -0.000267
335 -0.000147
336 -0.000005
337 0.000084
338 0.000101
339 0.000110
340 0.000106
341 0.000104
342 0.000064
343 0.000048
344 0.000057
345 0.000041
346 0.000051
347 0.000087
348 0.000032
349 -0.000003
350 -0.000051
351 -0.000061
352 -0.000102
353 -0.000160
354 -0.000128
355 -0.000074
356 -0.000041
357 -0.000032
358 -0.000022
359 -0.000030
360 -0.000015
361 -0.000073
362 -0.000133
363 -0.000175
364 -0.000193
365 -0.000193
366 -0.000222
367 -0.000269
368 -0.000283
369 -0.000269
370 -0.000227
371 -0.000268
372 -0.000249
373 -0.000258
374 -0.000237
375 -0.000200
376 -0.000216
377 -0.000174
378 -0.000239
379 -0.000266
380 -0.000327
381 -0.000439
382 -0.000542
383 -0.000581
384 -0.000563
385 -0.000554
386 -0.000461
387 -0.000429
388 -0.000354
389 -0.000348
390 -0.000318
391 -0.000311
392 -0.000311
393 -0.000299
394 -0.000331
395 -0.000321
396 -0.000325
397 -0.000279
398 -0.000272
399 -0.000236
400 -0.000244
401 -0.000267
402 -0.000284
403 -0.000396
404 -0.000476
405 -0.000520
406 -0.000565
407 -0.000605
408 -0.000630
409 -0.000675
410 -0.000685
411 -0.000715
412 -0.000727
413 -0.000709
414 -0.000679
415 -0.000694
416 -0.000710
417 -0.000755
418 -0.000727
419 -0.000675
420 -0.000660
421 -0.000585
422 -0.000490
423 -0.000412
424 -0.000390
425 -0.000382
426 -0.000299
427 -0.000259
428 -0.000236
429 -0.000179
430 -0.000137
431 -0.000133
432 -0.000139
433 -0.000154
434 -0.000150
435 -0.000118
436 -0.000093
437 -0.000022
438 0.000060
439 0.000132
440 0.000216
441 0.000273
442 0.000341
443 0.000357
444 0.000336
445 0.000345
446 0.000364
447 0.000359
448 0.000345
449 0.000370
450 0.000351
451 0.000329
452 0.000293
453 0.000175
454 0.000137
455 0.000088
456 0.000054
457 0.000019
458 0.000007
459 -0.000016
460 -0.000023
461 -0.000064
462 -0.000057
463 -0.000039
464 -0.000107
465 -0.000138
466 -0.000123
467 -0.000099
468 -0.000086
469 -0.000049
470 0.000006
471 0.000030
472 0.000039
473 0.000032
474 0.000032
475 0.000027
476 0.000047
477 0.000044
478 0.000001
479 -0.000029
480 -0.000041
481 -0.000064
482 -0.000085
483 -0.000116
484 -0.000113
485 -0.000122
486 -0.000139
487 -0.000125
488 -0.000108
489 -0.000081
490 0.000021
491 0.000113
492 0.000247
493 0.000361
494 0.000433
495 0.000497
496 0.000536
497 0.000520
498 0.000491
499 0.000430
500 0.000371
501 0.000335
502 0.000277
503 0.000196
504 0.000135
505 0.000055
506 -0.000036
507 -0.000105
508 -0.000176
509 -0.000157
510 -0.000079
511 -0.000012
512 0.000041
513 0.000105
514 0.000161
515 0.000217
516 0.000276
517 0.000367
518 0.000401
519 0.000384
520 0.000428
521 0.000452
522 0.000441
523 0.000436
524 0.000427
525 0.000404
526 0.000444
527 0.000430
528 0.000411
529 0.000330
530 0.000271
531 0.000256
532 0.000213
533 0.000198
534 0.000191
535 0.000137
536 0.000126
537 0.000129
538 0.000178
539 0.000270
540 0.000372
541 0.000468
542 0.000583
543 0.000618
544 0.000683
545 0.000739
546 0.000824
547 0.000894
548 0.000919
549 0.000880
550 0.000881
551 0.000903
552 0.000905
553 0.000907
554 0.000866
555 0.000831
556 0.000777
557 0.000712
558 0.000671
559 0.000700
560 0.000721
561 0.000766
562 0.000829
563 0.000876
564 0.000923
565 0.000917
566 0.000908
567 0.000912
568 0.000900
569 0.000892
570 0.000909
571 0.000951
572 0.000967
573 0.000947
574 0.000951
575 0.000997
576 0.001050
577 0.001095
578 0.001126
579 0.001137
580 0.001128
581 0.001115
582 0.001100
583 0.001058
584 0.001058
585 0.001007
586 0.000943
587 0.000886
588 0.000794
589 0.000750
590 0.000694
591 0.000676
592 0.000682
593 0.000660
594 0.000689
595 0.000732
596 0.000755
597 0.000737
598 0.000736
599 0.000743
600 0.000745
601 0.000745
602 0.000731
603 0.000753
604 0.000770
605 0.000782
606 0.000777
607 0.000744
608 0.000677
609 0.000638
610 0.000576
611 0.000533
612 0.000556
613 0.000526
614 0.000517
615 0.000491
616 0.000475
617 0.000416
618 0.000351
619 0.000301
620 0.000277
621 0.000319
622 0.000368
623 0.000446
624 0.000495
625 0.000535
626 0.000521
627 0.000569
628 0.000609
629 0.000620
630 0.000595
631 0.000562
632 0.000538
633 0.000489
634 0.000442
635 0.000402
636 0.000362
637 0.000337
638 0.000303
639 0.000277
640 0.000236
641 0.000227
642 0.000224
643 0.000232
644 0.000264
645 0.000285
646 0.000344
647 0.000395
648 0.000424
649 0.000427
650 0.000421
651 0.000447
652 0.000543
653 0.000605
654 0.000605
655 0.000579
656 0.000521
657 0.000507
658 0.000439
659 0.000363
660 0.000342
661 0.000309
662 0.000266
663 0.000213
664 0.000196
665 0.000184
666 0.000159
667 0.000145
668 0.000137
669 0.000088
670 0.000069
671 0.000090
672 0.000135
673 0.000166
674 0.000191
675 0.000210
676 0.000251
677 0.000292
678 0.000283
679 0.000283
680 0.000295
681 0.000342
682 0.000394
683 0.000419
684 0.000442
685 0.000473
686 0.000495
687 0.000516
688 0.000531
689 0.000512
690 0.000505
691 0.000510
692 0.000512
693 0.000504
694 0.000489
695 0.000498
696 0.000483
697 0.000475
698 0.000458
699 0.000432
700 0.000425
701 0.000417
702 0.000435
703 0.000464
704 0.000525
705 0.000556
706 0.000594
707 0.000618
708 0.000627
709 0.000630
710 0.000621
711 0.000625
712 0.000580
713 0.000545
714 0.000478
715 0.000426
716 0.000377
717 0.000315
718 0.000221
719 0.000160
720 0.000137
721 0.000136
722 0.000148
723 0.000153
724 0.000167
725 0.000149
726 0.000132
727 0.000129
728 0.000128
729 0.000143
730 0.000165
731 0.000237
732 0.000316
733 0.000386
734 0.000429
735 0.000483
736 0.000497
737 0.000481
738 0.000448
739 0.000419
740 0.000392
741 0.000351
742 0.000324
743 0.000286
744 0.000242
745 0.000196
746 0.000135
747 0.000090
748 0.000035
749 0.000002
750 -0.000026
751 -0.000004
752 0.000021
753 0.000044
754 0.000084
755 0.000105
756 0.000140
757 0.000182
758 0.000209
759 0.000198
760 0.000188
761 0.000187
762 0.000199
763 0.000218
764 0.000212
765 0.000191
766 0.000155
767 0.000143
768 0.000116
769 0.000107
770 0.000102
771 0.000083
772 0.000095
773 0.000107
774 0.000152
775 0.000152
776 0.000142
777 0.000136
778 0.000122
779 0.000128
780 0.000133
781 0.000169
782 0.000197
783 0.000230
784 0.000259
785 0.000286
786 0.000334
787 0.000366
788 0.000382
789 0.000396
790 0.000412
791 0.000421
792 0.000453
793 0.000467
794 0.000481
795 0.000461
796 0.000420
797 0.000433
798 0.000438
799 0.000440
800 0.000413
801 0.000403
802 0.000399
803 0.000412
804 0.000401
805 0.000412
806 0.000425
807 0.000434
808 0.000426
809 0.000424
