# i correlation
1 0.006017
2 0.005283
3 0.004700
4 0.004293
5 0.003960
6 0.003687
7 0.003477
8 0.003315
9 0.003098
10 0.002897
11 0.002689
12 0.002454
13 0.002251
14 0.002065
15 0.001997
16 0.001952
17 0.001903
18 0.001861
19 0.001707
20 0.001599
21 0.001529
22 0.001582
23 0.001695
24 0.001829
25 0.001963
26 0.002131
27 0.002142
28 0.002147
29 0.002145
30 0.002094
31 0.002013
32 0.001865
33 0.001746
34 0.001779
35 0.001810
36 0.001800
37 0.001715
38 0.001607
39 0.001514
40 0.001430
41 0.001423
42 0.001360
43 0.001355
44 0.001368
45 0.001361
46 0.001423
47 0.001487
48 0.001585
49 0.001732
50 0.001850
51 0.001919
52 0.002004
53 0.002050
54 0.002031
55 0.001985
56 0.001995
57 0.002029
58 0.002002
59 0.001987
60 0.001959
61 0.001841
62 0.001732
63 0.001633
64 0.001559
65 0.001510
66 0.001479
67 0.001453
68 0.001397
69 0.001358
70 0.001400
71 0.001383
72 0.001308
73 0.001236
74 0.001159
75 0.001193
76 0.001210
77 0.001253
78 0.001259
79 0.001246
80 0.001185
81 0.001123
82 0.001127
83 0.001191
84 0.001308
85 0.001310
86 0.001303
87 0.001280
88 0.001263
89 0.001186
90 0.001116
91 0.001077
92 0.001069
93 0.001104
94 0.001125
95 0.001218
96 0.001225
97 0.001246
98 0.001187
99 0.001268
100 0.001367
101 0.001461
102 0.001554
103 0.001656
104 0.001666
105 0.001730
106 0.001827
107 0.001945
108 0.002093
109 0.002207
110 0.002312
111 0.002364
112 0.002388
113 0.002382
114 0.002418
115 0.002418
116 0.002390
117 0.002369
118 0.002400
119 0.002355
120 0.002258
121 0.002175
122 0.002107
123 0.002078
124 0.002022
125 0.002038
126 0.002063
127 0.002079
128 0.002104
129 0.002076
130 0.002042
131 0.002034
132 0.002003
133 0.001973
134 0.001909
135 0.001839
136 0.001821
137 0.001793
138 0.001816
139 0.001817
140 0.001829
141 0.001826
142 0.001817
143 0.001827
144 0.001738
145 0.001532
146 0.001436
147 0.001288
148 0.001207
149 0.001189
150 0.001140
151 0.001086
152 0.001081
153 0.001082
154 0.001102
155 0.001088
156 0.001130
157 0.001167
158 0.001121
159 0.001152
160 0.001208
161 0.001256
162 0.001284
163 0.001229
164 0.001248
165 0.001296
166 0.001401
167 0.001439
168 0.001466
169 0.001506
170 0.001596
171 0.001644
172 0.001695
173 0.001655
174 0.001620
175 0.001529
176 0.001398
177 0.001385
178 0.001461
179 0.001525
180 0.001550
181 0.001537
182 0.001484
183 0.001437
184 0.001428
185 0.001403
186 0.001338
187 0.001296
188 0.001289
189 0.001259
190 0.001249
191 0.001224
192 0.001189
193 0.001136
194 0.001048
195 0.000992
196 0.000967
197 0.000955
198 0.000972
199 0.000971
200 0.000962
201 0.000909
202 0.000916
203 0.000989
204 0.000935
205 0.000934
206 0.000958
207 0.001059
208 0.001180
209 0.001347
210 0.001470
211 0.001502
212 0.001440
213 0.001441
214 0.001461
215 0.001482
216 0.001530
217 0.001543
218 0.001571
219 0.001663
220 0.001723
221 0.001813
222 0.001789
223 0.001764
224 0.001758
225 0.001783
226 0.001805
227 0.001871
228 0.001879
229 0.001822
230 0.001735
231 0.001682
232 0.001674
233 0.001665
234 0.001740
235 0.001793
236 0.001822
237 0.001877
238 0.001901
239 0.001898
240 0.001783
241 0.001699
242 0.001608
243 0.001644
244 0.001689
245 0.001799
246 0.001815
247 0.001790
248 0.001781
249 0.001823
250 0.001847
251 0.001823
252 0.001798
253 0.001708
254 0.001648
255 0.001637
256 0.001642
257 0.001654
258 0.001610
259 0.001537
260 0.001453
261 0.001399
262 0.001365
263 0.001368
264 0.001269
265 0.001194
266 0.001087
267 0.000968
268 0.000894
269 0.000854
270 0.000804
271 0.000821
272 0.000857
273 0.000943
274 0.001026
275 0.001115
276 0.001110
277 0.001045
278 0.001010
279 0.001014
280 0.001021
281 0.001017
282 0.001007
283 0.001056
284 0.001111
285 0.001119
286 0.001124
287 0.001157
288 0.001197
289 0.001194
290 0.001111
291 0.001065
292 0.001064
293 0.001040
294 0.000954
295 0.000908
296 0.000897
297 0.000906
298 0.000951
299 0.000958
300 0.001024
301 0.001049
302 0.001129
303 0.001151
304 0.001177
305 0.001218
306 0.001249
307 0.001207
308 0.001222
309 0.001294
310 0.001280
311 0.001260
312 0.001278
313 0.001277
314 0.001255
315 0.001192
316 0.001122
317 0.001042
318 0.001024
319 0.000930
320 0.000834
321 0.000777
322 0.000778
323 0.000790
324 0.000813
325 0.000768
326 0.000680
327 0.000666
328 0.000667
329 0.000680
330 0.000653
331 0.000671
332 0.000725
333 0.000807
334 0.000875
335 0.000932
336 0.001021
337 0.001052
338 0.001096
339 0.001147
340 0.001155
341 0.001212
342 0.001242
343 0.001232
344 0.001232
345 0.001242
346 0.001276
347 0.001237
348 0.001173
349 0.001139
350 0.001115
351 0.001100
352 0.001121
353 0.001146
354 0.001064
355 0.000975
356 0.000898
357 0.000871
358 0.000877
359 0.001029
360 0.001142
361 0.001259
362 0.001354
363 0.001434
364 0.001537
365 0.001572
366 0.001497
367 0.001431
368 0.001403
369 0.001349
370 0.001350
371 0.001319
372 0.001258
373 0.001207
374 0.001149
375 0.001125
376 0.001087
377 0.000997
378 0.000903
379 0.000770
380 0.000633
381 0.000587
382 0.000538
383 0.000471
384 0.000378
385 0.000333
386 0.000285
387 0.000309
388 0.000379
389 0.000440
390 0.000478
391 0.000526
392 0.000483
393 0.000480
394 0.000509
395 0.000556
396 0.000560
397 0.000547
398 0.000581
399 0.000635
400 0.000663
401 0.000669
402 0.000660
403 0.000629
404 0.000618
405 0.000659
406 0.000656
407 0.000594
408 0.000545
409 0.000566
410 0.000545
411 0.000544
412 0.000620
413 0.000689
414 0.000747
415 0.000800
416 0.000864
417 0.000927
418 0.000953
419 0.000945
420 0.000947
421 0.000974
422 0.001031
423 0.001055
424 0.001069
425 0.001089
426 0.001063
427 0.001047
428 0.001029
429 0.001032
430 0.001054
431 0.001056
432 0.001026
433 0.000945
434 0.000871
435 0.000871
436 0.000856
437 0.000816
438 0.000750
439 0.000647
440 0.000593
441 0.000620
442 0.000616
443 0.000648
444 0.000721
445 0.000779
446 0.000836
447 0.000913
448 0.001021
449 0.001047
450 0.001013
451 0.000958
452 0.000937
453 0.000933
454 0.000948
455 0.001018
456 0.001067
457 0.001072
458 0.001063
459 0.001070
460 0.001069
461 0.001069
462 0.001081
463 0.000998
464 0.000909
465 0.000863
466 0.000859
467 0.000827
468 0.000723
469 0.000640
470 0.000637
471 0.000694
472 0.000796
473 0.000888
474 0.000977
475 0.001059
476 0.001116
477 0.001107
478 0.001122
479 0.001152
480 0.001177
481 0.001200
482 0.001306
483 0.001332
484 0.001411
485 0.001457
486 0.001481
487 0.001447
488 0.001419
489 0.001370
490 0.001329
491 0.001225
492 0.001182
493 0.001198
494 0.001189
495 0.001100
496 0.001037
497 0.000959
498 0.000897
499 0.000799
500 0.000711
501 0.000647
502 0.000614
503 0.000589
504 0.000527
505 0.000507
506 0.000459
507 0.000415
508 0.000426
509 0.000428
510 0.000409
511 0.000410
512 0.000441
513 0.000481
514 0.000460
515 0.000416
516 0.000397
517 0.000382
518 0.000399
519 0.000386
520 0.000397
521 0.000391
522 0.000352
523 0.000369
524 0.000396
525 0.000430
526 0.000421
527 0.000419
528 0.000443
529 0.000396
530 0.000433
531 0.000484
532 0.000548
533 0.000559
534 0.000546
535 0.000511
536 0.000489
537 0.000457
538 0.000452
539 0.000440
540 0.000418
541 0.000406
542 0.000410
543 0.000461
544 0.000511
545 0.000506
546 0.000511
547 0.000524
548 0.000531
549 0.000536
550 0.000552
551 0.000519
552 0.000535
553 0.000522
554 0.000515
555 0.000525
556 0.000511
557 0.000458
558 0.000427
559 0.000437
560 0.000431
561 0.000408
562 0.000417
563 0.000435
564 0.000435
565 0.000407
566 0.000408
567 0.000394
568 0.000371
569 0.000335
570 0.000289
571 0.000271
572 0.000263
573 0.000266
574 0.000259
575 0.000261
576 0.000253
577 0.000246
578 0.000249
579 0.000219
580 0.000206
581 0.000243
582 0.000261
583 0.000269
584 0.000315
585 0.000322
586 0.000294
587 0.000281
588 0.000325
589 0.000346
590 0.000366
591 0.000379
592 0.000399
593 0.000465
594 0.000483
595 0.000502
596 0.000522
597 0.000551
598 0.000573
599 0.000543
600 0.000539
601 0.000524
602 0.000572
603 0.000619
604 0.000644
605 0.000626
606 0.000544
607 0.000445
608 0.000402
609 0.000396
610 0.000422
611 0.000432
612 0.000453
613 0.000485
614 0.000508
615 0.000534
616 0.000545
617 0.000539
618 0.000568
619 0.000590
620 0.000644
621 0.000694
622 0.000747
623 0.000691
624 0.000633
625 0.000602
626 0.000586
627 0.000601
628 0.000598
629 0.000564
630 0.000491
631 0.000415
632 0.000330
633 0.000283
634 0.000222
635 0.000148
636 0.000138
637 0.000129
638 0.000164
639 0.000199
640 0.000224
641 0.000237
642 0.000179
643 0.000141
644 0.000132
645 0.000112
646 0.000134
647 0.000148
648 0.000163
649 0.000125
650 0.000113
651 0.000134
652 0.000151
653 0.000178
654 0.000242
655 0.000293
656 0.000301
657 0.000295
658 0.000281
659 0.000313
660 0.000340
661 0.000365
662 0.000408
663 0.000463
664 0.000513
665 0.000526
666 0.000520
667 0.000525
668 0.000531
669 0.000566
670 0.000624
671 0.000662
672 0.000675
673 0.000669
674 0.000670
675 0.000639
676 0.000589
677 0.000527
678 0.000427
679 0.000332
680 0.000257
681 0.000204
682 0.000173
683 0.000112
684 0.000071
685 0.000027
686 -0.000047
687 -0.000056
688 -0.000042
689 -0.000040
690 -0.000058
691 -0.000084
692 -0.000079
693 -0.000048
694 -0.000046
695 -0.000054
696 -0.000000
697 0.000061
698 0.000126
699 0.000181
700 0.000244
701 0.000267
702 0.000254
703 0.000252
704 0.000277
705 0.000350
706 0.000415
707 0.000454
708 0.000434
709 0.000416
710 0.000424
711 0.000433
712 0.000437
713 0.000441
714 0.000471
715 0.000469
716 0.000440
717 0.000404
718 0.000386
719 0.000366
720 0.000349
721 0.000380
722 0.000400
723 0.000425
724 0.000459
725 0.000462
726 0.000428
727 0.000392
728 0.000346
729 0.000319
730 0.000334
731 0.000377
732 0.000394
733 0.000405
734 0.000389
735 0.000337
736 0.000313
737 0.000322
738 0.000324
739 0.000337
740 0.000341
741 0.000352
742 0.000298
743 0.000221
744 0.000155
745 0.000094
746 0.000078
747 0.000080
748 0.000080
749 0.000070
750 0.000064
751 0.000038
752 -0.000012
753 -0.000074
754 -0.000096
755 -0.000077
756 -0.000059
757 -0.000028
758 -0.000011
759 0.000014
760 0.000004
761 -0.000019
762 -0.000025
763 -0.000019
764 -0.000017
765 -0.000010
766 0.000024
767 0.000048
768 0.000078
769 0.000110
770 0.000098
771 0.000098
772 0.000089
773 0.000101
774 0.000126
775 0.000144
776 0.000141
777 0.000138
778 0.000122
779 0.000085
780 0.000079
781 0.000112
782 0.000161
783 0.000168
784 0.000176
785 0.000162
786 0.000144
787 0.000133
788 0.000143
789 0.000134
790 0.000116
791 0.000119
792 0.000081
793 0.000055
794 0.000031
795 -0.000011
796 -0.000031
797 -0.000068
798 -0.000078
799 -0.000088
800 -0.000105
801 -0.000136
802 -0.000178
803 -0.000216
804 -0.000232
805 -0.000244
806 -0.000274
807 -0.000300
808 -0.000322
809 -0.000340
