# i correlation
1 0.005768
2 0.005106
3 0.004487
4 0.003979
5 0.003514
6 0.003086
7 0.002677
8 0.002332
9 0.002057
10 0.001812
11 0.001552
12 0.001310
13 0.001189
14 0.001176
15 0.001165
16 0.001252
17 0.001364
18 0.001449
19 0.001556
20 0.001594
21 0.001603
22 0.001567
23 0.001583
24 0.001618
25 0.001638
26 0.001645
27 0.001685
28 0.001582
29 0.001485
30 0.001319
31 0.001188
32 0.001103
33 0.001033
34 0.000979
35 0.000957
36 0.000921
37 0.000899
38 0.000878
39 0.000869
40 0.000847
41 0.000827
42 0.000735
43 0.000742
44 0.000831
45 0.000960
46 0.001114
47 0.001218
48 0.001350
49 0.001400
50 0.001415
51 0.001323
52 0.001320
53 0.001293
54 0.001295
55 0.001233
56 0.001121
57 0.001033
58 0.000905
59 0.000820
60 0.000842
61 0.000830
62 0.000812
63 0.000853
64 0.000884
65 0.000990
66 0.001129
67 0.001293
68 0.001359
69 0.001445
70 0.001430
71 0.001468
72 0.001446
73 0.001514
74 0.001561
75 0.001585
76 0.001564
77 0.001480
78 0.001351
79 0.001190
80 0.001023
81 0.000946
82 0.000882
83 0.000822
84 0.000812
85 0.000847
86 0.000861
87 0.000867
88 0.000865
89 0.000875
90 0.000908
91 0.000892
92 0.000902
93 0.001010
94 0.001148
95 0.001228
96 0.001288
97 0.001270
98 0.001256
99 0.001251
100 0.001195
101 0.001220
102 0.001288
103 0.001282
104 0.001255
105 0.001187
106 0.001094
107 0.001033
108 0.000962
109 0.000834
110 0.000821
111 0.000731
112 0.000803
113 0.000764
114 0.000733
115 0.000719
116 0.000685
117 0.000687
118 0.000715
119 0.000765
120 0.000778
121 0.000836
122 0.000912
123 0.000949
124 0.000911
125 0.000765
126 0.000682
127 0.000583
128 0.000586
129 0.000669
130 0.000658
131 0.000654
132 0.000615
133 0.000616
134 0.000664
135 0.000750
136 0.000851
137 0.000833
138 0.000824
139 0.000910
140 0.001021
141 0.001155
142 0.001388
143 0.001557
144 0.001712
145 0.001800
146 0.001863
147 0.001830
148 0.001781
149 0.001777
150 0.001712
151 0.001641
152 0.001515
153 0.001440
154 0.001349
155 0.001237
156 0.001150
157 0.001040
158 0.000988
159 0.000900
160 0.000912
161 0.000827
162 0.000800
163 0.000777
164 0.000781
165 0.000756
166 0.000778
167 0.000850
168 0.000957
169 0.001138
170 0.001306
171 0.001437
172 0.001549
173 0.001677
174 0.001745
175 0.001758
176 0.001684
177 0.001620
178 0.001506
179 0.001380
180 0.001217
181 0.001110
182 0.000940
183 0.000848
184 0.000735
185 0.000639
186 0.000574
187 0.000564
188 0.000587
189 0.000684
190 0.000801
191 0.000893
192 0.001013
193 0.001107
194 0.001157
195 0.001175
196 0.001198
197 0.001217
198 0.001225
199 0.001193
200 0.001091
201 0.001004
202 0.000914
203 0.000878
204 0.000836
205 0.000812
206 0.000823
207 0.000816
208 0.000853
209 0.000945
210 0.000964
211 0.000946
212 0.000929
213 0.000926
214 0.000942
215 0.000913
216 0.000881
217 0.000972
218 0.001041
219 0.001071
220 0.001153
221 0.001131
222 0.001112
223 0.001171
224 0.001148
225 0.001129
226 0.001073
227 0.001046
228 0.001002
229 0.000960
230 0.000906
231 0.000898
232 0.000817
233 0.000788
234 0.000829
235 0.000840
236 0.000937
237 0.000988
238 0.001050
239 0.001077
240 0.001107
241 0.001154
242 0.001189
243 0.001204
244 0.001259
245 0.001234
246 0.001229
247 0.001208
248 0.001170
249 0.001127
250 0.001074
251 0.001001
252 0.000949
253 0.000963
254 0.001037
255 0.001088
256 0.001070
257 0.001018
258 0.001025
259 0.001038
260 0.001000
261 0.000975
262 0.000910
263 0.000971
264 0.001065
265 0.001146
266 0.001163
267 0.001068
268 0.001022
269 0.000956
270 0.000906
271 0.000801
272 0.000759
273 0.000685
274 0.000612
275 0.000554
276 0.000481
277 0.000474
278 0.000482
279 0.000472
280 0.000501
281 0.000487
282 0.000515
283 0.000558
284 0.000591
285 0.000609
286 0.000680
287 0.000751
288 0.000856
289 0.000944
290 0.001038
291 0.001079
292 0.001075
293 0.001036
294 0.000947
295 0.000883
296 0.000833
297 0.000737
298 0.000597
299 0.000506
300 0.000404
301 0.000358
302 0.000440
303 0.000522
304 0.000647
305 0.000762
306 0.000798
307 0.000825
308 0.000838
309 0.000907
310 0.000944
311 0.000989
312 0.001004
313 0.001057
314 0.001075
315 0.001097
316 0.001179
317 0.001206
318 0.001244
319 0.001268
320 0.001256
321 0.001233
322 0.001257
323 0.001219
324 0.001207
325 0.001160
326 0.001113
327 0.001097
328 0.001037
329 0.000975
330 0.000995
331 0.000966
332 0.000973
333 0.000940
334 0.000849
335 0.000782
336 0.000699
337 0.000651
338 0.000599
339 0.000600
340 0.000649
341 0.000761
342 0.000839
343 0.000892
344 0.000871
345 0.000818
346 0.000727
347 0.000675
348 0.000690
349 0.000734
350 0.000750
351 0.000830
352 0.000911
353 0.000965
354 0.000947
355 0.000851
356 0.000843
357 0.000876
358 0.000950
359 0.001081
360 0.001125
361 0.001104
362 0.001133
363 0.001150
364 0.001080
365 0.001020
366 0.000959
367 0.000963
368 0.000962
369 0.000901
370 0.000831
371 0.000728
372 0.000631
373 0.000547
374 0.000413
375 0.000309
376 0.000323
377 0.000380
378 0.000486
379 0.000560
380 0.000709
381 0.000802
382 0.000874
383 0.000942
384 0.000984
385 0.001062
386 0.001108
387 0.001171
388 0.001201
389 0.001197
390 0.001199
391 0.001152
392 0.001143
393 0.001062
394 0.001004
395 0.000934
396 0.000826
397 0.000769
398 0.000747
399 0.000722
400 0.000715
401 0.000710
402 0.000653
403 0.000586
404 0.000547
405 0.000489
406 0.000461
407 0.000494
408 0.000593
409 0.000688
410 0.000759
411 0.000808
412 0.000871
413 0.000908
414 0.000951
415 0.000969
416 0.000975
417 0.000981
418 0.000957
419 0.000921
420 0.000805
421 0.000721
422 0.000581
423 0.000460
424 0.000367
425 0.000324
426 0.000356
427 0.000388
428 0.000474
429 0.000497
430 0.000539
431 0.000565
432 0.000666
433 0.000757
434 0.000900
435 0.001015
436 0.001082
437 0.001156
438 0.001261
439 0.001266
440 0.001226
441 0.001134
442 0.001002
443 0.000873
444 0.000768
445 0.000736
446 0.000672
447 0.000606
448 0.000546
449 0.000456
450 0.000359
451 0.000283
452 0.000241
453 0.000291
454 0.000385
455 0.000479
456 0.000503
457 0.000505
458 0.000470
459 0.000472
460 0.000414
461 0.000442
462 0.000521
463 0.000595
464 0.000705
465 0.000787
466 0.000822
467 0.000848
468 0.000765
469 0.000676
470 0.000577
471 0.000497
472 0.000374
473 0.000283
474 0.000195
475 0.000134
476 0.000087
477 0.000026
478 -0.000001
479 -0.000046
480 -0.000051
481 -0.000055
482 -0.000002
483 0.000022
484 0.000080
485 0.000119
486 0.000200
487 0.000231
488 0.000330
489 0.000369
490 0.000381
491 0.000441
492 0.000510
493 0.000555
494 0.000601
495 0.000638
496 0.000605
497 0.000615
498 0.000617
499 0.000656
500 0.000673
501 0.000677
502 0.000715
503 0.000741
504 0.000752
505 0.000785
506 0.000735
507 0.000728
508 0.000688
509 0.000688
510 0.000672
511 0.000691
512 0.000695
513 0.000701
514 0.000716
515 0.000693
516 0.000654
517 0.000589
518 0.000472
519 0.000416
520 0.000349
521 0.000283
522 0.000298
523 0.000362
524 0.000407
525 0.000403
526 0.000425
527 0.000434
528 0.000476
529 0.000509
530 0.000595
531 0.000666
532 0.000703
533 0.000767
534 0.000829
535 0.000820
536 0.000857
537 0.000841
538 0.000827
539 0.000838
540 0.000897
541 0.000911
542 0.000913
543 0.000907
544 0.000882
545 0.000837
546 0.000801
547 0.000757
548 0.000665
549 0.000600
550 0.000555
551 0.000545
552 0.000540
553 0.000555
554 0.000550
555 0.000597
556 0.000617
557 0.000729
558 0.000822
559 0.000866
560 0.000894
561 0.000964
562 0.001000
563 0.001008
564 0.000942
565 0.000864
566 0.000795
567 0.000731
568 0.000684
569 0.000607
570 0.000514
571 0.000442
572 0.000399
573 0.000341
574 0.000347
575 0.000305
576 0.000301
577 0.000320
578 0.000310
579 0.000320
580 0.000318
581 0.000333
582 0.000341
583 0.000371
584 0.000411
585 0.000481
586 0.000539
587 0.000550
588 0.000560
589 0.000514
590 0.000536
591 0.000522
592 0.000498
593 0.000469
594 0.000462
595 0.000425
596 0.000405
597 0.000356
598 0.000324
599 0.000316
600 0.000314
601 0.000349
602 0.000323
603 0.000313
604 0.000288
605 0.000268
606 0.000314
607 0.000449
608 0.000536
609 0.000629
610 0.000668
611 0.000703
612 0.000748
613 0.000808
614 0.000817
615 0.000764
616 0.000646
617 0.000578
618 0.000499
619 0.000395
620 0.000277
621 0.000194
622 0.000117
623 0.000041
624 -0.000000
625 -0.000081
626 -0.000131
627 -0.000192
628 -0.000181
629 -0.000160
630 -0.000162
631 -0.000113
632 -0.000072
633 -0.000038
634 -0.000012
635 0.000021
636 0.000032
637 0.000017
638 0.000002
639 0.000016
640 0.000061
641 0.000070
642 0.000076
643 0.000049
644 0.000019
645 -0.000002
646 0.000032
647 0.000050
648 0.000091
649 0.000087
650 0.000064
651 0.000012
652 -0.000032
653 -0.000047
654 -0.000082
655 -0.000079
656 -0.000070
657 -0.000052
658 -0.000009
659 0.000068
660 0.000078
661 0.000098
662 0.000120
663 0.000177
664 0.000206
665 0.000227
666 0.000226
667 0.000241
668 0.000264
669 0.000305
670 0.000321
671 0.000280
672 0.000258
673 0.000276
674 0.000291
675 0.000311
676 0.000327
677 0.000310
678 0.000292
679 0.000256
680 0.000218
681 0.000184
682 0.000166
683 0.000150
684 0.000181
685 0.000221
686 0.000235
687 0.000252
688 0.000283
689 0.000329
690 0.000358
691 0.000384
692 0.000390
693 0.000410
694 0.000441
695 0.000428
696 0.000436
697 0.000451
698 0.000461
699 0.000458
700 0.000481
701 0.000478
702 0.000475
703 0.000528
704 0.000591
705 0.000610
706 0.000588
707 0.000564
708 0.000600
709 0.000611
710 0.000626
711 0.000632
712 0.000595
713 0.000558
714 0.000516
715 0.000465
716 0.000405
717 0.000373
718 0.000362
719 0.000347
720 0.000347
721 0.000334
722 0.000343
723 0.000349
724 0.000337
725 0.000316
726 0.000258
727 0.000212
728 0.000194
729 0.000184
730 0.000219
731 0.000225
732 0.000249
733 0.000241
734 0.000231
735 0.000250
736 0.000316
737 0.000383
738 0.000411
739 0.000407
740 0.000395
741 0.000386
742 0.000366
743 0.000393
744 0.000399
745 0.000427
746 0.000423
747 0.000405
748 0.000391
749 0.000374
750 0.000379
751 0.000380
752 0.000405
753 0.000423
754 0.000445
755 0.000455
756 0.000457
757 0.000487
758 0.000496
759 0.000508
760 0.000528
761 0.000536
762 0.000538
763 0.000552
764 0.000567
765 0.000573
766 0.000560
767 0.000536
768 0.000508
769 0.000485
770 0.000494
771 0.000524
772 0.000518
773 0.000461
774 0.000369
775 0.000325
776 0.000270
777 0.000271
778 0.000262
779 0.000243
780 0.000212
781 0.000199
782 0.000202
783 0.000187
784 0.000200
785 0.000232
786 0.000285
787 0.000307
788 0.000308
789 0.000325
790 0.000329
791 0.000331
792 0.000321
793 0.000309
794 0.000304
795 0.000309
796 0.000299
797 0.000296
798 0.000292
799 0.000283
800 0.000252
801 0.000212
802 0.000169
803 0.000156
804 0.000189
805 0.000226
806 0.000297
807 0.000320
808 0.000341
809 0.000352
