# i correlation
1 0.007007
2 0.006357
3 0.005822
4 0.005395
5 0.004976
6 0.004692
7 0.004447
8 0.004173
9 0.003917
10 0.003748
11 0.003647
12 0.003514
13 0.003311
14 0.003098
15 0.002993
16 0.002859
17 0.002761
18 0.002620
19 0.002505
20 0.002366
21 0.002224
22 0.002121
23 0.002059
24 0.001965
25 0.001866
26 0.001792
27 0.001768
28 0.001705
29 0.001726
30 0.001806
31 0.001963
32 0.002069
33 0.002170
34 0.002246
35 0.002338
36 0.002324
37 0.002409
38 0.002548
39 0.002546
40 0.002508
41 0.002472
42 0.002415
43 0.002264
44 0.002158
45 0.002112
46 0.002045
47 0.002027
48 0.001973
49 0.001954
50 0.001873
51 0.001792
52 0.001793
53 0.001811
54 0.001779
55 0.001773
56 0.001755
57 0.001764
58 0.001759
59 0.001669
60 0.001610
61 0.001524
62 0.001462
63 0.001378
64 0.001385
65 0.001361
66 0.001333
67 0.001334
68 0.001441
69 0.001562
70 0.001664
71 0.001794
72 0.001925
73 0.002088
74 0.002210
75 0.002351
76 0.002415
77 0.002469
78 0.002514
79 0.002576
80 0.002671
81 0.002770
82 0.002840
83 0.002846
84 0.002880
85 0.002909
86 0.002971
87 0.002996
88 0.003081
89 0.003112
90 0.003198
91 0.003218
92 0.003228
93 0.003226
94 0.003204
95 0.003160
96 0.003063
97 0.003008
98 0.002963
99 0.002917
100 0.002858
101 0.002758
102 0.002641
103 0.002564
104 0.002551
105 0.002540
106 0.002483
107 0.002493
108 0.002442
109 0.002367
110 0.002306
111 0.002212
112 0.002058
113 0.001969
114 0.001926
115 0.001891
116 0.001819
117 0.001756
118 0.001701
119 0.001656
120 0.001659
121 0.001621
122 0.001654
123 0.001713
124 0.001787
125 0.001849
126 0.001991
127 0.002037
128 0.002066
129 0.002042
130 0.002053
131 0.002128
132 0.002183
133 0.002141
134 0.002141
135 0.002223
136 0.002219
137 0.002260
138 0.002313
139 0.002331
140 0.002244
141 0.002202
142 0.002225
143 0.002257
144 0.002209
145 0.002176
146 0.002180
147 0.002155
148 0.002094
149 0.002090
150 0.001979
151 0.001836
152 0.001607
153 0.001450
154 0.001376
155 0.001315
156 0.001306
157 0.001342
158 0.001400
159 0.001405
160 0.001376
161 0.001302
162 0.001252
163 0.001166
164 0.001142
165 0.001183
166 0.001212
167 0.001188
168 0.001222
169 0.001266
170 0.001315
171 0.001345
172 0.001417
173 0.001475
174 0.001469
175 0.001485
176 0.001528
177 0.001602
178 0.001675
179 0.001688
180 0.001703
181 0.001729
182 0.001679
183 0.001711
184 0.001701
185 0.001628
186 0.001581
187 0.001497
188 0.001483
189 0.001520
190 0.001525
191 0.001519
192 0.001480
193 0.001469
194 0.001433
195 0.001408
196 0.001401
197 0.001422
198 0.001432
199 0.001415
200 0.001381
201 0.001323
202 0.001232
203 0.001213
204 0.001209
205 0.001199
206 0.001285
207 0.001370
208 0.001365
209 0.001356
210 0.001403
211 0.001407
212 0.001438
213 0.001502
214 0.001642
215 0.001726
216 0.001869
217 0.001993
218 0.002114
219 0.002217
220 0.002281
221 0.002302
222 0.002288
223 0.002277
224 0.002254
225 0.002230
226 0.002181
227 0.002174
228 0.002188
229 0.002157
230 0.002173
231 0.002208
232 0.002240
233 0.002239
234 0.002155
235 0.002086
236 0.002059
237 0.002049
238 0.002012
239 0.001991
240 0.001973
241 0.001936
242 0.001879
243 0.001725
244 0.001579
245 0.001464
246 0.001316
247 0.001173
248 0.001094
249 0.001046
250 0.000996
251 0.000990
252 0.001030
253 0.001046
254 0.001068
255 0.001042
256 0.000948
257 0.000821
258 0.000725
259 0.000655
260 0.000578
261 0.000543
262 0.000487
263 0.000485
264 0.000443
265 0.000440
266 0.000443
267 0.000444
268 0.000433
269 0.000460
270 0.000478
271 0.000450
272 0.000392
273 0.000354
274 0.000404
275 0.000464
276 0.000476
277 0.000458
278 0.000415
279 0.000333
280 0.000318
281 0.000302
282 0.000250
283 0.000212
284 0.000203
285 0.000215
286 0.000246
287 0.000306
288 0.000378
289 0.000388
290 0.000392
291 0.000385
292 0.000415
293 0.000448
294 0.000451
295 0.000401
296 0.000355
297 0.000339
298 0.000360
299 0.000318
300 0.000323
301 0.000343
302 0.000348
303 0.000408
304 0.000489
305 0.000550
306 0.000598
307 0.000689
308 0.000780
309 0.000873
310 0.000852
311 0.000895
312 0.000889
313 0.000942
314 0.001012
315 0.001114
316 0.001155
317 0.001188
318 0.001225
319 0.001218
320 0.001194
321 0.001280
322 0.001274
323 0.001276
324 0.001310
325 0.001360
326 0.001347
327 0.001384
328 0.001430
329 0.001432
330 0.001411
331 0.001368
332 0.001338
333 0.001309
334 0.001246
335 0.001159
336 0.001062
337 0.000936
338 0.000860
339 0.000800
340 0.000803
341 0.000790
342 0.000822
343 0.000839
344 0.000844
345 0.000855
346 0.000879
347 0.000907
348 0.000942
349 0.000943
350 0.000901
351 0.000856
352 0.000858
353 0.000810
354 0.000740
355 0.000712
356 0.000745
357 0.000716
358 0.000702
359 0.000728
360 0.000718
361 0.000664
362 0.000656
363 0.000722
364 0.000749
365 0.000792
366 0.000826
367 0.000890
368 0.000875
369 0.000845
370 0.000781
371 0.000705
372 0.000612
373 0.000529
374 0.000454
375 0.000395
376 0.000336
377 0.000302
378 0.000276
379 0.000273
380 0.000205
381 0.000101
382 0.000014
383 -0.000054
384 -0.000125
385 -0.000202
386 -0.000229
387 -0.000223
388 -0.000196
389 -0.000152
390 -0.000107
391 -0.000060
392 -0.000072
393 -0.000086
394 -0.000118
395 -0.000154
396 -0.000138
397 -0.000076
398 -0.000021
399 0.000042
400 0.000153
401 0.000291
402 0.000445
403 0.000548
404 0.000625
405 0.000729
406 0.000754
407 0.000758
408 0.000754
409 0.000800
410 0.000788
411 0.000785
412 0.000819
413 0.000867
414 0.000907
415 0.000872
416 0.000840
417 0.000804
418 0.000742
419 0.000667
420 0.000652
421 0.000655
422 0.000601
423 0.000571
424 0.000596
425 0.000649
426 0.000704
427 0.000737
428 0.000780
429 0.000800
430 0.000830
431 0.000889
432 0.000938
433 0.000980
434 0.000983
435 0.001027
436 0.001052
437 0.001082
438 0.001119
439 0.001182
440 0.001250
441 0.001311
442 0.001377
443 0.001417
444 0.001438
445 0.001377
446 0.001346
447 0.001308
448 0.001275
449 0.001226
450 0.001171
451 0.001112
452 0.001099
453 0.001068
454 0.000972
455 0.000905
456 0.000846
457 0.000840
458 0.000833
459 0.000832
460 0.000808
461 0.000755
462 0.000679
463 0.000607
464 0.000555
465 0.000562
466 0.000567
467 0.000562
468 0.000552
469 0.000490
470 0.000423
471 0.000351
472 0.000282
473 0.000263
474 0.000279
475 0.000280
476 0.000222
477 0.000199
478 0.000212
479 0.000194
480 0.000140
481 0.000059
482 0.000022
483 -0.000023
484 0.000005
485 0.000013
486 0.000061
487 0.000093
488 0.000108
489 0.000141
490 0.000185
491 0.000237
492 0.000228
493 0.000165
494 0.000180
495 0.000236
496 0.000225
497 0.000213
498 0.000220
499 0.000272
500 0.000291
501 0.000333
502 0.000382
503 0.000368
504 0.000357
505 0.000412
506 0.000535
507 0.000621
508 0.000647
509 0.000610
510 0.000581
511 0.000555
512 0.000536
513 0.000509
514 0.000481
515 0.000459
516 0.000444
517 0.000477
518 0.000479
519 0.000481
520 0.000490
521 0.000505
522 0.000510
523 0.000539
524 0.000569
525 0.000597
526 0.000597
527 0.000605
528 0.000625
529 0.000617
530 0.000590
531 0.000614
532 0.000637
533 0.000631
534 0.000616
535 0.000630
536 0.000655
537 0.000679
538 0.000696
539 0.000717
540 0.000727
541 0.000739
542 0.000706
543 0.000715
544 0.000760
545 0.000750
546 0.000822
547 0.000866
548 0.000928
549 0.000951
550 0.000933
551 0.000933
552 0.000901
553 0.000840
554 0.000731
555 0.000638
556 0.000566
557 0.000467
558 0.000396
559 0.000387
560 0.000382
561 0.000318
562 0.000243
563 0.000250
564 0.000251
565 0.000239
566 0.000278
567 0.000267
568 0.000249
569 0.000221
570 0.000272
571 0.000268
572 0.000290
573 0.000303
574 0.000311
575 0.000344
576 0.000362
577 0.000377
578 0.000375
579 0.000399
580 0.000394
581 0.000458
582 0.000513
583 0.000589
584 0.000673
585 0.000755
586 0.000784
587 0.000755
588 0.000751
589 0.000760
590 0.000738
591 0.000722
592 0.000668
593 0.000642
594 0.000566
595 0.000537
596 0.000517
597 0.000504
598 0.000494
599 0.000534
600 0.000532
601 0.000553
602 0.000508
603 0.000471
604 0.000444
605 0.000420
606 0.000443
607 0.000417
608 0.000429
609 0.000420
610 0.000402
611 0.000371
612 0.000350
613 0.000278
614 0.000256
615 0.000238
616 0.000232
617 0.000213
618 0.000207
619 0.000226
620 0.000223
621 0.000265
622 0.000314
623 0.000363
624 0.000390
625 0.000380
626 0.000371
627 0.000349
628 0.000354
629 0.000300
630 0.000294
631 0.000261
632 0.000223
633 0.000219
634 0.000230
635 0.000194
636 0.000193
637 0.000198
638 0.000232
639 0.000243
640 0.000257
641 0.000302
642 0.000321
643 0.000345
644 0.000348
645 0.000350
646 0.000374
647 0.000350
648 0.000364
649 0.000393
650 0.000386
651 0.000390
652 0.000391
653 0.000417
654 0.000452
655 0.000491
656 0.000555
657 0.000629
658 0.000675
659 0.000712
660 0.000715
661 0.000726
662 0.000660
663 0.000650
664 0.000631
665 0.000621
666 0.000609
667 0.000628
668 0.000606
669 0.000548
670 0.000487
671 0.000433
672 0.000399
673 0.000395
674 0.000378
675 0.000390
676 0.000420
677 0.000425
678 0.000437
679 0.000475
680 0.000533
681 0.000587
682 0.000593
683 0.000644
684 0.000669
685 0.000684
686 0.000665
687 0.000598
688 0.000514
689 0.000457
690 0.000466
691 0.000435
692 0.000428
693 0.000400
694 0.000385
695 0.000399
696 0.000445
697 0.000472
698 0.000508
699 0.000480
700 0.000415
701 0.000358
702 0.000330
703 0.000268
704 0.000175
705 0.000126
706 0.000046
707 -0.000053
708 -0.000142
709 -0.000198
710 -0.000273
711 -0.000320
712 -0.000355
713 -0.000398
714 -0.000405
715 -0.000429
716 -0.000427
717 -0.000427
718 -0.000433
719 -0.000426
720 -0.000417
721 -0.000386
722 -0.000353
723 -0.000359
724 -0.000342
725 -0.000351
726 -0.000338
727 -0.000323
728 -0.000246
729 -0.000177
730 -0.000093
731 -0.000053
732 0.000002
733 0.000014
734 0.000053
735 0.000091
736 0.000130
737 0.000147
738 0.000160
739 0.000174
740 0.000175
741 0.000172
742 0.000187
743 0.000245
744 0.000292
745 0.000306
746 0.000300
747 0.000316
748 0.000315
749 0.000345
750 0.000362
751 0.000345
752 0.000299
753 0.000264
754 0.000242
755 0.000272
756 0.000266
757 0.000248
758 0.000194
759 0.000172
760 0.000153
761 0.000175
762 0.000174
763 0.000162
764 0.000124
765 0.000102
766 0.000126
767 0.000156
768 0.000185
769 0.000196
770 0.000195
771 0.000187
772 0.000171
773 0.000174
774 0.000169
775 0.000173
776 0.000181
777 0.000214
778 0.000224
779 0.000228
780 0.000232
781 0.000216
782 0.000225
783 0.000220
784 0.000255
785 0.000270
786 0.000273
787 0.000287
788 0.000291
789 0.000278
790 0.000261
791 0.000225
792 0.000212
793 0.000217
794 0.000192
795 0.000163
796 0.000097
797 0.000022
798 -0.000063
799 -0.000121
800 -0.000134
801 -0.000162
802 -0.000185
803 -0.000196
804 -0.000207
805 -0.000208
806 -0.000228
807 -0.000221
808 -0.000203
809 -0.000167
