# i correlation
1 0.005353
2 0.004678
3 0.004072
4 0.003638
5 0.003279
6 0.003063
7 0.002893
8 0.002807
9 0.002685
10 0.002639
11 0.002532
12 0.002393
13 0.002233
14 0.002164
15 0.002013
16 0.001826
17 0.001786
18 0.001845
19 0.001865
20 0.001876
21 0.001897
22 0.001834
23 0.001799
24 0.001764
25 0.001760
26 0.001713
27 0.001711
28 0.001630
29 0.001602
30 0.001461
31 0.001336
32 0.001338
33 0.001399
34 0.001363
35 0.001378
36 0.001315
37 0.001162
38 0.000964
39 0.000833
40 0.000797
41 0.000744
42 0.000664
43 0.000625
44 0.000587
45 0.000547
46 0.000511
47 0.000590
48 0.000595
49 0.000578
50 0.000592
51 0.000652
52 0.000737
53 0.000785
54 0.000877
55 0.000920
56 0.000808
57 0.000686
58 0.000630
59 0.000617
60 0.000571
61 0.000644
62 0.000661
63 0.000650
64 0.000568
65 0.000484
66 0.000385
67 0.000338
68 0.000323
69 0.000392
70 0.000460
71 0.000568
72 0.000692
73 0.000883
74 0.001012
75 0.001035
76 0.001061
77 0.001054
78 0.001020
79 0.001031
80 0.001109
81 0.001207
82 0.001308
83 0.001382
84 0.001466
85 0.001461
86 0.001455
87 0.001496
88 0.001562
89 0.001563
90 0.001521
91 0.001435
92 0.001313
93 0.001266
94 0.001320
95 0.001367
96 0.001465
97 0.001470
98 0.001534
99 0.001487
100 0.001381
101 0.001304
102 0.001239
103 0.001179
104 0.001122
105 0.001102
106 0.001176
107 0.001292
108 0.001360
109 0.001396
110 0.001431
111 0.001261
112 0.001067
113 0.000956
114 0.000884
115 0.000828
116 0.000850
117 0.000911
118 0.000932
119 0.000898
120 0.000866
121 0.000840
122 0.000762
123 0.000718
124 0.000652
125 0.000654
126 0.000630
127 0.000621
128 0.000636
129 0.000664
130 0.000703
131 0.000772
132 0.000765
133 0.000724
134 0.000709
135 0.000736
136 0.000748
137 0.000782
138 0.000775
139 0.000748
140 0.000708
141 0.000713
142 0.000757
143 0.000810
144 0.000770
145 0.000784
146 0.000749
147 0.000640
148 0.000480
149 0.000393
150 0.000359
151 0.000334
152 0.000299
153 0.000283
154 0.000309
155 0.000291
156 0.000314
157 0.000462
158 0.000584
159 0.000674
160 0.000717
161 0.000716
162 0.000662
163 0.000580
164 0.000543
165 0.000528
166 0.000541
167 0.000468
168 0.000477
169 0.000422
170 0.000400
171 0.000409
172 0.000455
173 0.000395
174 0.000358
175 0.000324
176 0.000300
177 0.000299
178 0.000377
179 0.000370
180 0.000357
181 0.000326
182 0.000452
183 0.000518
184 0.000593
185 0.000577
186 0.000597
187 0.000586
188 0.000516
189 0.000440
190 0.000420
191 0.000346
192 0.000298
193 0.000306
194 0.000354
195 0.000380
196 0.000364
197 0.000335
198 0.000290
199 0.000216
200 0.000173
201 0.000166
202 0.000097
203 0.000068
204 0.000095
205 0.000118
206 0.000128
207 0.000152
208 0.000190
209 0.000193
210 0.000159
211 0.000164
212 0.000162
213 0.000169
214 0.000180
215 0.000215
216 0.000233
217 0.000251
218 0.000320
219 0.000440
220 0.000538
221 0.000560
222 0.000508
223 0.000469
224 0.000426
225 0.000401
226 0.000333
227 0.000311
228 0.000286
229 0.000282
230 0.000273
231 0.000292
232 0.000322
233 0.000424
234 0.000417
235 0.000375
236 0.000354
237 0.000342
238 0.000387
239 0.000468
240 0.000510
241 0.000557
242 0.000595
243 0.000652
244 0.000665
245 0.000670
246 0.000651
247 0.000585
248 0.000618
249 0.000603
250 0.000533
251 0.000480
252 0.000468
253 0.000499
254 0.000517
255 0.000534
256 0.000561
257 0.000560
258 0.000534
259 0.000529
260 0.000554
261 0.000533
262 0.000533
263 0.000554
264 0.000614
265 0.000619
266 0.000718
267 0.000826
268 0.000860
269 0.000892
270 0.000813
271 0.000726
272 0.000708
273 0.000737
274 0.000822
275 0.000925
276 0.000999
277 0.001067
278 0.001093
279 0.001028
280 0.000905
281 0.000800
282 0.000739
283 0.000668
284 0.000671
285 0.000667
286 0.000668
287 0.000697
288 0.000716
289 0.000674
290 0.000583
291 0.000558
292 0.000545
293 0.000549
294 0.000502
295 0.000514
296 0.000593
297 0.000597
298 0.000534
299 0.000520
300 0.000448
301 0.000402
302 0.000399
303 0.000444
304 0.000502
305 0.000513
306 0.000475
307 0.000510
308 0.000497
309 0.000453
310 0.000359
311 0.000302
312 0.000215
313 0.000164
314 0.000144
315 0.000106
316 0.000063
317 0.000040
318 0.000013
319 -0.000001
320 -0.000030
321 -0.000044
322 -0.000007
323 0.000015
324 0.000026
325 0.000066
326 0.000116
327 0.000179
328 0.000240
329 0.000303
330 0.000317
331 0.000338
332 0.000386
333 0.000361
334 0.000312
335 0.000214
336 0.000180
337 0.000135
338 0.000051
339 0.000016
340 0.000035
341 0.000082
342 0.000097
343 0.000119
344 0.000143
345 0.000099
346 0.000062
347 0.000029
348 -0.000017
349 -0.000056
350 -0.000031
351 0.000022
352 0.000069
353 0.000037
354 0.000089
355 0.000116
356 0.000146
357 0.000139
358 0.000173
359 0.000205
360 0.000298
361 0.000348
362 0.000439
363 0.000463
364 0.000468
365 0.000447
366 0.000468
367 0.000437
368 0.000472
369 0.000530
370 0.000613
371 0.000597
372 0.000552
373 0.000536
374 0.000537
375 0.000517
376 0.000528
377 0.000500
378 0.000451
379 0.000447
380 0.000504
381 0.000572
382 0.000603
383 0.000636
384 0.000706
385 0.000742
386 0.000775
387 0.000762
388 0.000697
389 0.000635
390 0.000587
391 0.000576
392 0.000545
393 0.000557
394 0.000603
395 0.000716
396 0.000758
397 0.000804
398 0.000793
399 0.000733
400 0.000622
401 0.000531
402 0.000513
403 0.000556
404 0.000577
405 0.000619
406 0.000652
407 0.000671
408 0.000605
409 0.000551
410 0.000460
411 0.000397
412 0.000298
413 0.000252
414 0.000202
415 0.000194
416 0.000199
417 0.000257
418 0.000257
419 0.000186
420 0.000162
421 0.000159
422 0.000086
423 0.000034
424 -0.000027
425 -0.000083
426 -0.000118
427 -0.000135
428 -0.000175
429 -0.000210
430 -0.000213
431 -0.000181
432 -0.000141
433 -0.000169
434 -0.000212
435 -0.000210
436 -0.000204
437 -0.000216
438 -0.000207
439 -0.000221
440 -0.000198
441 -0.000175
442 -0.000071
443 0.000003
444 0.000058
445 0.000080
446 0.000072
447 0.000041
448 -0.000019
449 -0.000028
450 0.000041
451 0.000060
452 0.000037
453 0.000045
454 0.000055
455 -0.000000
456 -0.000048
457 -0.000081
458 -0.000078
459 -0.000085
460 -0.000074
461 -0.000027
462 0.000012
463 0.000006
464 0.000051
465 0.000067
466 0.000068
467 0.000082
468 0.000115
469 0.000158
470 0.000229
471 0.000297
472 0.000329
473 0.000297
474 0.000242
475 0.000171
476 0.000096
477 0.000082
478 0.000097
479 0.000168
480 0.000188
481 0.000229
482 0.000320
483 0.000350
484 0.000359
485 0.000358
486 0.000378
487 0.000410
488 0.000382
489 0.000394
490 0.000427
491 0.000513
492 0.000560
493 0.000577
494 0.000628
495 0.000617
496 0.000619
497 0.000643
498 0.000627
499 0.000607
500 0.000575
501 0.000526
502 0.000495
503 0.000444
504 0.000397
505 0.000389
506 0.000341
507 0.000276
508 0.000171
509 0.000062
510 -0.000033
511 -0.000085
512 -0.000089
513 -0.000094
514 -0.000083
515 -0.000067
516 -0.000023
517 0.000020
518 0.000012
519 -0.000017
520 -0.000009
521 -0.000006
522 -0.000019
523 -0.000031
524 0.000006
525 0.000049
526 0.000137
527 0.000238
528 0.000289
529 0.000294
530 0.000272
531 0.000262
532 0.000278
533 0.000263
534 0.000276
535 0.000238
536 0.000227
537 0.000151
538 0.000113
539 0.000090
540 0.000057
541 0.000064
542 0.000108
543 0.000120
544 0.000143
545 0.000158
546 0.000170
547 0.000204
548 0.000216
549 0.000178
550 0.000169
551 0.000155
552 0.000231
553 0.000343
554 0.000389
555 0.000435
556 0.000442
557 0.000486
558 0.000495
559 0.000475
560 0.000492
561 0.000498
562 0.000512
563 0.000558
564 0.000589
565 0.000596
566 0.000605
567 0.000552
568 0.000542
569 0.000504
570 0.000478
571 0.000500
572 0.000528
573 0.000522
574 0.000518
575 0.000573
576 0.000626
577 0.000703
578 0.000768
579 0.000811
580 0.000905
581 0.000970
582 0.000977
583 0.000989
584 0.001003
585 0.001015
586 0.001011
587 0.000972
588 0.000919
589 0.000925
590 0.000987
591 0.000987
592 0.000976
593 0.000913
594 0.000815
595 0.000751
596 0.000667
597 0.000568
598 0.000496
599 0.000424
600 0.000414
601 0.000436
602 0.000446
603 0.000475
604 0.000542
605 0.000574
606 0.000559
607 0.000578
608 0.000574
609 0.000603
610 0.000616
611 0.000596
612 0.000571
613 0.000555
614 0.000554
615 0.000565
616 0.000549
617 0.000513
618 0.000460
619 0.000401
620 0.000329
621 0.000306
622 0.000278
623 0.000262
624 0.000273
625 0.000289
626 0.000296
627 0.000344
628 0.000386
629 0.000423
630 0.000453
631 0.000489
632 0.000519
633 0.000527
634 0.000536
635 0.000560
636 0.000607
637 0.000644
638 0.000705
639 0.000768
640 0.000785
641 0.000748
642 0.000746
643 0.000720
644 0.000725
645 0.000736
646 0.000724
647 0.000650
648 0.000609
649 0.000578
650 0.000552
651 0.000515
652 0.000440
653 0.000411
654 0.000375
655 0.000370
656 0.000379
657 0.000419
658 0.000429
659 0.000511
660 0.000563
661 0.000651
662 0.000716
663 0.000776
664 0.000830
665 0.000899
666 0.000917
667 0.000924
668 0.000893
669 0.000888
670 0.000852
671 0.000835
672 0.000819
673 0.000819
674 0.000824
675 0.000831
676 0.000840
677 0.000813
678 0.000800
679 0.000744
680 0.000717
681 0.000666
682 0.000642
683 0.000619
684 0.000611
685 0.000604
686 0.000652
687 0.000644
688 0.000644
689 0.000625
690 0.000643
691 0.000604
692 0.000542
693 0.000482
694 0.000434
695 0.000389
696 0.000336
697 0.000297
698 0.000297
699 0.000320
700 0.000368
701 0.000364
702 0.000357
703 0.000347
704 0.000324
705 0.000282
706 0.000220
707 0.000198
708 0.000173
709 0.000179
710 0.000215
711 0.000277
712 0.000302
713 0.000312
714 0.000318
715 0.000341
716 0.000343
717 0.000354
718 0.000371
719 0.000368
720 0.000354
721 0.000353
722 0.000346
723 0.000349
724 0.000359
725 0.000360
726 0.000329
727 0.000304
728 0.000274
729 0.000266
730 0.000271
731 0.000278
732 0.000287
733 0.000259
734 0.000242
735 0.000257
736 0.000283
737 0.000322
738 0.000384
739 0.000406
740 0.000419
741 0.000407
742 0.000389
743 0.000356
744 0.000317
745 0.000300
746 0.000284
747 0.000280
748 0.000229
749 0.000230
750 0.000223
751 0.000181
752 0.000144
753 0.000097
754 0.000078
755 0.000066
756 0.000040
757 -0.000007
758 0.000004
759 0.000030
760 0.000062
761 0.000069
762 0.000069
763 0.000080
764 0.000096
765 0.000102
766 0.000114
767 0.000138
768 0.000139
769 0.000148
770 0.000126
771 0.000127
772 0.000132
773 0.000159
774 0.000190
775 0.000187
776 0.000194
777 0.000185
778 0.000138
779 0.000092
780 0.000009
781 -0.000048
782 -0.000077
783 -0.000095
784 -0.000121
785 -0.000127
786 -0.000131
787 -0.000085
788 -0.000076
789 -0.000064
790 -0.000058
791 -0.000012
792 0.000001
793 0.000019
794 0.000017
795 0.000008
796 0.000034
797 0.000057
798 0.000080
799 0.000097
800 0.000121
801 0.000177
802 0.000215
803 0.000228
804 0.000232
805 0.000231
806 0.000254
807 0.000220
808 0.000187
809 0.000156
