# i correlation
1 0.006582
2 0.005950
3 0.005354
4 0.004856
5 0.004466
6 0.004192
7 0.003978
8 0.003756
9 0.003617
10 0.003421
11 0.003261
12 0.003083
13 0.002982
14 0.002918
15 0.002882
16 0.002856
17 0.002825
18 0.002781
19 0.002715
20 0.002682
21 0.002635
22 0.002585
23 0.002539
24 0.002476
25 0.002532
26 0.002587
27 0.002531
28 0.002446
29 0.002376
30 0.002336
31 0.002313
32 0.002291
33 0.002231
34 0.002150
35 0.002083
36 0.002017
37 0.001969
38 0.001977
39 0.002016
40 0.001996
41 0.001943
42 0.001883
43 0.001852
44 0.001846
45 0.001773
46 0.001745
47 0.001695
48 0.001661
49 0.001587
50 0.001593
51 0.001607
52 0.001643
53 0.001580
54 0.001550
55 0.001549
56 0.001531
57 0.001592
58 0.001604
59 0.001601
60 0.001582
61 0.001580
62 0.001573
63 0.001568
64 0.001628
65 0.001660
66 0.001667
67 0.001703
68 0.001707
69 0.001758
70 0.001836
71 0.001868
72 0.001936
73 0.001982
74 0.002011
75 0.002021
76 0.001914
77 0.001851
78 0.001737
79 0.001697
80 0.001691
81 0.001618
82 0.001597
83 0.001591
84 0.001602
85 0.001628
86 0.001696
87 0.001804
88 0.001870
89 0.001974
90 0.002012
91 0.002085
92 0.002085
93 0.002173
94 0.002224
95 0.002294
96 0.002317
97 0.002283
98 0.002253
99 0.002078
100 0.001944
101 0.001802
102 0.001716
103 0.001627
104 0.001564
105 0.001439
106 0.001299
107 0.001161
108 0.001014
109 0.000942
110 0.000929
111 0.000951
112 0.000958
113 0.000992
114 0.000991
115 0.001009
116 0.001037
117 0.001046
118 0.001081
119 0.001157
120 0.001125
121 0.001045
122 0.001040
123 0.000963
124 0.001012
125 0.001013
126 0.001101
127 0.001169
128 0.001171
129 0.001150
130 0.001107
131 0.001017
132 0.000965
133 0.000924
134 0.000895
135 0.000812
136 0.000806
137 0.000842
138 0.000793
139 0.000811
140 0.000738
141 0.000757
142 0.000892
143 0.001026
144 0.001181
145 0.001343
146 0.001485
147 0.001514
148 0.001509
149 0.001455
150 0.001422
151 0.001414
152 0.001364
153 0.001370
154 0.001397
155 0.001446
156 0.001435
157 0.001434
158 0.001436
159 0.001409
160 0.001365
161 0.001304
162 0.001319
163 0.001326
164 0.001379
165 0.001377
166 0.001302
167 0.001188
168 0.001113
169 0.001099
170 0.001167
171 0.001198
172 0.001199
173 0.001159
174 0.001060
175 0.000999
176 0.001005
177 0.001001
178 0.001052
179 0.001052
180 0.001042
181 0.001008
182 0.000975
183 0.000993
184 0.001081
185 0.001142
186 0.001206
187 0.001246
188 0.001266
189 0.001383
190 0.001485
191 0.001610
192 0.001578
193 0.001490
194 0.001461
195 0.001385
196 0.001354
197 0.001407
198 0.001340
199 0.001321
200 0.001217
201 0.001097
202 0.000972
203 0.000874
204 0.000796
205 0.000639
206 0.000572
207 0.000562
208 0.000634
209 0.000684
210 0.000733
211 0.000786
212 0.000829
213 0.000842
214 0.000828
215 0.000841
216 0.000891
217 0.001062
218 0.001097
219 0.001064
220 0.001120
221 0.001104
222 0.001151
223 0.001211
224 0.001256
225 0.001233
226 0.001169
227 0.001040
228 0.000980
229 0.000965
230 0.001031
231 0.001023
232 0.000992
233 0.000970
234 0.000971
235 0.000979
236 0.000953
237 0.000976
238 0.000984
239 0.001029
240 0.001036
241 0.001042
242 0.001060
243 0.001092
244 0.001045
245 0.000974
246 0.000953
247 0.000875
248 0.000768
249 0.000715
250 0.000691
251 0.000688
252 0.000715
253 0.000772
254 0.000793
255 0.000776
256 0.000828
257 0.000819
258 0.000854
259 0.000854
260 0.000796
261 0.000803
262 0.000779
263 0.000783
264 0.000751
265 0.000726
266 0.000662
267 0.000628
268 0.000654
269 0.000638
270 0.000599
271 0.000602
272 0.000567
273 0.000596
274 0.000635
275 0.000645
276 0.000655
277 0.000650
278 0.000563
279 0.000514
280 0.000433
281 0.000425
282 0.000416
283 0.000422
284 0.000387
285 0.000350
286 0.000314
287 0.000291
288 0.000285
289 0.000293
290 0.000372
291 0.000400
292 0.000423
293 0.000424
294 0.000423
295 0.000436
296 0.000417
297 0.000458
298 0.000405
299 0.000358
300 0.000289
301 0.000229
302 0.000199
303 0.000243
304 0.000338
305 0.000403
306 0.000488
307 0.000553
308 0.000595
309 0.000586
310 0.000565
311 0.000570
312 0.000558
313 0.000604
314 0.000597
315 0.000664
316 0.000708
317 0.000761
318 0.000790
319 0.000803
320 0.000724
321 0.000705
322 0.000651
323 0.000628
324 0.000513
325 0.000390
326 0.000316
327 0.000230
328 0.000164
329 0.000123
330 0.000081
331 0.000013
332 -0.000047
333 0.000024
334 0.000066
335 0.000125
336 0.000202
337 0.000188
338 0.000189
339 0.000142
340 0.000125
341 0.000123
342 0.000153
343 0.000272
344 0.000455
345 0.000609
346 0.000650
347 0.000669
348 0.000683
349 0.000711
350 0.000799
351 0.000818
352 0.000812
353 0.000777
354 0.000787
355 0.000771
356 0.000837
357 0.000821
358 0.000775
359 0.000788
360 0.000768
361 0.000760
362 0.000730
363 0.000710
364 0.000638
365 0.000602
366 0.000565
367 0.000552
368 0.000517
369 0.000533
370 0.000603
371 0.000596
372 0.000587
373 0.000593
374 0.000578
375 0.000604
376 0.000660
377 0.000669
378 0.000634
379 0.000572
380 0.000578
381 0.000587
382 0.000593
383 0.000638
384 0.000672
385 0.000705
386 0.000692
387 0.000768
388 0.000857
389 0.000870
390 0.000934
391 0.000960
392 0.000998
393 0.001053
394 0.001051
395 0.001033
396 0.000985
397 0.000878
398 0.000805
399 0.000715
400 0.000700
401 0.000757
402 0.000794
403 0.000783
404 0.000768
405 0.000702
406 0.000679
407 0.000675
408 0.000751
409 0.000818
410 0.000903
411 0.000890
412 0.000834
413 0.000767
414 0.000733
415 0.000704
416 0.000659
417 0.000656
418 0.000586
419 0.000565
420 0.000575
421 0.000640
422 0.000679
423 0.000688
424 0.000706
425 0.000720
426 0.000732
427 0.000721
428 0.000698
429 0.000637
430 0.000554
431 0.000515
432 0.000480
433 0.000500
434 0.000549
435 0.000601
436 0.000590
437 0.000610
438 0.000616
439 0.000594
440 0.000576
441 0.000595
442 0.000587
443 0.000627
444 0.000629
445 0.000681
446 0.000688
447 0.000765
448 0.000808
449 0.000832
450 0.000873
451 0.000843
452 0.000865
453 0.000851
454 0.000852
455 0.000809
456 0.000699
457 0.000590
458 0.000470
459 0.000382
460 0.000397
461 0.000413
462 0.000468
463 0.000504
464 0.000562
465 0.000594
466 0.000601
467 0.000613
468 0.000597
469 0.000525
470 0.000461
471 0.000412
472 0.000394
473 0.000410
474 0.000400
475 0.000354
476 0.000321
477 0.000305
478 0.000323
479 0.000304
480 0.000307
481 0.000370
482 0.000404
483 0.000461
484 0.000454
485 0.000484
486 0.000491
487 0.000558
488 0.000601
489 0.000626
490 0.000633
491 0.000663
492 0.000660
493 0.000647
494 0.000704
495 0.000742
496 0.000783
497 0.000775
498 0.000798
499 0.000859
500 0.000872
501 0.000889
502 0.000884
503 0.000902
504 0.000912
505 0.000940
506 0.000973
507 0.001015
508 0.001061
509 0.001058
510 0.001043
511 0.001004
512 0.001003
513 0.000974
514 0.000968
515 0.000951
516 0.000944
517 0.000946
518 0.000912
519 0.000844
520 0.000853
521 0.000882
522 0.000891
523 0.000826
524 0.000763
525 0.000698
526 0.000637
527 0.000598
528 0.000530
529 0.000524
530 0.000556
531 0.000495
532 0.000446
533 0.000416
534 0.000432
535 0.000475
536 0.000546
537 0.000542
538 0.000509
539 0.000513
540 0.000485
541 0.000478
542 0.000480
543 0.000489
544 0.000498
545 0.000472
546 0.000440
547 0.000471
548 0.000505
549 0.000487
550 0.000477
551 0.000455
552 0.000412
553 0.000403
554 0.000346
555 0.000286
556 0.000265
557 0.000196
558 0.000133
559 0.000033
560 -0.000007
561 -0.000073
562 -0.000140
563 -0.000253
564 -0.000301
565 -0.000310
566 -0.000320
567 -0.000307
568 -0.000273
569 -0.000239
570 -0.000214
571 -0.000167
572 -0.000154
573 -0.000122
574 -0.000081
575 -0.000062
576 -0.000033
577 -0.000010
578 -0.000020
579 -0.000007
580 0.000047
581 0.000098
582 0.000128
583 0.000114
584 0.000129
585 0.000110
586 0.000102
587 0.000132
588 0.000146
589 0.000126
590 0.000147
591 0.000200
592 0.000275
593 0.000299
594 0.000312
595 0.000290
596 0.000273
597 0.000252
598 0.000222
599 0.000217
600 0.000256
601 0.000273
602 0.000268
603 0.000273
604 0.000269
605 0.000260
606 0.000250
607 0.000225
608 0.000191
609 0.000214
610 0.000257
611 0.000294
612 0.000337
613 0.000329
614 0.000304
615 0.000279
616 0.000232
617 0.000200
618 0.000208
619 0.000230
620 0.000253
621 0.000228
622 0.000193
623 0.000149
624 0.000136
625 0.000117
626 0.000095
627 0.000060
628 0.000024
629 -0.000052
630 -0.000100
631 -0.000140
632 -0.000168
633 -0.000193
634 -0.000208
635 -0.000267
636 -0.000332
637 -0.000387
638 -0.000411
639 -0.000438
640 -0.000444
641 -0.000440
642 -0.000459
643 -0.000493
644 -0.000500
645 -0.000476
646 -0.000468
647 -0.000473
648 -0.000505
649 -0.000520
650 -0.000542
651 -0.000549
652 -0.000577
653 -0.000649
654 -0.000730
655 -0.000784
656 -0.000812
657 -0.000844
658 -0.000842
659 -0.000837
660 -0.000815
661 -0.000769
662 -0.000735
663 -0.000670
664 -0.000596
665 -0.000561
666 -0.000464
667 -0.000362
668 -0.000303
669 -0.000267
670 -0.000249
671 -0.000234
672 -0.000246
673 -0.000274
674 -0.000337
675 -0.000384
676 -0.000452
677 -0.000484
678 -0.000474
679 -0.000491
680 -0.000469
681 -0.000453
682 -0.000466
683 -0.000475
684 -0.000463
685 -0.000440
686 -0.000419
687 -0.000405
688 -0.000375
689 -0.000320
690 -0.000272
691 -0.000254
692 -0.000261
693 -0.000289
694 -0.000317
695 -0.000342
696 -0.000344
697 -0.000348
698 -0.000302
699 -0.000245
700 -0.000202
701 -0.000187
702 -0.000229
703 -0.000224
704 -0.000238
705 -0.000233
706 -0.000206
707 -0.000158
708 -0.000143
709 -0.000197
710 -0.000259
711 -0.000312
712 -0.000378
713 -0.000441
714 -0.000450
715 -0.000482
716 -0.000496
717 -0.000527
718 -0.000573
719 -0.000589
720 -0.000577
721 -0.000534
722 -0.000539
723 -0.000565
724 -0.000610
725 -0.000647
726 -0.000675
727 -0.000727
728 -0.000749
729 -0.000753
730 -0.000728
731 -0.000719
732 -0.000728
733 -0.000735
734 -0.000743
735 -0.000746
736 -0.000742
737 -0.000714
738 -0.000669
739 -0.000604
740 -0.000567
741 -0.000532
742 -0.000529
743 -0.000545
744 -0.000558
745 -0.000572
746 -0.000531
747 -0.000487
748 -0.000490
749 -0.000533
750 -0.000556
751 -0.000600
752 -0.000632
753 -0.000652
754 -0.000650
755 -0.000645
756 -0.000631
757 -0.000596
758 -0.000588
759 -0.000593
760 -0.000535
761 -0.000485
762 -0.000459
763 -0.000416
764 -0.000355
765 -0.000332
766 -0.000318
767 -0.000329
768 -0.000316
769 -0.000304
770 -0.000290
771 -0.000253
772 -0.000247
773 -0.000247
774 -0.000267
775 -0.000290
776 -0.000323
777 -0.000359
778 -0.000361
779 -0.000364
780 -0.000378
781 -0.000407
782 -0.000423
783 -0.000450
784 -0.000487
785 -0.000493
786 -0.000487
787 -0.000492
788 -0.000494
789 -0.000491
790 -0.000496
791 -0.000504
792 -0.000535
793 -0.000538
794 -0.000511
795 -0.000482
796 -0.000449
797 -0.000428
798 -0.000426
799 -0.000463
800 -0.000501
801 -0.000552
802 -0.000593
803 -0.000605
804 -0.000602
805 -0.000593
806 -0.000614
807 -0.000646
808 -0.000678
809 -0.000691
