# i correlation
1 0.005119
2 0.004541
3 0.004025
4 0.003530
5 0.003108
6 0.002784
7 0.002456
8 0.002223
9 0.001937
10 0.001756
11 0.001649
12 0.001547
13 0.001524
14 0.001442
15 0.001408
16 0.001399
17 0.001370
18 0.001372
19 0.001397
20 0.001352
21 0.001403
22 0.001443
23 0.001465
24 0.001449
25 0.001447
26 0.001381
27 0.001267
28 0.001184
29 0.001117
30 0.001040
31 0.001066
32 0.001116
33 0.001149
34 0.001256
35 0.001289
36 0.001339
37 0.001352
38 0.001369
39 0.001357
40 0.001323
41 0.001243
42 0.001167
43 0.001148
44 0.001105
45 0.001062
46 0.001027
47 0.001028
48 0.001051
49 0.001180
50 0.001257
51 0.001283
52 0.001307
53 0.001327
54 0.001354
55 0.001406
56 0.001466
57 0.001527
58 0.001526
59 0.001517
60 0.001583
61 0.001607
62 0.001728
63 0.001725
64 0.001655
65 0.001694
66 0.001752
67 0.001730
68 0.001788
69 0.001909
70 0.001960
71 0.002008
72 0.001976
73 0.001974
74 0.001971
75 0.001910
76 0.001848
77 0.001834
78 0.001721
79 0.001558
80 0.001390
81 0.001208
82 0.001080
83 0.001023
84 0.001024
85 0.001045
86 0.001066
87 0.001061
88 0.001083
89 0.001031
90 0.000980
91 0.000921
92 0.000881
93 0.000793
94 0.000794
95 0.000766
96 0.000796
97 0.000832
98 0.000911
99 0.000946
100 0.000993
101 0.001052
102 0.001091
103 0.001179
104 0.001225
105 0.001277
106 0.001285
107 0.001246
108 0.001202
109 0.001168
110 0.001125
111 0.001137
112 0.001100
113 0.000999
114 0.000962
115 0.000943
116 0.000923
117 0.000907
118 0.000956
119 0.001026
120 0.001111
121 0.001092
122 0.001085
123 0.001089
124 0.001111
125 0.001130
126 0.001124
127 0.001181
128 0.001258
129 0.001236
130 0.001146
131 0.001024
132 0.000960
133 0.000905
134 0.000834
135 0.000780
136 0.000732
137 0.000725
138 0.000712
139 0.000772
140 0.000813
141 0.000891
142 0.000886
143 0.000922
144 0.000940
145 0.000907
146 0.000879
147 0.000883
148 0.000861
149 0.000820
150 0.000832
151 0.000819
152 0.000785
153 0.000730
154 0.000750
155 0.000742
156 0.000710
157 0.000650
158 0.000608
159 0.000569
160 0.000605
161 0.000696
162 0.000758
163 0.000868
164 0.000921
165 0.000956
166 0.001024
167 0.001057
168 0.001083
169 0.001085
170 0.001010
171 0.000941
172 0.000876
173 0.000838
174 0.000798
175 0.000793
176 0.000829
177 0.000892
178 0.000831
179 0.000710
180 0.000653
181 0.000612
182 0.000588
183 0.000617
184 0.000679
185 0.000760
186 0.000769
187 0.000729
188 0.000736
189 0.000804
190 0.000919
191 0.001002
192 0.000977
193 0.000949
194 0.000940
195 0.000989
196 0.001027
197 0.001036
198 0.000987
199 0.000920
200 0.000838
201 0.000819
202 0.000770
203 0.000809
204 0.000874
205 0.000865
206 0.000892
207 0.000912
208 0.000903
209 0.000871
210 0.000889
211 0.000873
212 0.000858
213 0.000776
214 0.000763
215 0.000716
216 0.000688
217 0.000656
218 0.000650
219 0.000723
220 0.000768
221 0.000807
222 0.000863
223 0.000876
224 0.000895
225 0.000903
226 0.000916
227 0.000963
228 0.000951
229 0.000987
230 0.001022
231 0.001040
232 0.001051
233 0.001131
234 0.001168
235 0.001245
236 0.001263
237 0.001283
238 0.001323
239 0.001370
240 0.001384
241 0.001396
242 0.001376
243 0.001383
244 0.001364
245 0.001305
246 0.001301
247 0.001299
248 0.001234
249 0.001159
250 0.001085
251 0.001047
252 0.001026
253 0.001083
254 0.001126
255 0.001136
256 0.001101
257 0.001109
258 0.001116
259 0.001157
260 0.001193
261 0.001196
262 0.001104
263 0.001038
264 0.000985
265 0.000958
266 0.000970
267 0.000923
268 0.000790
269 0.000719
270 0.000640
271 0.000586
272 0.000616
273 0.000716
274 0.000769
275 0.000845
276 0.000906
277 0.000943
278 0.000990
279 0.001020
280 0.001035
281 0.001109
282 0.001100
283 0.001091
284 0.001015
285 0.000982
286 0.000906
287 0.000844
288 0.000869
289 0.000867
290 0.000835
291 0.000863
292 0.000918
293 0.001031
294 0.001095
295 0.001226
296 0.001382
297 0.001442
298 0.001504
299 0.001523
300 0.001532
301 0.001535
302 0.001558
303 0.001527
304 0.001588
305 0.001579
306 0.001575
307 0.001508
308 0.001421
309 0.001374
310 0.001426
311 0.001423
312 0.001444
313 0.001449
314 0.001405
315 0.001391
316 0.001402
317 0.001412
318 0.001437
319 0.001437
320 0.001400
321 0.001344
322 0.001232
323 0.001147
324 0.001096
325 0.001029
326 0.000975
327 0.000905
328 0.000860
329 0.000870
330 0.000870
331 0.000917
332 0.000979
333 0.000969
334 0.000935
335 0.000976
336 0.000971
337 0.000998
338 0.001063
339 0.001064
340 0.001082
341 0.001054
342 0.001054
343 0.001050
344 0.000998
345 0.000961
346 0.000879
347 0.000832
348 0.000782
349 0.000770
350 0.000782
351 0.000845
352 0.000893
353 0.000974
354 0.001086
355 0.001151
356 0.001150
357 0.001117
358 0.001146
359 0.001193
360 0.001180
361 0.001234
362 0.001263
363 0.001275
364 0.001293
365 0.001296
366 0.001331
367 0.001368
368 0.001316
369 0.001258
370 0.001157
371 0.001093
372 0.001028
373 0.001036
374 0.001053
375 0.001063
376 0.001080
377 0.001083
378 0.001051
379 0.001046
380 0.001059
381 0.001081
382 0.001076
383 0.001051
384 0.000965
385 0.000838
386 0.000761
387 0.000727
388 0.000687
389 0.000632
390 0.000591
391 0.000544
392 0.000477
393 0.000451
394 0.000433
395 0.000368
396 0.000307
397 0.000236
398 0.000249
399 0.000209
400 0.000213
401 0.000265
402 0.000353
403 0.000448
404 0.000575
405 0.000647
406 0.000680
407 0.000706
408 0.000716
409 0.000689
410 0.000675
411 0.000653
412 0.000607
413 0.000536
414 0.000529
415 0.000539
416 0.000584
417 0.000654
418 0.000665
419 0.000657
420 0.000641
421 0.000625
422 0.000589
423 0.000583
424 0.000561
425 0.000543
426 0.000544
427 0.000600
428 0.000608
429 0.000693
430 0.000762
431 0.000768
432 0.000724
433 0.000660
434 0.000570
435 0.000504
436 0.000504
437 0.000497
438 0.000536
439 0.000589
440 0.000650
441 0.000664
442 0.000706
443 0.000772
444 0.000812
445 0.000789
446 0.000790
447 0.000739
448 0.000679
449 0.000653
450 0.000625
451 0.000600
452 0.000543
453 0.000512
454 0.000486
455 0.000443
456 0.000432
457 0.000429
458 0.000441
459 0.000427
460 0.000412
461 0.000420
462 0.000476
463 0.000519
464 0.000537
465 0.000618
466 0.000607
467 0.000640
468 0.000627
469 0.000594
470 0.000560
471 0.000548
472 0.000487
473 0.000450
474 0.000396
475 0.000352
476 0.000354
477 0.000330
478 0.000326
479 0.000410
480 0.000520
481 0.000619
482 0.000685
483 0.000709
484 0.000702
485 0.000677
486 0.000658
487 0.000674
488 0.000670
489 0.000630
490 0.000554
491 0.000471
492 0.000390
493 0.000288
494 0.000196
495 0.000151
496 0.000110
497 0.000028
498 -0.000037
499 -0.000053
500 -0.000038
501 0.000011
502 0.000098
503 0.000152
504 0.000185
505 0.000260
506 0.000336
507 0.000390
508 0.000454
509 0.000464
510 0.000458
511 0.000393
512 0.000321
513 0.000268
514 0.000252
515 0.000267
516 0.000286
517 0.000273
518 0.000259
519 0.000210
520 0.000214
521 0.000164
522 0.000138
523 0.000095
524 0.000075
525 0.000075
526 0.000105
527 0.000166
528 0.000198
529 0.000156
530 0.000148
531 0.000217
532 0.000280
533 0.000349
534 0.000430
535 0.000473
536 0.000539
537 0.000557
538 0.000564
539 0.000639
540 0.000667
541 0.000708
542 0.000786
543 0.000777
544 0.000747
545 0.000730
546 0.000683
547 0.000598
548 0.000511
549 0.000490
550 0.000497
551 0.000485
552 0.000460
553 0.000402
554 0.000374
555 0.000337
556 0.000314
557 0.000340
558 0.000380
559 0.000455
560 0.000449
561 0.000422
562 0.000369
563 0.000262
564 0.000229
565 0.000219
566 0.000170
567 0.000176
568 0.000180
569 0.000119
570 0.000128
571 0.000123
572 0.000120
573 0.000143
574 0.000166
575 0.000161
576 0.000169
577 0.000167
578 0.000185
579 0.000221
580 0.000205
581 0.000214
582 0.000226
583 0.000267
584 0.000258
585 0.000277
586 0.000261
587 0.000212
588 0.000127
589 0.000077
590 0.000031
591 0.000038
592 0.000046
593 0.000102
594 0.000134
595 0.000193
596 0.000212
597 0.000221
598 0.000236
599 0.000296
600 0.000293
601 0.000295
602 0.000330
603 0.000311
604 0.000333
605 0.000315
606 0.000335
607 0.000348
608 0.000405
609 0.000413
610 0.000426
611 0.000433
612 0.000475
613 0.000477
614 0.000523
615 0.000546
616 0.000585
617 0.000578
618 0.000510
619 0.000484
620 0.000497
621 0.000490
622 0.000441
623 0.000381
624 0.000346
625 0.000314
626 0.000294
627 0.000295
628 0.000284
629 0.000260
630 0.000249
631 0.000244
632 0.000214
633 0.000195
634 0.000174
635 0.000156
636 0.000139
637 0.000130
638 0.000120
639 0.000097
640 0.000056
641 0.000030
642 0.000039
643 0.000025
644 0.000009
645 0.000016
646 -0.000020
647 0.000004
648 0.000040
649 0.000017
650 0.000020
651 0.000013
652 0.000011
653 0.000042
654 0.000091
655 0.000145
656 0.000183
657 0.000229
658 0.000260
659 0.000274
660 0.000274
661 0.000324
662 0.000350
663 0.000334
664 0.000349
665 0.000355
666 0.000346
667 0.000294
668 0.000281
669 0.000324
670 0.000368
671 0.000414
672 0.000434
673 0.000458
674 0.000434
675 0.000369
676 0.000346
677 0.000351
678 0.000301
679 0.000308
680 0.000277
681 0.000246
682 0.000235
683 0.000212
684 0.000227
685 0.000235
686 0.000294
687 0.000369
688 0.000352
689 0.000306
690 0.000296
691 0.000237
692 0.000207
693 0.000195
694 0.000169
695 0.000137
696 0.000117
697 0.000081
698 0.000058
699 0.000025
700 0.000050
701 0.000034
702 0.000045
703 0.000070
704 0.000096
705 0.000140
706 0.000169
707 0.000147
708 0.000111
709 0.000069
710 0.000043
711 0.000070
712 0.000078
713 0.000060
714 0.000032
715 0.000002
716 -0.000029
717 -0.000059
718 -0.000059
719 -0.000044
720 -0.000042
721 -0.000049
722 0.000014
723 0.000069
724 0.000125
725 0.000177
726 0.000209
727 0.000252
728 0.000289
729 0.000288
730 0.000274
731 0.000274
732 0.000271
733 0.000247
734 0.000234
735 0.000250
736 0.000304
737 0.000310
738 0.000307
739 0.000302
740 0.000294
741 0.000289
742 0.000293
743 0.000300
744 0.000318
745 0.000339
746 0.000357
747 0.000384
748 0.000371
749 0.000369
750 0.000358
751 0.000295
752 0.000206
753 0.000144
754 0.000058
755 0.000017
756 -0.000002
757 -0.000031
758 -0.000034
759 -0.000022
760 0.000011
761 0.000032
762 0.000050
763 0.000070
764 0.000094
765 0.000090
766 0.000088
767 0.000065
768 0.000034
769 0.000033
770 0.000024
771 0.000002
772 -0.000007
773 -0.000021
774 -0.000055
775 -0.000080
776 -0.000097
777 -0.000102
778 -0.000107
779 -0.000120
780 -0.000112
781 -0.000081
782 -0.000028
783 -0.000001
784 0.000026
785 0.000071
786 0.000091
787 0.000082
788 0.000082
789 0.000076
790 0.000065
791 0.000063
792 0.000064
793 0.000077
794 0.000092
795 0.000095
796 0.000081
797 0.000083
798 0.000128
799 0.000125
800 0.000128
801 0.000175
802 0.000177
803 0.000183
804 0.000176
805 0.000189
806 0.000199
807 0.000192
808 0.000177
809 0.000191
