# i correlation
1 0.006068
2 0.005453
3 0.004958
4 0.004514
5 0.004166
6 0.003782
7 0.003445
8 0.003150
9 0.002909
10 0.002809
11 0.002660
12 0.002570
13 0.002491
14 0.002383
15 0.002279
16 0.002218
17 0.002138
18 0.002031
19 0.001964
20 0.001968
21 0.001874
22 0.001825
23 0.001809
24 0.001803
25 0.001825
26 0.001858
27 0.001956
28 0.002020
29 0.002126
30 0.002225
31 0.002363
32 0.002485
33 0.002555
34 0.002619
35 0.002609
36 0.002542
37 0.002508
38 0.002410
39 0.002349
40 0.002285
41 0.002180
42 0.002068
43 0.001963
44 0.001911
45 0.001873
46 0.001746
47 0.001639
48 0.001489
49 0.001361
50 0.001315
51 0.001283
52 0.001191
53 0.001118
54 0.000995
55 0.000968
56 0.000967
57 0.001030
58 0.001080
59 0.001147
60 0.001233
61 0.001330
62 0.001363
63 0.001474
64 0.001599
65 0.001673
66 0.001751
67 0.001763
68 0.001723
69 0.001737
70 0.001696
71 0.001663
72 0.001656
73 0.001667
74 0.001691
75 0.001610
76 0.001630
77 0.001618
78 0.001558
79 0.001608
80 0.001609
81 0.001582
82 0.001530
83 0.001424
84 0.001441
85 0.001395
86 0.001354
87 0.001229
88 0.001116
89 0.001081
90 0.001107
91 0.001071
92 0.001096
93 0.001084
94 0.001130
95 0.001199
96 0.001256
97 0.001242
98 0.001232
99 0.001271
100 0.001267
101 0.001266
102 0.001304
103 0.001289
104 0.001281
105 0.001306
106 0.001329
107 0.001363
108 0.001348
109 0.001365
110 0.001366
111 0.001426
112 0.001378
113 0.001390
114 0.001379
115 0.001287
116 0.001189
117 0.001144
118 0.000999
119 0.000898
120 0.000872
121 0.000787
122 0.000739
123 0.000683
124 0.000681
125 0.000654
126 0.000609
127 0.000547
128 0.000525
129 0.000597
130 0.000682
131 0.000765
132 0.000809
133 0.000883
134 0.001006
135 0.001073
136 0.001160
137 0.001239
138 0.001238
139 0.001248
140 0.001269
141 0.001291
142 0.001325
143 0.001366
144 0.001502
145 0.001589
146 0.001581
147 0.001527
148 0.001509
149 0.001539
150 0.001567
151 0.001546
152 0.001447
153 0.001371
154 0.001240
155 0.001138
156 0.001034
157 0.000849
158 0.000712
159 0.000637
160 0.000657
161 0.000605
162 0.000570
163 0.000554
164 0.000607
165 0.000638
166 0.000668
167 0.000668
168 0.000696
169 0.000771
170 0.000820
171 0.000904
172 0.000991
173 0.001007
174 0.001011
175 0.001043
176 0.001126
177 0.001123
178 0.001078
179 0.001013
180 0.000913
181 0.000979
182 0.001063
183 0.001143
184 0.001178
185 0.001171
186 0.001155
187 0.001125
188 0.001010
189 0.000965
190 0.000861
191 0.000739
192 0.000655
193 0.000538
194 0.000482
195 0.000411
196 0.000360
197 0.000332
198 0.000229
199 0.000151
200 0.000086
201 0.000156
202 0.000186
203 0.000202
204 0.000232
205 0.000245
206 0.000354
207 0.000426
208 0.000486
209 0.000602
210 0.000738
211 0.000789
212 0.000782
213 0.000726
214 0.000683
215 0.000656
216 0.000754
217 0.000788
218 0.000814
219 0.000826
220 0.000844
221 0.000872
222 0.000799
223 0.000686
224 0.000596
225 0.000481
226 0.000427
227 0.000415
228 0.000437
229 0.000475
230 0.000533
231 0.000497
232 0.000388
233 0.000286
234 0.000289
235 0.000235
236 0.000204
237 0.000159
238 0.000079
239 0.000009
240 0.000017
241 0.000031
242 0.000122
243 0.000135
244 0.000202
245 0.000346
246 0.000414
247 0.000498
248 0.000534
249 0.000502
250 0.000517
251 0.000463
252 0.000432
253 0.000391
254 0.000408
255 0.000444
256 0.000440
257 0.000424
258 0.000433
259 0.000420
260 0.000358
261 0.000340
262 0.000309
263 0.000283
264 0.000189
265 0.000119
266 0.000063
267 0.000061
268 0.000084
269 0.000113
270 0.000159
271 0.000205
272 0.000186
273 0.000244
274 0.000243
275 0.000334
276 0.000385
277 0.000439
278 0.000510
279 0.000562
280 0.000605
281 0.000667
282 0.000722
283 0.000787
284 0.000826
285 0.000877
286 0.000917
287 0.000886
288 0.000861
289 0.000868
290 0.000876
291 0.000844
292 0.000875
293 0.000871
294 0.000857
295 0.000922
296 0.000993
297 0.001002
298 0.000985
299 0.000903
300 0.000913
301 0.000878
302 0.000785
303 0.000692
304 0.000641
305 0.000579
306 0.000614
307 0.000600
308 0.000619
309 0.000665
310 0.000670
311 0.000738
312 0.000763
313 0.000820
314 0.000926
315 0.001009
316 0.001165
317 0.001202
318 0.001239
319 0.001232
320 0.001278
321 0.001383
322 0.001397
323 0.001394
324 0.001336
325 0.001220
326 0.001267
327 0.001281
328 0.001275
329 0.001243
330 0.001196
331 0.001184
332 0.001239
333 0.001205
334 0.001127
335 0.001077
336 0.001082
337 0.001031
338 0.001024
339 0.000970
340 0.000902
341 0.000924
342 0.000976
343 0.001057
344 0.001027
345 0.001035
346 0.001050
347 0.001082
348 0.001056
349 0.001034
350 0.001007
351 0.000986
352 0.000969
353 0.000981
354 0.000983
355 0.000988
356 0.000967
357 0.000993
358 0.001019
359 0.001118
360 0.001164
361 0.001228
362 0.001238
363 0.001203
364 0.001099
365 0.001040
366 0.001013
367 0.000976
368 0.000861
369 0.000743
370 0.000659
371 0.000585
372 0.000542
373 0.000520
374 0.000478
375 0.000430
376 0.000427
377 0.000431
378 0.000439
379 0.000480
380 0.000560
381 0.000618
382 0.000651
383 0.000672
384 0.000652
385 0.000588
386 0.000479
387 0.000404
388 0.000345
389 0.000290
390 0.000291
391 0.000246
392 0.000273
393 0.000381
394 0.000461
395 0.000568
396 0.000589
397 0.000585
398 0.000623
399 0.000709
400 0.000752
401 0.000743
402 0.000712
403 0.000754
404 0.000688
405 0.000636
406 0.000603
407 0.000558
408 0.000523
409 0.000465
410 0.000418
411 0.000442
412 0.000486
413 0.000507
414 0.000525
415 0.000567
416 0.000578
417 0.000593
418 0.000566
419 0.000572
420 0.000586
421 0.000572
422 0.000631
423 0.000686
424 0.000720
425 0.000665
426 0.000659
427 0.000745
428 0.000807
429 0.000809
430 0.000766
431 0.000790
432 0.000780
433 0.000753
434 0.000751
435 0.000703
436 0.000603
437 0.000583
438 0.000568
439 0.000577
440 0.000651
441 0.000688
442 0.000667
443 0.000658
444 0.000640
445 0.000649
446 0.000682
447 0.000690
448 0.000657
449 0.000582
450 0.000529
451 0.000492
452 0.000481
453 0.000426
454 0.000401
455 0.000382
456 0.000440
457 0.000470
458 0.000509
459 0.000492
460 0.000438
461 0.000413
462 0.000382
463 0.000327
464 0.000332
465 0.000296
466 0.000330
467 0.000355
468 0.000353
469 0.000359
470 0.000318
471 0.000277
472 0.000279
473 0.000266
474 0.000314
475 0.000376
476 0.000439
477 0.000499
478 0.000527
479 0.000577
480 0.000620
481 0.000615
482 0.000618
483 0.000618
484 0.000608
485 0.000614
486 0.000571
487 0.000553
488 0.000549
489 0.000554
490 0.000618
491 0.000657
492 0.000692
493 0.000721
494 0.000682
495 0.000644
496 0.000637
497 0.000655
498 0.000686
499 0.000654
500 0.000581
501 0.000565
502 0.000507
503 0.000529
504 0.000544
505 0.000538
506 0.000563
507 0.000540
508 0.000503
509 0.000478
510 0.000467
511 0.000465
512 0.000459
513 0.000458
514 0.000460
515 0.000455
516 0.000431
517 0.000441
518 0.000442
519 0.000405
520 0.000312
521 0.000192
522 0.000135
523 0.000099
524 0.000028
525 0.000015
526 0.000006
527 -0.000009
528 -0.000039
529 -0.000040
530 0.000010
531 0.000040
532 0.000018
533 0.000018
534 -0.000005
535 -0.000007
536 -0.000000
537 -0.000035
538 -0.000102
539 -0.000213
540 -0.000260
541 -0.000357
542 -0.000400
543 -0.000397
544 -0.000403
545 -0.000371
546 -0.000373
547 -0.000397
548 -0.000322
549 -0.000282
550 -0.000290
551 -0.000297
552 -0.000335
553 -0.000353
554 -0.000353
555 -0.000395
556 -0.000391
557 -0.000414
558 -0.000414
559 -0.000396
560 -0.000398
561 -0.000366
562 -0.000328
563 -0.000269
564 -0.000242
565 -0.000192
566 -0.000167
567 -0.000129
568 -0.000076
569 -0.000041
570 0.000019
571 0.000070
572 0.000093
573 0.000058
574 -0.000019
575 -0.000040
576 -0.000081
577 -0.000102
578 -0.000107
579 -0.000144
580 -0.000217
581 -0.000264
582 -0.000299
583 -0.000372
584 -0.000394
585 -0.000446
586 -0.000527
587 -0.000584
588 -0.000636
589 -0.000680
590 -0.000685
591 -0.000613
592 -0.000546
593 -0.000468
594 -0.000433
595 -0.000401
596 -0.000396
597 -0.000421
598 -0.000454
599 -0.000457
600 -0.000445
601 -0.000428
602 -0.000410
603 -0.000396
604 -0.000351
605 -0.000327
606 -0.000327
607 -0.000331
608 -0.000358
609 -0.000383
610 -0.000412
611 -0.000403
612 -0.000381
613 -0.000362
614 -0.000340
615 -0.000340
616 -0.000353
617 -0.000368
618 -0.000384
619 -0.000401
620 -0.000448
621 -0.000480
622 -0.000484
623 -0.000501
624 -0.000483
625 -0.000465
626 -0.000478
627 -0.000466
628 -0.000424
629 -0.000361
630 -0.000310
631 -0.000298
632 -0.000274
633 -0.000291
634 -0.000347
635 -0.000335
636 -0.000349
637 -0.000378
638 -0.000380
639 -0.000386
640 -0.000402
641 -0.000399
642 -0.000358
643 -0.000305
644 -0.000247
645 -0.000196
646 -0.000225
647 -0.000244
648 -0.000250
649 -0.000248
650 -0.000246
651 -0.000199
652 -0.000177
653 -0.000165
654 -0.000152
655 -0.000147
656 -0.000137
657 -0.000102
658 -0.000027
659 0.000036
660 0.000073
661 0.000121
662 0.000154
663 0.000144
664 0.000145
665 0.000142
666 0.000111
667 0.000076
668 0.000073
669 0.000097
670 0.000080
671 0.000064
672 0.000031
673 0.000009
674 0.000030
675 0.000032
676 0.000028
677 0.000022
678 0.000027
679 0.000018
680 -0.000010
681 -0.000038
682 -0.000034
683 -0.000057
684 -0.000088
685 -0.000064
686 -0.000060
687 -0.000034
688 -0.000029
689 -0.000041
690 -0.000048
691 -0.000056
692 -0.000073
693 -0.000087
694 -0.000128
695 -0.000136
696 -0.000155
697 -0.000213
698 -0.000206
699 -0.000178
700 -0.000153
701 -0.000153
702 -0.000152
703 -0.000168
704 -0.000153
705 -0.000129
706 -0.000117
707 -0.000130
708 -0.000131
709 -0.000100
710 -0.000110
711 -0.000116
712 -0.000077
713 -0.000036
714 -0.000004
715 0.000027
716 0.000063
717 0.000073
718 0.000069
719 0.000106
720 0.000150
721 0.000209
722 0.000261
723 0.000246
724 0.000225
725 0.000204
726 0.000171
727 0.000147
728 0.000097
729 0.000040
730 -0.000054
731 -0.000111
732 -0.000129
733 -0.000179
734 -0.000202
735 -0.000166
736 -0.000172
737 -0.000140
738 -0.000103
739 -0.000098
740 -0.000091
741 -0.000108
742 -0.000125
743 -0.000146
744 -0.000124
745 -0.000098
746 -0.000042
747 -0.000017
748 0.000010
749 0.000019
750 0.000035
751 0.000045
752 0.000066
753 0.000099
754 0.000133
755 0.000160
756 0.000181
757 0.000179
758 0.000169
759 0.000140
760 0.000147
761 0.000121
762 0.000063
763 0.000031
764 0.000031
765 0.000027
766 0.000051
767 0.000073
768 0.000062
769 0.000063
770 0.000034
771 0.000002
772 -0.000001
773 -0.000001
774 -0.000005
775 -0.000023
776 -0.000023
777 0.000007
778 0.000047
779 0.000087
780 0.000134
781 0.000154
782 0.000189
783 0.000210
784 0.000209
785 0.000221
786 0.000231
787 0.000256
788 0.000276
789 0.000301
790 0.000353
791 0.000383
792 0.000388
793 0.000396
794 0.000401
795 0.000417
796 0.000423
797 0.000404
798 0.000389
799 0.000361
800 0.000329
801 0.000327
802 0.000333
803 0.000326
804 0.000321
805 0.000297
806 0.000276
807 0.000262
808 0.000236
809 0.000223
