# i correlation
1 0.004695
2 0.004015
3 0.003508
4 0.003108
5 0.002814
6 0.002564
7 0.002314
8 0.002130
9 0.001931
10 0.001759
11 0.001606
12 0.001439
13 0.001404
14 0.001431
15 0.001415
16 0.001337
17 0.001203
18 0.001112
19 0.001090
20 0.001058
21 0.000988
22 0.000908
23 0.000779
24 0.000717
25 0.000675
26 0.000610
27 0.000579
28 0.000571
29 0.000657
30 0.000727
31 0.000692
32 0.000598
33 0.000537
34 0.000539
35 0.000551
36 0.000592
37 0.000609
38 0.000622
39 0.000682
40 0.000654
41 0.000549
42 0.000502
43 0.000439
44 0.000441
45 0.000518
46 0.000533
47 0.000525
48 0.000472
49 0.000417
50 0.000404
51 0.000318
52 0.000265
53 0.000224
54 0.000250
55 0.000337
56 0.000355
57 0.000325
58 0.000324
59 0.000315
60 0.000361
61 0.000396
62 0.000403
63 0.000438
64 0.000522
65 0.000593
66 0.000592
67 0.000622
68 0.000624
69 0.000673
70 0.000667
71 0.000694
72 0.000687
73 0.000699
74 0.000779
75 0.000939
76 0.001086
77 0.001120
78 0.001049
79 0.001013
80 0.001033
81 0.001067
82 0.001062
83 0.001015
84 0.001074
85 0.001175
86 0.001207
87 0.001268
88 0.001347
89 0.001461
90 0.001608
91 0.001630
92 0.001691
93 0.001781
94 0.001871
95 0.001907
96 0.001886
97 0.001788
98 0.001648
99 0.001547
100 0.001432
101 0.001363
102 0.001321
103 0.001318
104 0.001324
105 0.001297
106 0.001177
107 0.001151
108 0.001118
109 0.001063
110 0.001019
111 0.000937
112 0.000872
113 0.000893
114 0.000950
115 0.000973
116 0.000947
117 0.000872
118 0.000863
119 0.000864
120 0.000900
121 0.000941
122 0.000994
123 0.001047
124 0.001108
125 0.001080
126 0.001003
127 0.000889
128 0.000753
129 0.000708
130 0.000651
131 0.000585
132 0.000562
133 0.000513
134 0.000493
135 0.000407
136 0.000296
137 0.000216
138 0.000192
139 0.000166
140 0.000107
141 0.000050
142 0.000014
143 -0.000002
144 -0.000007
145 0.000070
146 0.000056
147 -0.000027
148 -0.000086
149 -0.000110
150 -0.000112
151 -0.000113
152 -0.000042
153 0.000016
154 0.000085
155 0.000118
156 0.000130
157 0.000159
158 0.000160
159 0.000182
160 0.000277
161 0.000378
162 0.000368
163 0.000412
164 0.000421
165 0.000510
166 0.000583
167 0.000584
168 0.000626
169 0.000696
170 0.000790
171 0.000816
172 0.000808
173 0.000737
174 0.000735
175 0.000699
176 0.000633
177 0.000555
178 0.000466
179 0.000453
180 0.000485
181 0.000549
182 0.000579
183 0.000552
184 0.000541
185 0.000557
186 0.000535
187 0.000550
188 0.000571
189 0.000628
190 0.000642
191 0.000613
192 0.000556
193 0.000452
194 0.000391
195 0.000389
196 0.000374
197 0.000378
198 0.000401
199 0.000388
200 0.000357
201 0.000360
202 0.000327
203 0.000310
204 0.000271
205 0.000262
206 0.000220
207 0.000208
208 0.000225
209 0.000250
210 0.000365
211 0.000469
212 0.000537
213 0.000544
214 0.000559
215 0.000579
216 0.000541
217 0.000533
218 0.000570
219 0.000627
220 0.000694
221 0.000728
222 0.000666
223 0.000594
224 0.000497
225 0.000454
226 0.000452
227 0.000440
228 0.000474
229 0.000516
230 0.000538
231 0.000529
232 0.000493
233 0.000408
234 0.000382
235 0.000341
236 0.000320
237 0.000278
238 0.000216
239 0.000180
240 0.000105
241 0.000050
242 0.000018
243 -0.000092
244 -0.000186
245 -0.000163
246 -0.000101
247 -0.000024
248 0.000018
249 0.000006
250 0.000064
251 0.000085
252 0.000073
253 0.000112
254 0.000125
255 0.000120
256 0.000149
257 0.000113
258 0.000107
259 0.000151
260 0.000206
261 0.000227
262 0.000242
263 0.000210
264 0.000170
265 0.000092
266 0.000025
267 0.000017
268 0.000055
269 0.000053
270 0.000032
271 -0.000046
272 -0.000145
273 -0.000199
274 -0.000202
275 -0.000172
276 -0.000144
277 -0.000108
278 -0.000020
279 0.000092
280 0.000171
281 0.000202
282 0.000219
283 0.000227
284 0.000292
285 0.000322
286 0.000342
287 0.000296
288 0.000252
289 0.000188
290 0.000179
291 0.000163
292 0.000168
293 0.000200
294 0.000177
295 0.000176
296 0.000131
297 0.000081
298 0.000057
299 0.000017
300 0.000002
301 -0.000030
302 -0.000057
303 -0.000050
304 -0.000025
305 -0.000015
306 0.000077
307 0.000121
308 0.000132
309 0.000096
310 0.000039
311 0.000005
312 -0.000017
313 -0.000001
314 0.000113
315 0.000258
316 0.000330
317 0.000334
318 0.000311
319 0.000292
320 0.000307
321 0.000364
322 0.000435
323 0.000506
324 0.000542
325 0.000568
326 0.000582
327 0.000646
328 0.000643
329 0.000634
330 0.000579
331 0.000527
332 0.000452
333 0.000357
334 0.000251
335 0.000259
336 0.000238
337 0.000222
338 0.000152
339 -0.000004
340 -0.000063
341 -0.000100
342 -0.000095
343 0.000050
344 0.000206
345 0.000350
346 0.000446
347 0.000412
348 0.000374
349 0.000342
350 0.000351
351 0.000353
352 0.000280
353 0.000162
354 0.000080
355 0.000019
356 -0.000043
357 -0.000051
358 -0.000076
359 -0.000124
360 -0.000086
361 -0.000065
362 -0.000044
363 -0.000005
364 0.000014
365 -0.000005
366 -0.000039
367 -0.000055
368 -0.000086
369 -0.000142
370 -0.000148
371 -0.000181
372 -0.000254
373 -0.000259
374 -0.000257
375 -0.000251
376 -0.000277
377 -0.000267
378 -0.000275
379 -0.000289
380 -0.000278
381 -0.000234
382 -0.000164
383 -0.000060
384 0.000031
385 0.000066
386 0.000017
387 -0.000040
388 -0.000053
389 -0.000079
390 -0.000093
391 -0.000095
392 -0.000075
393 -0.000034
394 -0.000049
395 -0.000073
396 -0.000060
397 -0.000029
398 -0.000014
399 0.000015
400 0.000052
401 0.000076
402 0.000099
403 0.000131
404 0.000176
405 0.000217
406 0.000280
407 0.000379
408 0.000474
409 0.000536
410 0.000583
411 0.000597
412 0.000612
413 0.000677
414 0.000666
415 0.000671
416 0.000626
417 0.000594
418 0.000604
419 0.000653
420 0.000705
421 0.000688
422 0.000706
423 0.000728
424 0.000707
425 0.000677
426 0.000592
427 0.000514
428 0.000472
429 0.000422
430 0.000408
431 0.000356
432 0.000284
433 0.000214
434 0.000226
435 0.000210
436 0.000220
437 0.000208
438 0.000195
439 0.000238
440 0.000308
441 0.000345
442 0.000332
443 0.000260
444 0.000215
445 0.000230
446 0.000222
447 0.000194
448 0.000180
449 0.000218
450 0.000271
451 0.000288
452 0.000287
453 0.000294
454 0.000277
455 0.000260
456 0.000200
457 0.000118
458 0.000089
459 0.000120
460 0.000205
461 0.000238
462 0.000155
463 0.000072
464 0.000004
465 -0.000015
466 -0.000046
467 -0.000070
468 -0.000057
469 -0.000052
470 -0.000049
471 -0.000088
472 -0.000113
473 -0.000162
474 -0.000167
475 -0.000123
476 -0.000153
477 -0.000157
478 -0.000168
479 -0.000218
480 -0.000243
481 -0.000248
482 -0.000272
483 -0.000267
484 -0.000212
485 -0.000137
486 -0.000094
487 -0.000049
488 0.000006
489 0.000118
490 0.000258
491 0.000360
492 0.000423
493 0.000410
494 0.000408
495 0.000406
496 0.000395
497 0.000389
498 0.000390
499 0.000408
500 0.000421
501 0.000413
502 0.000362
503 0.000356
504 0.000388
505 0.000483
506 0.000544
507 0.000580
508 0.000592
509 0.000625
510 0.000653
511 0.000685
512 0.000710
513 0.000682
514 0.000699
515 0.000759
516 0.000833
517 0.000871
518 0.000884
519 0.000848
520 0.000800
521 0.000734
522 0.000648
523 0.000565
524 0.000515
525 0.000465
526 0.000428
527 0.000384
528 0.000340
529 0.000323
530 0.000360
531 0.000410
532 0.000428
533 0.000454
534 0.000458
535 0.000459
536 0.000457
537 0.000458
538 0.000449
539 0.000429
540 0.000426
541 0.000441
542 0.000430
543 0.000393
544 0.000371
545 0.000385
546 0.000399
547 0.000388
548 0.000364
549 0.000362
550 0.000340
551 0.000267
552 0.000199
553 0.000165
554 0.000174
555 0.000199
556 0.000230
557 0.000190
558 0.000158
559 0.000138
560 0.000144
561 0.000150
562 0.000179
563 0.000254
564 0.000293
565 0.000321
566 0.000315
567 0.000297
568 0.000254
569 0.000215
570 0.000204
571 0.000180
572 0.000150
573 0.000121
574 0.000118
575 0.000166
576 0.000200
577 0.000230
578 0.000251
579 0.000317
580 0.000392
581 0.000451
582 0.000494
583 0.000507
584 0.000517
585 0.000597
586 0.000652
587 0.000651
588 0.000658
589 0.000639
590 0.000584
591 0.000530
592 0.000463
593 0.000410
594 0.000398
595 0.000415
596 0.000411
597 0.000383
598 0.000327
599 0.000328
600 0.000339
601 0.000299
602 0.000309
603 0.000254
604 0.000217
605 0.000210
606 0.000227
607 0.000230
608 0.000249
609 0.000301
610 0.000402
611 0.000487
612 0.000507
613 0.000527
614 0.000517
615 0.000489
616 0.000462
617 0.000451
618 0.000452
619 0.000421
620 0.000395
621 0.000407
622 0.000391
623 0.000374
624 0.000400
625 0.000456
626 0.000495
627 0.000539
628 0.000534
629 0.000554
630 0.000620
631 0.000700
632 0.000707
633 0.000710
634 0.000670
635 0.000688
636 0.000691
637 0.000688
638 0.000692
639 0.000707
640 0.000701
641 0.000730
642 0.000731
643 0.000710
644 0.000720
645 0.000707
646 0.000665
647 0.000575
648 0.000484
649 0.000454
650 0.000446
651 0.000429
652 0.000419
653 0.000377
654 0.000340
655 0.000324
656 0.000324
657 0.000364
658 0.000360
659 0.000361
660 0.000410
661 0.000464
662 0.000462
663 0.000425
664 0.000427
665 0.000437
666 0.000460
667 0.000445
668 0.000399
669 0.000392
670 0.000430
671 0.000477
672 0.000523
673 0.000575
674 0.000580
675 0.000632
676 0.000691
677 0.000692
678 0.000665
679 0.000629
680 0.000602
681 0.000623
682 0.000634
683 0.000635
684 0.000584
685 0.000550
686 0.000506
687 0.000463
688 0.000443
689 0.000439
690 0.000403
691 0.000383
692 0.000389
693 0.000354
694 0.000313
695 0.000299
696 0.000294
697 0.000265
698 0.000243
699 0.000213
700 0.000239
701 0.000252
702 0.000246
703 0.000241
704 0.000243
705 0.000244
706 0.000280
707 0.000281
708 0.000290
709 0.000278
710 0.000295
711 0.000282
712 0.000261
713 0.000247
714 0.000230
715 0.000219
716 0.000181
717 0.000126
718 0.000082
719 0.000056
720 0.000086
721 0.000130
722 0.000125
723 0.000088
724 0.000069
725 0.000063
726 0.000057
727 0.000026
728 0.000045
729 0.000058
730 0.000089
731 0.000164
732 0.000197
733 0.000203
734 0.000224
735 0.000236
736 0.000230
737 0.000230
738 0.000234
739 0.000226
740 0.000245
741 0.000258
742 0.000249
743 0.000234
744 0.000218
745 0.000228
746 0.000257
747 0.000278
748 0.000296
749 0.000307
750 0.000328
751 0.000369
752 0.000412
753 0.000407
754 0.000374
755 0.000358
756 0.000350
757 0.000324
758 0.000286
759 0.000283
760 0.000299
761 0.000312
762 0.000290
763 0.000282
764 0.000253
765 0.000264
766 0.000254
767 0.000259
768 0.000246
769 0.000260
770 0.000284
771 0.000286
772 0.000255
773 0.000228
774 0.000207
775 0.000211
776 0.000217
777 0.000238
778 0.000262
779 0.000273
780 0.000284
781 0.000276
782 0.000260
783 0.000255
784 0.000248
785 0.000265
786 0.000257
787 0.000235
788 0.000189
789 0.000136
790 0.000119
791 0.000121
792 0.000125
793 0.000115
794 0.000103
795 0.000100
796 0.000115
797 0.000122
798 0.000130
799 0.000119
800 0.000130
801 0.000122
802 0.000128
803 0.000111
804 0.000082
805 0.000088
806 0.000102
807 0.000126
808 0.000131
809 0.000140
