# i correlation
1 0.004897
2 0.004171
3 0.003489
4 0.002909
5 0.002438
6 0.002105
7 0.001807
8 0.001569
9 0.001355
10 0.001183
11 0.001043
12 0.000982
13 0.000886
14 0.000881
15 0.000870
16 0.000876
17 0.000869
18 0.000892
19 0.000858
20 0.000818
21 0.000826
22 0.000826
23 0.000831
24 0.000813
25 0.000717
26 0.000572
27 0.000389
28 0.000254
29 0.000101
30 -0.000032
31 -0.000108
32 -0.000122
33 -0.000122
34 -0.000050
35 0.000073
36 0.000113
37 0.000230
38 0.000341
39 0.000441
40 0.000562
41 0.000652
42 0.000724
43 0.000728
44 0.000724
45 0.000704
46 0.000758
47 0.000804
48 0.000793
49 0.000715
50 0.000693
51 0.000627
52 0.000571
53 0.000565
54 0.000610
55 0.000631
56 0.000672
57 0.000629
58 0.000712
59 0.000797
60 0.000889
61 0.000906
62 0.000910
63 0.000877
64 0.000779
65 0.000713
66 0.000710
67 0.000697
68 0.000761
69 0.000842
70 0.001001
71 0.001087
72 0.001212
73 0.001230
74 0.001203
75 0.001094
76 0.000898
77 0.000805
78 0.000716
79 0.000608
80 0.000552
81 0.000502
82 0.000353
83 0.000241
84 0.000218
85 0.000123
86 0.000025
87 -0.000049
88 -0.000140
89 -0.000170
90 -0.000186
91 -0.000201
92 -0.000219
93 -0.000193
94 -0.000268
95 -0.000255
96 -0.000186
97 -0.000138
98 -0.000038
99 -0.000007
100 -0.000019
101 -0.000027
102 -0.000011
103 -0.000027
104 -0.000004
105 -0.000001
106 0.000015
107 -0.000004
108 0.000017
109 0.000076
110 0.000165
111 0.000281
112 0.000443
113 0.000490
114 0.000641
115 0.000756
116 0.000886
117 0.001002
118 0.001136
119 0.001242
120 0.001317
121 0.001238
122 0.001073
123 0.000928
124 0.000823
125 0.000773
126 0.000712
127 0.000660
128 0.000680
129 0.000600
130 0.000553
131 0.000527
132 0.000533
133 0.000509
134 0.000493
135 0.000523
136 0.000518
137 0.000475
138 0.000423
139 0.000409
140 0.000458
141 0.000421
142 0.000365
143 0.000389
144 0.000425
145 0.000356
146 0.000272
147 0.000182
148 0.000063
149 -0.000050
150 -0.000058
151 0.000001
152 0.000046
153 0.000091
154 0.000102
155 0.000101
156 0.000140
157 0.000178
158 0.000196
159 0.000195
160 0.000143
161 0.000038
162 -0.000025
163 -0.000022
164 -0.000083
165 -0.000089
166 -0.000058
167 -0.000023
168 0.000070
169 0.000026
170 0.000041
171 0.000013
172 -0.000091
173 -0.000191
174 -0.000245
175 -0.000298
176 -0.000269
177 -0.000329
178 -0.000278
179 -0.000200
180 -0.000104
181 -0.000004
182 0.000058
183 0.000115
184 0.000172
185 0.000223
186 0.000276
187 0.000351
188 0.000407
189 0.000462
190 0.000440
191 0.000485
192 0.000520
193 0.000533
194 0.000568
195 0.000539
196 0.000490
197 0.000466
198 0.000458
199 0.000451
200 0.000442
201 0.000364
202 0.000238
203 0.000235
204 0.000192
205 0.000213
206 0.000263
207 0.000290
208 0.000254
209 0.000296
210 0.000326
211 0.000340
212 0.000217
213 0.000120
214 -0.000009
215 -0.000060
216 -0.000100
217 -0.000113
218 -0.000082
219 -0.000147
220 -0.000229
221 -0.000325
222 -0.000430
223 -0.000531
224 -0.000574
225 -0.000538
226 -0.000419
227 -0.000352
228 -0.000206
229 -0.000119
230 -0.000076
231 -0.000018
232 -0.000060
233 -0.000112
234 -0.000158
235 -0.000182
236 -0.000166
237 -0.000101
238 -0.000013
239 0.000058
240 0.000165
241 0.000214
242 0.000237
243 0.000216
244 0.000221
245 0.000143
246 0.000117
247 0.000138
248 0.000169
249 0.000275
250 0.000405
251 0.000491
252 0.000578
253 0.000653
254 0.000734
255 0.000851
256 0.000891
257 0.000917
258 0.000840
259 0.000778
260 0.000720
261 0.000623
262 0.000515
263 0.000450
264 0.000394
265 0.000424
266 0.000488
267 0.000485
268 0.000492
269 0.000533
270 0.000526
271 0.000580
272 0.000624
273 0.000639
274 0.000673
275 0.000650
276 0.000636
277 0.000648
278 0.000721
279 0.000761
280 0.000770
281 0.000718
282 0.000622
283 0.000465
284 0.000419
285 0.000350
286 0.000190
287 0.000101
288 0.000015
289 -0.000096
290 -0.000148
291 -0.000154
292 -0.000143
293 -0.000170
294 -0.000209
295 -0.000265
296 -0.000252
297 -0.000250
298 -0.000206
299 -0.000085
300 0.000044
301 0.000178
302 0.000259
303 0.000335
304 0.000328
305 0.000262
306 0.000225
307 0.000188
308 0.000242
309 0.000276
310 0.000298
311 0.000370
312 0.000369
313 0.000381
314 0.000369
315 0.000367
316 0.000379
317 0.000380
318 0.000375
319 0.000395
320 0.000445
321 0.000480
322 0.000463
323 0.000486
324 0.000529
325 0.000565
326 0.000547
327 0.000593
328 0.000538
329 0.000529
330 0.000493
331 0.000430
332 0.000312
333 0.000141
334 0.000109
335 0.000066
336 0.000013
337 -0.000054
338 -0.000106
339 -0.000105
340 -0.000105
341 -0.000100
342 -0.000070
343 0.000022
344 0.000109
345 0.000124
346 0.000219
347 0.000294
348 0.000322
349 0.000336
350 0.000335
351 0.000310
352 0.000265
353 0.000218
354 0.000220
355 0.000240
356 0.000139
357 0.000015
358 -0.000080
359 -0.000139
360 -0.000218
361 -0.000234
362 -0.000224
363 -0.000245
364 -0.000232
365 -0.000194
366 -0.000186
367 -0.000143
368 -0.000105
369 -0.000001
370 0.000061
371 0.000160
372 0.000250
373 0.000307
374 0.000383
375 0.000425
376 0.000460
377 0.000539
378 0.000585
379 0.000573
380 0.000572
381 0.000615
382 0.000611
383 0.000664
384 0.000728
385 0.000814
386 0.000863
387 0.000851
388 0.000858
389 0.000911
390 0.000953
391 0.000955
392 0.000979
393 0.000982
394 0.001053
395 0.001122
396 0.001202
397 0.001286
398 0.001324
399 0.001349
400 0.001271
401 0.001152
402 0.001054
403 0.000896
404 0.000782
405 0.000668
406 0.000574
407 0.000513
408 0.000437
409 0.000490
410 0.000549
411 0.000576
412 0.000597
413 0.000620
414 0.000603
415 0.000519
416 0.000435
417 0.000390
418 0.000384
419 0.000354
420 0.000385
421 0.000385
422 0.000387
423 0.000387
424 0.000393
425 0.000418
426 0.000378
427 0.000316
428 0.000326
429 0.000266
430 0.000126
431 0.000097
432 0.000012
433 -0.000063
434 -0.000136
435 -0.000167
436 -0.000120
437 -0.000043
438 0.000027
439 0.000115
440 0.000095
441 0.000039
442 -0.000022
443 -0.000070
444 -0.000025
445 0.000039
446 0.000152
447 0.000245
448 0.000375
449 0.000455
450 0.000509
451 0.000535
452 0.000558
453 0.000576
454 0.000586
455 0.000591
456 0.000536
457 0.000490
458 0.000434
459 0.000425
460 0.000471
461 0.000449
462 0.000415
463 0.000387
464 0.000381
465 0.000385
466 0.000458
467 0.000553
468 0.000590
469 0.000638
470 0.000699
471 0.000743
472 0.000785
473 0.000790
474 0.000774
475 0.000708
476 0.000577
477 0.000419
478 0.000229
479 0.000108
480 -0.000050
481 -0.000164
482 -0.000292
483 -0.000376
484 -0.000429
485 -0.000409
486 -0.000352
487 -0.000282
488 -0.000248
489 -0.000283
490 -0.000291
491 -0.000289
492 -0.000317
493 -0.000350
494 -0.000352
495 -0.000265
496 -0.000251
497 -0.000169
498 -0.000132
499 -0.000123
500 -0.000132
501 -0.000167
502 -0.000187
503 -0.000224
504 -0.000262
505 -0.000263
506 -0.000230
507 -0.000153
508 -0.000090
509 0.000038
510 0.000162
511 0.000286
512 0.000430
513 0.000536
514 0.000597
515 0.000622
516 0.000593
517 0.000562
518 0.000538
519 0.000475
520 0.000477
521 0.000457
522 0.000389
523 0.000309
524 0.000273
525 0.000220
526 0.000175
527 0.000119
528 0.000098
529 0.000133
530 0.000208
531 0.000237
532 0.000274
533 0.000265
534 0.000300
535 0.000330
536 0.000313
537 0.000306
538 0.000267
539 0.000175
540 0.000114
541 0.000036
542 -0.000026
543 -0.000087
544 -0.000141
545 -0.000147
546 -0.000164
547 -0.000172
548 -0.000181
549 -0.000169
550 -0.000151
551 -0.000117
552 -0.000054
553 0.000042
554 0.000104
555 0.000101
556 0.000093
557 0.000099
558 0.000131
559 0.000120
560 0.000081
561 -0.000019
562 -0.000123
563 -0.000228
564 -0.000291
565 -0.000257
566 -0.000202
567 -0.000140
568 -0.000070
569 -0.000010
570 0.000045
571 0.000086
572 0.000216
573 0.000294
574 0.000362
575 0.000419
576 0.000423
577 0.000356
578 0.000322
579 0.000311
580 0.000326
581 0.000353
582 0.000344
583 0.000304
584 0.000296
585 0.000254
586 0.000252
587 0.000208
588 0.000202
589 0.000186
590 0.000250
591 0.000282
592 0.000324
593 0.000333
594 0.000316
595 0.000303
596 0.000318
597 0.000252
598 0.000182
599 0.000141
600 0.000058
601 -0.000001
602 -0.000044
603 -0.000105
604 -0.000134
605 -0.000107
606 -0.000103
607 -0.000091
608 -0.000117
609 -0.000135
610 -0.000165
611 -0.000199
612 -0.000237
613 -0.000294
614 -0.000323
615 -0.000342
616 -0.000314
617 -0.000313
618 -0.000306
619 -0.000299
620 -0.000273
621 -0.000283
622 -0.000278
623 -0.000276
624 -0.000234
625 -0.000155
626 -0.000060
627 0.000052
628 0.000175
629 0.000249
630 0.000279
631 0.000301
632 0.000337
633 0.000337
634 0.000307
635 0.000267
636 0.000214
637 0.000167
638 0.000182
639 0.000183
640 0.000221
641 0.000192
642 0.000210
643 0.000192
644 0.000184
645 0.000158
646 0.000167
647 0.000162
648 0.000135
649 0.000146
650 0.000141
651 0.000145
652 0.000152
653 0.000163
654 0.000172
655 0.000208
656 0.000240
657 0.000264
658 0.000246
659 0.000240
660 0.000241
661 0.000243
662 0.000199
663 0.000182
664 0.000217
665 0.000295
666 0.000354
667 0.000358
668 0.000352
669 0.000318
670 0.000304
671 0.000277
672 0.000208
673 0.000168
674 0.000165
675 0.000127
676 0.000079
677 0.000070
678 0.000094
679 0.000097
680 0.000111
681 0.000076
682 0.000045
683 0.000013
684 -0.000014
685 -0.000028
686 0.000022
687 0.000003
688 0.000075
689 0.000091
690 0.000108
691 0.000101
692 0.000128
693 0.000114
694 0.000112
695 0.000097
696 0.000094
697 0.000068
698 0.000097
699 0.000070
700 0.000076
701 0.000087
702 0.000130
703 0.000124
704 0.000100
705 0.000110
706 0.000153
707 0.000182
708 0.000208
709 0.000191
710 0.000206
711 0.000202
712 0.000232
713 0.000262
714 0.000219
715 0.000182
716 0.000185
717 0.000166
718 0.000154
719 0.000140
720 0.000137
721 0.000112
722 0.000064
723 0.000048
724 0.000077
725 0.000099
726 0.000150
727 0.000156
728 0.000131
729 0.000089
730 0.000087
731 0.000083
732 0.000053
733 0.000036
734 -0.000008
735 -0.000071
736 -0.000108
737 -0.000127
738 -0.000148
739 -0.000145
740 -0.000129
741 -0.000105
742 -0.000121
743 -0.000123
744 -0.000121
745 -0.000116
746 -0.000099
747 -0.000083
748 -0.000062
749 -0.000060
750 -0.000110
751 -0.000146
752 -0.000169
753 -0.000207
754 -0.000221
755 -0.000249
756 -0.000265
757 -0.000264
758 -0.000217
759 -0.000207
760 -0.000180
761 -0.000161
762 -0.000131
763 -0.000074
764 -0.000005
765 0.000017
766 0.000035
767 0.000041
768 0.000060
769 0.000078
770 0.000100
771 0.000106
772 0.000134
773 0.000169
774 0.000138
775 0.000151
776 0.000115
777 0.000068
778 0.000030
779 0.000031
780 0.000047
781 0.000061
782 0.000045
783 0.000027
784 0.000026
785 0.000035
786 0.000069
787 0.000121
788 0.000140
789 0.000150
790 0.000162
791 0.000172
792 0.000172
793 0.000168
794 0.000159
795 0.000150
796 0.000151
797 0.000176
798 0.000183
799 0.000164
800 0.000119
801 0.000078
802 0.000036
803 -0.000013
804 -0.000041
805 -0.000071
806 -0.000077
807 -0.000098
808 -0.000102
809 -0.000096
