# i correlation
1 0.005125
2 0.004494
3 0.003956
4 0.003509
5 0.003119
6 0.002800
7 0.002582
8 0.002417
9 0.002285
10 0.002220
11 0.002210
12 0.002133
13 0.002068
14 0.001993
15 0.001861
16 0.001730
17 0.001620
18 0.001579
19 0.001544
20 0.001448
21 0.001389
22 0.001384
23 0.001317
24 0.001252
25 0.001170
26 0.001118
27 0.001096
28 0.001057
29 0.001065
30 0.001089
31 0.001088
32 0.000996
33 0.000885
34 0.000803
35 0.000782
36 0.000822
37 0.000829
38 0.000876
39 0.000907
40 0.001004
41 0.001118
42 0.001122
43 0.001040
44 0.000958
45 0.000928
46 0.000897
47 0.000842
48 0.000816
49 0.000885
50 0.000987
51 0.001059
52 0.001071
53 0.001078
54 0.001071
55 0.001046
56 0.000996
57 0.000970
58 0.001015
59 0.001107
60 0.001149
61 0.001177
62 0.001196
63 0.001136
64 0.001086
65 0.001001
66 0.000897
67 0.000851
68 0.000776
69 0.000828
70 0.000780
71 0.000810
72 0.000853
73 0.000858
74 0.000809
75 0.000788
76 0.000768
77 0.000811
78 0.000824
79 0.000868
80 0.000920
81 0.000920
82 0.000905
83 0.000875
84 0.000807
85 0.000694
86 0.000640
87 0.000540
88 0.000504
89 0.000417
90 0.000383
91 0.000456
92 0.000518
93 0.000593
94 0.000636
95 0.000653
96 0.000665
97 0.000735
98 0.000728
99 0.000837
100 0.000897
101 0.000962
102 0.001021
103 0.001145
104 0.001152
105 0.001129
106 0.001029
107 0.000988
108 0.000902
109 0.000862
110 0.000854
111 0.000829
112 0.000818
113 0.000916
114 0.000953
115 0.000945
116 0.000868
117 0.000840
118 0.000829
119 0.000835
120 0.000839
121 0.000760
122 0.000709
123 0.000670
124 0.000634
125 0.000567
126 0.000514
127 0.000410
128 0.000345
129 0.000308
130 0.000287
131 0.000253
132 0.000186
133 0.000146
134 0.000073
135 0.000017
136 -0.000046
137 -0.000071
138 -0.000028
139 -0.000005
140 0.000030
141 0.000067
142 0.000083
143 0.000047
144 0.000068
145 0.000115
146 0.000065
147 -0.000002
148 -0.000057
149 -0.000104
150 -0.000123
151 -0.000114
152 -0.000083
153 -0.000046
154 -0.000083
155 -0.000031
156 0.000002
157 0.000009
158 0.000022
159 0.000002
160 -0.000017
161 -0.000025
162 -0.000029
163 0.000015
164 0.000044
165 0.000029
166 0.000022
167 -0.000018
168 -0.000054
169 -0.000066
170 -0.000069
171 -0.000018
172 0.000050
173 0.000083
174 0.000157
175 0.000214
176 0.000270
177 0.000219
178 0.000084
179 0.000046
180 0.000069
181 0.000077
182 0.000113
183 0.000099
184 0.000108
185 0.000115
186 0.000149
187 0.000243
188 0.000279
189 0.000275
190 0.000236
191 0.000251
192 0.000282
193 0.000296
194 0.000319
195 0.000329
196 0.000321
197 0.000300
198 0.000279
199 0.000324
200 0.000403
201 0.000469
202 0.000527
203 0.000555
204 0.000609
205 0.000609
206 0.000673
207 0.000705
208 0.000726
209 0.000703
210 0.000664
211 0.000580
212 0.000504
213 0.000482
214 0.000505
215 0.000466
216 0.000498
217 0.000571
218 0.000595
219 0.000551
220 0.000530
221 0.000514
222 0.000515
223 0.000542
224 0.000554
225 0.000595
226 0.000561
227 0.000563
228 0.000549
229 0.000511
230 0.000524
231 0.000523
232 0.000542
233 0.000551
234 0.000494
235 0.000423
236 0.000319
237 0.000220
238 0.000181
239 0.000126
240 0.000043
241 -0.000065
242 -0.000177
243 -0.000218
244 -0.000181
245 -0.000149
246 -0.000118
247 -0.000126
248 -0.000130
249 -0.000110
250 -0.000139
251 -0.000175
252 -0.000212
253 -0.000268
254 -0.000282
255 -0.000261
256 -0.000217
257 -0.000200
258 -0.000114
259 -0.000039
260 0.000063
261 0.000098
262 0.000153
263 0.000198
264 0.000238
265 0.000208
266 0.000160
267 0.000124
268 0.000155
269 0.000159
270 0.000201
271 0.000242
272 0.000269
273 0.000305
274 0.000284
275 0.000251
276 0.000300
277 0.000300
278 0.000345
279 0.000382
280 0.000386
281 0.000318
282 0.000250
283 0.000238
284 0.000256
285 0.000304
286 0.000354
287 0.000407
288 0.000344
289 0.000326
290 0.000371
291 0.000364
292 0.000319
293 0.000270
294 0.000276
295 0.000236
296 0.000200
297 0.000165
298 0.000146
299 0.000133
300 0.000172
301 0.000213
302 0.000260
303 0.000294
304 0.000312
305 0.000324
306 0.000299
307 0.000241
308 0.000201
309 0.000237
310 0.000230
311 0.000213
312 0.000173
313 0.000186
314 0.000221
315 0.000211
316 0.000169
317 0.000110
318 0.000042
319 -0.000016
320 -0.000029
321 0.000000
322 0.000011
323 0.000006
324 0.000006
325 0.000016
326 -0.000011
327 0.000039
328 0.000056
329 0.000095
330 0.000086
331 0.000068
332 0.000123
333 0.000150
334 0.000124
335 0.000096
336 0.000076
337 0.000082
338 0.000073
339 0.000070
340 0.000084
341 0.000048
342 -0.000029
343 -0.000095
344 -0.000115
345 -0.000157
346 -0.000211
347 -0.000206
348 -0.000212
349 -0.000156
350 -0.000170
351 -0.000143
352 -0.000131
353 -0.000132
354 -0.000194
355 -0.000203
356 -0.000178
357 -0.000216
358 -0.000269
359 -0.000290
360 -0.000355
361 -0.000427
362 -0.000441
363 -0.000423
364 -0.000412
365 -0.000417
366 -0.000399
367 -0.000343
368 -0.000327
369 -0.000314
370 -0.000328
371 -0.000312
372 -0.000362
373 -0.000358
374 -0.000367
375 -0.000349
376 -0.000328
377 -0.000312
378 -0.000277
379 -0.000287
380 -0.000293
381 -0.000277
382 -0.000221
383 -0.000186
384 -0.000173
385 -0.000142
386 -0.000151
387 -0.000144
388 -0.000126
389 -0.000050
390 0.000046
391 0.000109
392 0.000097
393 0.000071
394 0.000011
395 -0.000065
396 -0.000073
397 -0.000086
398 -0.000074
399 -0.000073
400 -0.000064
401 -0.000014
402 0.000086
403 0.000181
404 0.000220
405 0.000181
406 0.000088
407 0.000062
408 0.000034
409 0.000049
410 0.000013
411 -0.000042
412 -0.000121
413 -0.000163
414 -0.000216
415 -0.000265
416 -0.000303
417 -0.000338
418 -0.000359
419 -0.000391
420 -0.000356
421 -0.000316
422 -0.000287
423 -0.000328
424 -0.000374
425 -0.000463
426 -0.000543
427 -0.000615
428 -0.000622
429 -0.000623
430 -0.000638
431 -0.000563
432 -0.000441
433 -0.000343
434 -0.000261
435 -0.000205
436 -0.000184
437 -0.000169
438 -0.000218
439 -0.000218
440 -0.000220
441 -0.000187
442 -0.000153
443 -0.000147
444 -0.000119
445 -0.000107
446 -0.000114
447 -0.000095
448 -0.000093
449 -0.000131
450 -0.000157
451 -0.000208
452 -0.000180
453 -0.000177
454 -0.000182
455 -0.000207
456 -0.000250
457 -0.000347
458 -0.000420
459 -0.000473
460 -0.000517
461 -0.000543
462 -0.000540
463 -0.000517
464 -0.000497
465 -0.000564
466 -0.000607
467 -0.000683
468 -0.000732
469 -0.000781
470 -0.000831
471 -0.000880
472 -0.000904
473 -0.000911
474 -0.000938
475 -0.001002
476 -0.001030
477 -0.001070
478 -0.001084
479 -0.001147
480 -0.001171
481 -0.001165
482 -0.001112
483 -0.001080
484 -0.001021
485 -0.000974
486 -0.000921
487 -0.000877
488 -0.000840
489 -0.000809
490 -0.000783
491 -0.000765
492 -0.000764
493 -0.000749
494 -0.000705
495 -0.000601
496 -0.000527
497 -0.000483
498 -0.000475
499 -0.000494
500 -0.000487
501 -0.000445
502 -0.000394
503 -0.000329
504 -0.000225
505 -0.000171
506 -0.000125
507 -0.000151
508 -0.000140
509 -0.000147
510 -0.000190
511 -0.000209
512 -0.000215
513 -0.000255
514 -0.000276
515 -0.000283
516 -0.000271
517 -0.000272
518 -0.000303
519 -0.000339
520 -0.000403
521 -0.000460
522 -0.000525
523 -0.000519
524 -0.000508
525 -0.000503
526 -0.000535
527 -0.000538
528 -0.000583
529 -0.000634
530 -0.000717
531 -0.000707
532 -0.000676
533 -0.000609
534 -0.000533
535 -0.000493
536 -0.000442
537 -0.000448
538 -0.000451
539 -0.000483
540 -0.000499
541 -0.000511
542 -0.000494
543 -0.000500
544 -0.000485
545 -0.000457
546 -0.000449
547 -0.000416
548 -0.000372
549 -0.000368
550 -0.000352
551 -0.000369
552 -0.000413
553 -0.000441
554 -0.000458
555 -0.000425
556 -0.000424
557 -0.000385
558 -0.000367
559 -0.000379
560 -0.000384
561 -0.000381
562 -0.000327
563 -0.000260
564 -0.000204
565 -0.000148
566 -0.000087
567 -0.000042
568 -0.000095
569 -0.000122
570 -0.000166
571 -0.000206
572 -0.000265
573 -0.000268
574 -0.000277
575 -0.000285
576 -0.000320
577 -0.000298
578 -0.000289
579 -0.000291
580 -0.000353
581 -0.000428
582 -0.000492
583 -0.000517
584 -0.000511
585 -0.000469
586 -0.000413
587 -0.000369
588 -0.000344
589 -0.000312
590 -0.000310
591 -0.000297
592 -0.000309
593 -0.000335
594 -0.000343
595 -0.000378
596 -0.000366
597 -0.000373
598 -0.000375
599 -0.000373
600 -0.000365
601 -0.000395
602 -0.000429
603 -0.000459
604 -0.000506
605 -0.000487
606 -0.000454
607 -0.000370
608 -0.000273
609 -0.000164
610 -0.000091
611 -0.000056
612 -0.000050
613 -0.000036
614 -0.000030
615 -0.000007
616 0.000009
617 0.000058
618 0.000056
619 0.000054
620 0.000038
621 0.000031
622 0.000038
623 0.000027
624 0.000055
625 0.000080
626 0.000115
627 0.000163
628 0.000239
629 0.000295
630 0.000330
631 0.000304
632 0.000251
633 0.000146
634 0.000076
635 0.000035
636 0.000056
637 0.000075
638 0.000099
639 0.000123
640 0.000125
641 0.000155
642 0.000171
643 0.000129
644 0.000057
645 -0.000029
646 -0.000102
647 -0.000128
648 -0.000117
649 -0.000068
650 -0.000035
651 0.000024
652 0.000079
653 0.000125
654 0.000163
655 0.000178
656 0.000159
657 0.000152
658 0.000166
659 0.000158
660 0.000151
661 0.000170
662 0.000182
663 0.000174
664 0.000170
665 0.000191
666 0.000206
667 0.000209
668 0.000219
669 0.000247
670 0.000233
671 0.000207
672 0.000210
673 0.000158
674 0.000072
675 -0.000053
676 -0.000108
677 -0.000126
678 -0.000155
679 -0.000183
680 -0.000168
681 -0.000155
682 -0.000118
683 -0.000110
684 -0.000128
685 -0.000186
686 -0.000256
687 -0.000286
688 -0.000255
689 -0.000241
690 -0.000203
691 -0.000157
692 -0.000124
693 -0.000089
694 -0.000083
695 -0.000083
696 -0.000087
697 -0.000111
698 -0.000150
699 -0.000171
700 -0.000191
701 -0.000197
702 -0.000209
703 -0.000177
704 -0.000155
705 -0.000146
706 -0.000110
707 -0.000067
708 -0.000032
709 -0.000003
710 0.000018
711 0.000032
712 0.000057
713 0.000078
714 0.000069
715 0.000006
716 -0.000064
717 -0.000145
718 -0.000191
719 -0.000238
720 -0.000275
721 -0.000297
722 -0.000282
723 -0.000241
724 -0.000184
725 -0.000136
726 -0.000084
727 -0.000065
728 -0.000060
729 -0.000039
730 -0.000055
731 -0.000072
732 -0.000083
733 -0.000097
734 -0.000139
735 -0.000160
736 -0.000188
737 -0.000184
738 -0.000203
739 -0.000229
740 -0.000255
741 -0.000290
742 -0.000300
743 -0.000324
744 -0.000341
745 -0.000375
746 -0.000425
747 -0.000466
748 -0.000491
749 -0.000502
750 -0.000496
751 -0.000466
752 -0.000450
753 -0.000442
754 -0.000426
755 -0.000430
756 -0.000450
757 -0.000481
758 -0.000501
759 -0.000546
760 -0.000592
761 -0.000620
762 -0.000615
763 -0.000608
764 -0.000591
765 -0.000565
766 -0.000499
767 -0.000430
768 -0.000370
769 -0.000319
770 -0.000299
771 -0.000296
772 -0.000286
773 -0.000251
774 -0.000241
775 -0.000226
776 -0.000213
777 -0.000205
778 -0.000187
779 -0.000189
780 -0.000190
781 -0.000174
782 -0.000171
783 -0.000165
784 -0.000187
785 -0.000213
786 -0.000247
787 -0.000261
788 -0.000248
789 -0.000225
790 -0.000212
791 -0.000185
792 -0.000167
793 -0.000165
794 -0.000183
795 -0.000203
796 -0.000224
797 -0.000246
798 -0.000276
799 -0.000313
800 -0.000349
801 -0.000381
802 -0.000394
803 -0.000383
804 -0.000347
805 -0.000338
806 -0.000328
807 -0.000325
808 -0.000340
809 -0.000346
