# i correlation
1 0.005967
2 0.005316
3 0.004783
4 0.004351
5 0.003954
6 0.003631
7 0.003387
8 0.003185
9 0.003019
10 0.002899
11 0.002766
12 0.002701
13 0.002625
14 0.002527
15 0.002412
16 0.002404
17 0.002386
18 0.002387
19 0.002276
20 0.002179
21 0.002080
22 0.001934
23 0.001868
24 0.001786
25 0.001721
26 0.001605
27 0.001574
28 0.001571
29 0.001578
30 0.001570
31 0.001495
32 0.001420
33 0.001366
34 0.001353
35 0.001309
36 0.001242
37 0.001137
38 0.000996
39 0.000904
40 0.000819
41 0.000782
42 0.000765
43 0.000777
44 0.000730
45 0.000732
46 0.000731
47 0.000754
48 0.000792
49 0.000882
50 0.000846
51 0.000776
52 0.000739
53 0.000735
54 0.000838
55 0.000965
56 0.001008
57 0.001006
58 0.000991
59 0.000986
60 0.001077
61 0.001153
62 0.001260
63 0.001351
64 0.001419
65 0.001397
66 0.001371
67 0.001301
68 0.001251
69 0.001210
70 0.001186
71 0.001187
72 0.001197
73 0.001116
74 0.000990
75 0.000936
76 0.000914
77 0.000930
78 0.001014
79 0.001097
80 0.001156
81 0.001225
82 0.001313
83 0.001405
84 0.001436
85 0.001505
86 0.001478
87 0.001559
88 0.001613
89 0.001688
90 0.001766
91 0.001859
92 0.001891
93 0.001818
94 0.001797
95 0.001816
96 0.001838
97 0.001857
98 0.001839
99 0.001885
100 0.001886
101 0.001847
102 0.001759
103 0.001765
104 0.001732
105 0.001698
106 0.001634
107 0.001548
108 0.001494
109 0.001446
110 0.001373
111 0.001352
112 0.001395
113 0.001371
114 0.001310
115 0.001273
116 0.001263
117 0.001250
118 0.001305
119 0.001349
120 0.001386
121 0.001431
122 0.001424
123 0.001347
124 0.001328
125 0.001374
126 0.001462
127 0.001494
128 0.001576
129 0.001573
130 0.001501
131 0.001373
132 0.001306
133 0.001229
134 0.001223
135 0.001142
136 0.001082
137 0.000937
138 0.000904
139 0.000916
140 0.000938
141 0.000878
142 0.000855
143 0.000861
144 0.000835
145 0.000882
146 0.000979
147 0.001041
148 0.001164
149 0.001266
150 0.001298
151 0.001296
152 0.001287
153 0.001250
154 0.001216
155 0.001175
156 0.001126
157 0.001073
158 0.001071
159 0.001046
160 0.001059
161 0.001168
162 0.001181
163 0.001232
164 0.001287
165 0.001351
166 0.001356
167 0.001351
168 0.001384
169 0.001356
170 0.001260
171 0.001095
172 0.001014
173 0.000939
174 0.000893
175 0.000845
176 0.000798
177 0.000799
178 0.000769
179 0.000777
180 0.000740
181 0.000777
182 0.000834
183 0.000939
184 0.001033
185 0.001030
186 0.001000
187 0.000973
188 0.000965
189 0.000953
190 0.000983
191 0.000933
192 0.000879
193 0.000884
194 0.000883
195 0.001008
196 0.001078
197 0.001226
198 0.001339
199 0.001352
200 0.001358
201 0.001333
202 0.001235
203 0.001182
204 0.001098
205 0.001016
206 0.000966
207 0.000911
208 0.000925
209 0.000943
210 0.000993
211 0.001137
212 0.001251
213 0.001360
214 0.001416
215 0.001468
216 0.001506
217 0.001595
218 0.001670
219 0.001680
220 0.001735
221 0.001822
222 0.001826
223 0.001825
224 0.001860
225 0.001861
226 0.001833
227 0.001797
228 0.001738
229 0.001713
230 0.001708
231 0.001726
232 0.001679
233 0.001688
234 0.001650
235 0.001571
236 0.001474
237 0.001399
238 0.001348
239 0.001319
240 0.001285
241 0.001246
242 0.001222
243 0.001218
244 0.001212
245 0.001181
246 0.001149
247 0.001083
248 0.001021
249 0.000993
250 0.000951
251 0.000926
252 0.000955
253 0.000988
254 0.000964
255 0.000984
256 0.001000
257 0.000979
258 0.000920
259 0.000797
260 0.000740
261 0.000694
262 0.000624
263 0.000511
264 0.000432
265 0.000296
266 0.000173
267 0.000080
268 0.000067
269 0.000103
270 0.000107
271 0.000073
272 0.000020
273 -0.000017
274 0.000010
275 0.000029
276 0.000111
277 0.000132
278 0.000259
279 0.000325
280 0.000402
281 0.000441
282 0.000517
283 0.000513
284 0.000515
285 0.000560
286 0.000618
287 0.000654
288 0.000673
289 0.000681
290 0.000648
291 0.000579
292 0.000548
293 0.000499
294 0.000481
295 0.000410
296 0.000390
297 0.000384
298 0.000417
299 0.000494
300 0.000579
301 0.000653
302 0.000717
303 0.000801
304 0.000875
305 0.000930
306 0.000974
307 0.001019
308 0.001086
309 0.001174
310 0.001263
311 0.001308
312 0.001333
313 0.001360
314 0.001404
315 0.001467
316 0.001514
317 0.001583
318 0.001595
319 0.001618
320 0.001583
321 0.001535
322 0.001486
323 0.001430
324 0.001403
325 0.001417
326 0.001398
327 0.001333
328 0.001310
329 0.001289
330 0.001251
331 0.001276
332 0.001278
333 0.001340
334 0.001342
335 0.001359
336 0.001330
337 0.001333
338 0.001340
339 0.001310
340 0.001313
341 0.001321
342 0.001357
343 0.001362
344 0.001322
345 0.001284
346 0.001257
347 0.001215
348 0.001163
349 0.001155
350 0.001069
351 0.001057
352 0.001044
353 0.001010
354 0.000967
355 0.000897
356 0.000885
357 0.000829
358 0.000829
359 0.000792
360 0.000790
361 0.000835
362 0.000852
363 0.000921
364 0.000975
365 0.001061
366 0.001100
367 0.001085
368 0.001021
369 0.000971
370 0.000913
371 0.000904
372 0.000946
373 0.000973
374 0.001015
375 0.001016
376 0.001045
377 0.001065
378 0.001053
379 0.001087
380 0.001107
381 0.001154
382 0.001209
383 0.001257
384 0.001224
385 0.001245
386 0.001209
387 0.001148
388 0.001089
389 0.001074
390 0.001096
391 0.001069
392 0.001035
393 0.000956
394 0.000887
395 0.000833
396 0.000790
397 0.000767
398 0.000762
399 0.000751
400 0.000740
401 0.000743
402 0.000704
403 0.000716
404 0.000773
405 0.000757
406 0.000811
407 0.000887
408 0.000978
409 0.000993
410 0.001037
411 0.000999
412 0.000935
413 0.000851
414 0.000771
415 0.000659
416 0.000586
417 0.000496
418 0.000506
419 0.000478
420 0.000502
421 0.000536
422 0.000570
423 0.000561
424 0.000533
425 0.000499
426 0.000510
427 0.000491
428 0.000535
429 0.000543
430 0.000528
431 0.000494
432 0.000485
433 0.000408
434 0.000383
435 0.000329
436 0.000339
437 0.000383
438 0.000412
439 0.000447
440 0.000522
441 0.000575
442 0.000536
443 0.000567
444 0.000620
445 0.000649
446 0.000698
447 0.000747
448 0.000816
449 0.000793
450 0.000824
451 0.000814
452 0.000787
453 0.000834
454 0.000894
455 0.000966
456 0.000973
457 0.000967
458 0.000964
459 0.000991
460 0.001010
461 0.001053
462 0.001041
463 0.001005
464 0.001009
465 0.000973
466 0.000959
467 0.000947
468 0.000957
469 0.000982
470 0.000943
471 0.000950
472 0.000959
473 0.001004
474 0.001062
475 0.001080
476 0.001074
477 0.001103
478 0.001101
479 0.001083
480 0.001027
481 0.000983
482 0.000944
483 0.000915
484 0.000862
485 0.000817
486 0.000814
487 0.000766
488 0.000681
489 0.000632
490 0.000600
491 0.000587
492 0.000560
493 0.000483
494 0.000418
495 0.000363
496 0.000300
497 0.000229
498 0.000189
499 0.000119
500 0.000074
501 0.000037
502 0.000057
503 0.000081
504 0.000069
505 0.000029
506 -0.000006
507 -0.000025
508 -0.000073
509 -0.000088
510 -0.000043
511 -0.000015
512 0.000007
513 0.000026
514 0.000004
515 0.000028
516 0.000024
517 0.000022
518 -0.000034
519 -0.000029
520 -0.000032
521 -0.000030
522 -0.000070
523 -0.000086
524 -0.000103
525 -0.000083
526 -0.000010
527 0.000078
528 0.000154
529 0.000195
530 0.000234
531 0.000317
532 0.000427
533 0.000494
534 0.000522
535 0.000551
536 0.000572
537 0.000569
538 0.000595
539 0.000649
540 0.000720
541 0.000739
542 0.000756
543 0.000778
544 0.000845
545 0.000844
546 0.000885
547 0.000901
548 0.000864
549 0.000844
550 0.000842
551 0.000852
552 0.000854
553 0.000824
554 0.000774
555 0.000749
556 0.000794
557 0.000804
558 0.000798
559 0.000800
560 0.000793
561 0.000800
562 0.000885
563 0.000950
564 0.001042
565 0.001047
566 0.001127
567 0.001145
568 0.001117
569 0.001114
570 0.001120
571 0.001079
572 0.001048
573 0.001048
574 0.001072
575 0.001142
576 0.001186
577 0.001209
578 0.001142
579 0.001097
580 0.001065
581 0.001031
582 0.000993
583 0.000943
584 0.000885
585 0.000847
586 0.000837
587 0.000892
588 0.000900
589 0.000936
590 0.000966
591 0.000941
592 0.000888
593 0.000841
594 0.000797
595 0.000799
596 0.000785
597 0.000742
598 0.000724
599 0.000669
600 0.000625
601 0.000576
602 0.000525
603 0.000486
604 0.000469
605 0.000474
606 0.000474
607 0.000509
608 0.000510
609 0.000508
610 0.000508
611 0.000521
612 0.000478
613 0.000430
614 0.000351
615 0.000293
616 0.000274
617 0.000248
618 0.000210
619 0.000218
620 0.000230
621 0.000246
622 0.000279
623 0.000268
624 0.000309
625 0.000369
626 0.000379
627 0.000394
628 0.000363
629 0.000348
630 0.000314
631 0.000289
632 0.000250
633 0.000204
634 0.000247
635 0.000263
636 0.000276
637 0.000296
638 0.000316
639 0.000328
640 0.000315
641 0.000359
642 0.000371
643 0.000429
644 0.000459
645 0.000530
646 0.000545
647 0.000552
648 0.000541
649 0.000508
650 0.000464
651 0.000481
652 0.000523
653 0.000565
654 0.000590
655 0.000621
656 0.000625
657 0.000586
658 0.000545
659 0.000533
660 0.000488
661 0.000495
662 0.000516
663 0.000506
664 0.000524
665 0.000542
666 0.000544
667 0.000538
668 0.000524
669 0.000470
670 0.000411
671 0.000380
672 0.000383
673 0.000355
674 0.000335
675 0.000341
676 0.000381
677 0.000392
678 0.000383
679 0.000405
680 0.000454
681 0.000466
682 0.000470
683 0.000448
684 0.000442
685 0.000444
686 0.000456
687 0.000430
688 0.000438
689 0.000467
690 0.000500
691 0.000524
692 0.000588
693 0.000645
694 0.000682
695 0.000707
696 0.000742
697 0.000765
698 0.000793
699 0.000793
700 0.000822
701 0.000852
702 0.000858
703 0.000837
704 0.000819
705 0.000780
706 0.000712
707 0.000678
708 0.000638
709 0.000620
710 0.000630
711 0.000622
712 0.000616
713 0.000582
714 0.000557
715 0.000530
716 0.000529
717 0.000536
718 0.000540
719 0.000498
720 0.000422
721 0.000326
722 0.000220
723 0.000114
724 0.000043
725 0.000014
726 -0.000023
727 -0.000051
728 -0.000066
729 -0.000084
730 -0.000079
731 -0.000078
732 -0.000097
733 -0.000134
734 -0.000163
735 -0.000163
736 -0.000175
737 -0.000159
738 -0.000150
739 -0.000140
740 -0.000147
741 -0.000156
742 -0.000164
743 -0.000152
744 -0.000116
745 -0.000097
746 -0.000090
747 -0.000072
748 -0.000031
749 -0.000014
750 0.000010
751 0.000018
752 0.000018
753 0.000056
754 0.000087
755 0.000128
756 0.000154
757 0.000164
758 0.000149
759 0.000153
760 0.000173
761 0.000190
762 0.000226
763 0.000278
764 0.000337
765 0.000399
766 0.000429
767 0.000446
768 0.000455
769 0.000415
770 0.000363
771 0.000329
772 0.000328
773 0.000353
774 0.000369
775 0.000386
776 0.000421
777 0.000422
778 0.000380
779 0.000356
780 0.000352
781 0.000353
782 0.000358
783 0.000373
784 0.000403
785 0.000429
786 0.000421
787 0.000401
788 0.000391
789 0.000401
790 0.000426
791 0.000454
792 0.000500
793 0.000542
794 0.000560
795 0.000574
796 0.000540
797 0.000529
798 0.000502
799 0.000464
800 0.000444
801 0.000434
802 0.000444
803 0.000430
804 0.000402
805 0.000378
806 0.000376
807 0.000351
808 0.000338
809 0.000319
