# i correlation
1 0.003956
2 0.003318
3 0.002764
4 0.002376
5 0.001972
6 0.001665
7 0.001420
8 0.001264
9 0.001088
10 0.000901
11 0.000738
12 0.000604
13 0.000524
14 0.000582
15 0.000634
16 0.000649
17 0.000704
18 0.000801
19 0.000850
20 0.000858
21 0.000869
22 0.000895
23 0.000911
24 0.000923
25 0.000922
26 0.000832
27 0.000812
28 0.000703
29 0.000594
30 0.000459
31 0.000394
32 0.000348
33 0.000319
34 0.000308
35 0.000284
36 0.000321
37 0.000310
38 0.000324
39 0.000293
40 0.000238
41 0.000124
42 0.000089
43 -0.000005
44 -0.000100
45 -0.000106
46 -0.000044
47 0.000018
48 0.000122
49 0.000236
50 0.000310
51 0.000297
52 0.000258
53 0.000193
54 0.000178
55 0.000189
56 0.000201
57 0.000182
58 0.000169
59 0.000151
60 0.000116
61 0.000028
62 -0.000025
63 -0.000087
64 -0.000142
65 -0.000118
66 -0.000180
67 -0.000134
68 -0.000140
69 -0.000130
70 -0.000103
71 -0.000078
72 0.000029
73 0.000105
74 0.000241
75 0.000310
76 0.000380
77 0.000433
78 0.000513
79 0.000541
80 0.000587
81 0.000574
82 0.000602
83 0.000565
84 0.000505
85 0.000417
86 0.000355
87 0.000328
88 0.000302
89 0.000245
90 0.000166
91 0.000141
92 0.000226
93 0.000261
94 0.000305
95 0.000322
96 0.000400
97 0.000489
98 0.000531
99 0.000568
100 0.000620
101 0.000747
102 0.000732
103 0.000621
104 0.000469
105 0.000404
106 0.000302
107 0.000217
108 0.000085
109 0.000073
110 0.000110
111 0.000089
112 0.000084
113 0.000046
114 0.000084
115 0.000194
116 0.000280
117 0.000341
118 0.000413
119 0.000443
120 0.000520
121 0.000503
122 0.000478
123 0.000450
124 0.000481
125 0.000465
126 0.000436
127 0.000272
128 0.000192
129 0.000145
130 0.000186
131 0.000185
132 0.000187
133 0.000087
134 0.000119
135 0.000130
136 0.000150
137 0.000180
138 0.000240
139 0.000282
140 0.000231
141 0.000210
142 0.000181
143 0.000181
144 0.000181
145 0.000153
146 0.000084
147 0.000116
148 0.000168
149 0.000240
150 0.000282
151 0.000338
152 0.000368
153 0.000399
154 0.000333
155 0.000284
156 0.000221
157 0.000275
158 0.000249
159 0.000300
160 0.000256
161 0.000212
162 0.000135
163 0.000131
164 0.000080
165 0.000060
166 0.000074
167 0.000145
168 0.000206
169 0.000207
170 0.000128
171 0.000052
172 0.000002
173 -0.000044
174 -0.000024
175 0.000036
176 0.000055
177 0.000074
178 0.000083
179 0.000103
180 0.000084
181 0.000030
182 -0.000013
183 -0.000004
184 0.000015
185 -0.000005
186 -0.000068
187 -0.000135
188 -0.000195
189 -0.000241
190 -0.000234
191 -0.000259
192 -0.000299
193 -0.000318
194 -0.000364
195 -0.000394
196 -0.000384
197 -0.000326
198 -0.000305
199 -0.000272
200 -0.000262
201 -0.000295
202 -0.000352
203 -0.000412
204 -0.000421
205 -0.000454
206 -0.000465
207 -0.000430
208 -0.000433
209 -0.000437
210 -0.000486
211 -0.000544
212 -0.000573
213 -0.000610
214 -0.000578
215 -0.000533
216 -0.000420
217 -0.000312
218 -0.000250
219 -0.000171
220 -0.000118
221 -0.000063
222 0.000019
223 0.000063
224 0.000098
225 0.000140
226 0.000179
227 0.000178
228 0.000159
229 0.000130
230 0.000094
231 0.000110
232 0.000130
233 0.000172
234 0.000167
235 0.000258
236 0.000278
237 0.000268
238 0.000203
239 0.000213
240 0.000183
241 0.000219
242 0.000172
243 0.000152
244 0.000151
245 0.000201
246 0.000273
247 0.000300
248 0.000296
249 0.000248
250 0.000288
251 0.000240
252 0.000144
253 0.000056
254 0.000049
255 0.000029
256 0.000025
257 -0.000021
258 -0.000020
259 -0.000012
260 -0.000002
261 0.000027
262 0.000061
263 0.000028
264 0.000045
265 0.000047
266 -0.000012
267 -0.000081
268 -0.000047
269 0.000002
270 0.000030
271 0.000042
272 0.000045
273 0.000082
274 0.000054
275 0.000027
276 -0.000015
277 0.000027
278 0.000010
279 0.000036
280 -0.000031
281 -0.000073
282 -0.000119
283 -0.000157
284 -0.000116
285 -0.000106
286 -0.000174
287 -0.000274
288 -0.000361
289 -0.000350
290 -0.000384
291 -0.000391
292 -0.000413
293 -0.000331
294 -0.000293
295 -0.000238
296 -0.000141
297 -0.000106
298 -0.000095
299 -0.000104
300 -0.000078
301 -0.000038
302 -0.000062
303 -0.000078
304 -0.000063
305 -0.000102
306 -0.000179
307 -0.000249
308 -0.000321
309 -0.000333
310 -0.000277
311 -0.000218
312 -0.000179
313 -0.000154
314 -0.000105
315 0.000001
316 0.000056
317 0.000114
318 0.000213
319 0.000349
320 0.000445
321 0.000480
322 0.000475
323 0.000471
324 0.000468
325 0.000414
326 0.000353
327 0.000299
328 0.000255
329 0.000307
330 0.000355
331 0.000349
332 0.000341
333 0.000340
334 0.000335
335 0.000335
336 0.000325
337 0.000300
338 0.000315
339 0.000237
340 0.000227
341 0.000233
342 0.000282
343 0.000289
344 0.000298
345 0.000264
346 0.000232
347 0.000242
348 0.000295
349 0.000298
350 0.000315
351 0.000358
352 0.000372
353 0.000349
354 0.000256
355 0.000199
356 0.000215
357 0.000206
358 0.000210
359 0.000212
360 0.000243
361 0.000226
362 0.000141
363 0.000096
364 0.000060
365 0.000108
366 0.000171
367 0.000233
368 0.000214
369 0.000219
370 0.000269
371 0.000319
372 0.000326
373 0.000313
374 0.000322
375 0.000330
376 0.000279
377 0.000199
378 0.000161
379 0.000116
380 0.000119
381 0.000100
382 0.000086
383 0.000054
384 0.000056
385 0.000039
386 0.000022
387 -0.000013
388 -0.000090
389 -0.000117
390 -0.000108
391 -0.000084
392 -0.000047
393 -0.000021
394 0.000022
395 0.000030
396 0.000057
397 0.000090
398 0.000158
399 0.000173
400 0.000187
401 0.000138
402 0.000126
403 0.000108
404 0.000095
405 0.000124
406 0.000112
407 0.000162
408 0.000226
409 0.000307
410 0.000346
411 0.000376
412 0.000393
413 0.000442
414 0.000475
415 0.000515
416 0.000596
417 0.000596
418 0.000562
419 0.000478
420 0.000401
421 0.000366
422 0.000322
423 0.000304
424 0.000202
425 0.000148
426 0.000054
427 -0.000041
428 -0.000121
429 -0.000152
430 -0.000073
431 -0.000047
432 0.000026
433 0.000063
434 0.000073
435 0.000120
436 0.000142
437 0.000117
438 0.000061
439 0.000038
440 0.000051
441 0.000038
442 -0.000010
443 -0.000042
444 -0.000064
445 -0.000089
446 -0.000143
447 -0.000123
448 -0.000063
449 -0.000027
450 0.000012
451 0.000002
452 0.000025
453 0.000009
454 0.000001
455 -0.000037
456 -0.000064
457 -0.000103
458 -0.000043
459 -0.000074
460 -0.000120
461 -0.000174
462 -0.000182
463 -0.000192
464 -0.000193
465 -0.000242
466 -0.000260
467 -0.000224
468 -0.000112
469 -0.000053
470 -0.000008
471 0.000017
472 0.000084
473 0.000144
474 0.000214
475 0.000196
476 0.000194
477 0.000149
478 0.000125
479 0.000066
480 0.000029
481 -0.000025
482 -0.000031
483 -0.000030
484 -0.000043
485 -0.000022
486 0.000038
487 0.000074
488 0.000093
489 0.000142
490 0.000224
491 0.000301
492 0.000318
493 0.000304
494 0.000296
495 0.000307
496 0.000272
497 0.000305
498 0.000403
499 0.000415
500 0.000369
501 0.000319
502 0.000231
503 0.000108
504 0.000017
505 -0.000001
506 -0.000017
507 -0.000019
508 -0.000033
509 0.000005
510 0.000064
511 0.000055
512 0.000085
513 0.000123
514 0.000111
515 0.000126
516 0.000154
517 0.000178
518 0.000152
519 0.000112
520 0.000108
521 0.000053
522 -0.000011
523 -0.000033
524 -0.000053
525 -0.000090
526 -0.000138
527 -0.000138
528 -0.000139
529 -0.000148
530 -0.000156
531 -0.000161
532 -0.000198
533 -0.000204
534 -0.000205
535 -0.000194
536 -0.000163
537 -0.000155
538 -0.000189
539 -0.000235
540 -0.000231
541 -0.000196
542 -0.000227
543 -0.000295
544 -0.000360
545 -0.000370
546 -0.000382
547 -0.000319
548 -0.000242
549 -0.000197
550 -0.000154
551 -0.000145
552 -0.000136
553 -0.000210
554 -0.000282
555 -0.000317
556 -0.000370
557 -0.000368
558 -0.000371
559 -0.000368
560 -0.000394
561 -0.000418
562 -0.000482
563 -0.000546
564 -0.000612
565 -0.000617
566 -0.000555
567 -0.000477
568 -0.000390
569 -0.000333
570 -0.000277
571 -0.000283
572 -0.000284
573 -0.000254
574 -0.000241
575 -0.000239
576 -0.000263
577 -0.000311
578 -0.000372
579 -0.000400
580 -0.000434
581 -0.000511
582 -0.000549
583 -0.000576
584 -0.000583
585 -0.000610
586 -0.000643
587 -0.000651
588 -0.000641
589 -0.000623
590 -0.000579
591 -0.000540
592 -0.000478
593 -0.000442
594 -0.000401
595 -0.000330
596 -0.000277
597 -0.000239
598 -0.000174
599 -0.000110
600 -0.000025
601 -0.000001
602 -0.000030
603 -0.000073
604 -0.000141
605 -0.000220
606 -0.000272
607 -0.000287
608 -0.000304
609 -0.000319
610 -0.000389
611 -0.000428
612 -0.000490
613 -0.000548
614 -0.000584
615 -0.000521
616 -0.000456
617 -0.000394
618 -0.000402
619 -0.000377
620 -0.000356
621 -0.000343
622 -0.000314
623 -0.000315
624 -0.000332
625 -0.000319
626 -0.000324
627 -0.000307
628 -0.000292
629 -0.000238
630 -0.000206
631 -0.000181
632 -0.000166
633 -0.000140
634 -0.000137
635 -0.000127
636 -0.000154
637 -0.000096
638 -0.000081
639 -0.000072
640 -0.000080
641 -0.000088
642 -0.000093
643 -0.000099
644 -0.000099
645 -0.000086
646 -0.000067
647 -0.000051
648 -0.000011
649 0.000052
650 0.000102
651 0.000157
652 0.000202
653 0.000225
654 0.000254
655 0.000293
656 0.000295
657 0.000276
658 0.000247
659 0.000232
660 0.000192
661 0.000127
662 0.000080
663 0.000010
664 -0.000040
665 -0.000077
666 -0.000105
667 -0.000085
668 -0.000088
669 -0.000111
670 -0.000152
671 -0.000167
672 -0.000190
673 -0.000178
674 -0.000160
675 -0.000108
676 -0.000056
677 -0.000022
678 0.000028
679 0.000030
680 -0.000003
681 -0.000051
682 -0.000074
683 -0.000061
684 -0.000029
685 -0.000014
686 -0.000020
687 -0.000053
688 -0.000106
689 -0.000104
690 -0.000107
691 -0.000065
692 -0.000085
693 -0.000098
694 -0.000094
695 -0.000123
696 -0.000150
697 -0.000166
698 -0.000190
699 -0.000210
700 -0.000211
701 -0.000223
702 -0.000228
703 -0.000250
704 -0.000268
705 -0.000256
706 -0.000305
707 -0.000342
708 -0.000355
709 -0.000328
710 -0.000313
711 -0.000284
712 -0.000248
713 -0.000244
714 -0.000224
715 -0.000232
716 -0.000214
717 -0.000160
718 -0.000113
719 -0.000077
720 -0.000071
721 -0.000055
722 -0.000088
723 -0.000116
724 -0.000169
725 -0.000202
726 -0.000197
727 -0.000195
728 -0.000237
729 -0.000246
730 -0.000268
731 -0.000278
732 -0.000244
733 -0.000208
734 -0.000156
735 -0.000096
736 -0.000045
737 0.000032
738 0.000099
739 0.000144
740 0.000160
741 0.000149
742 0.000118
743 0.000089
744 0.000026
745 0.000010
746 -0.000018
747 -0.000004
748 -0.000002
749 -0.000020
750 -0.000050
751 -0.000025
752 0.000019
753 0.000047
754 0.000047
755 0.000037
756 0.000051
757 0.000060
758 0.000061
759 0.000089
760 0.000108
761 0.000124
762 0.000092
763 0.000067
764 0.000052
765 0.000048
766 0.000034
767 0.000044
768 0.000068
769 0.000089
770 0.000116
771 0.000121
772 0.000117
773 0.000102
774 0.000122
775 0.000170
776 0.000207
777 0.000236
778 0.000251
779 0.000256
780 0.000222
781 0.000173
782 0.000130
783 0.000118
784 0.000083
785 0.000060
786 0.000056
787 0.000059
788 0.000066
789 0.000045
790 0.000035
791 0.000039
792 0.000043
793 0.000037
794 0.000045
795 0.000049
796 0.000048
797 0.000024
798 0.000003
799 -0.000032
800 -0.000067
801 -0.000081
802 -0.000105
803 -0.000121
804 -0.000155
805 -0.000172
806 -0.000179
807 -0.000163
808 -0.000142
809 -0.000094
