# i correlation
1 0.005937
2 0.005230
3 0.004587
4 0.004090
5 0.003720
6 0.003373
7 0.003108
8 0.003011
9 0.003004
10 0.003058
11 0.003074
12 0.003092
13 0.002955
14 0.002933
15 0.002910
16 0.002820
17 0.002749
18 0.002724
19 0.002756
20 0.002840
21 0.002877
22 0.002852
23 0.002821
24 0.002841
25 0.002819
26 0.002776
27 0.002663
28 0.002486
29 0.002393
30 0.002408
31 0.002424
32 0.002387
33 0.002335
34 0.002234
35 0.002195
36 0.002142
37 0.002056
38 0.001906
39 0.001786
40 0.001712
41 0.001729
42 0.001714
43 0.001739
44 0.001787
45 0.001875
46 0.001873
47 0.001924
48 0.001867
49 0.001804
50 0.001800
51 0.001798
52 0.001781
53 0.001790
54 0.001754
55 0.001779
56 0.001714
57 0.001633
58 0.001525
59 0.001429
60 0.001356
61 0.001300
62 0.001279
63 0.001365
64 0.001502
65 0.001608
66 0.001682
67 0.001697
68 0.001647
69 0.001567
70 0.001447
71 0.001338
72 0.001275
73 0.001219
74 0.001282
75 0.001267
76 0.001281
77 0.001212
78 0.001215
79 0.001174
80 0.001089
81 0.001081
82 0.000963
83 0.000856
84 0.000753
85 0.000701
86 0.000674
87 0.000708
88 0.000723
89 0.000780
90 0.000848
91 0.000939
92 0.000983
93 0.000987
94 0.000985
95 0.000898
96 0.000777
97 0.000709
98 0.000697
99 0.000652
100 0.000611
101 0.000604
102 0.000573
103 0.000580
104 0.000596
105 0.000549
106 0.000534
107 0.000486
108 0.000511
109 0.000457
110 0.000394
111 0.000399
112 0.000375
113 0.000398
114 0.000488
115 0.000474
116 0.000453
117 0.000450
118 0.000510
119 0.000520
120 0.000547
121 0.000585
122 0.000571
123 0.000591
124 0.000530
125 0.000553
126 0.000554
127 0.000467
128 0.000437
129 0.000405
130 0.000347
131 0.000373
132 0.000400
133 0.000465
134 0.000507
135 0.000530
136 0.000553
137 0.000614
138 0.000734
139 0.000835
140 0.000934
141 0.000947
142 0.000927
143 0.000854
144 0.000766
145 0.000725
146 0.000670
147 0.000628
148 0.000606
149 0.000554
150 0.000543
151 0.000413
152 0.000300
153 0.000198
154 0.000167
155 0.000240
156 0.000279
157 0.000389
158 0.000543
159 0.000651
160 0.000711
161 0.000820
162 0.000919
163 0.001028
164 0.001037
165 0.000986
166 0.000948
167 0.000963
168 0.001057
169 0.001166
170 0.001237
171 0.001243
172 0.001243
173 0.001217
174 0.001104
175 0.000975
176 0.000842
177 0.000763
178 0.000733
179 0.000755
180 0.000801
181 0.000854
182 0.000913
183 0.000963
184 0.000955
185 0.000956
186 0.000963
187 0.000962
188 0.001010
189 0.001095
190 0.001125
191 0.001150
192 0.001130
193 0.001242
194 0.001300
195 0.001392
196 0.001396
197 0.001406
198 0.001460
199 0.001467
200 0.001393
201 0.001324
202 0.001318
203 0.001294
204 0.001314
205 0.001307
206 0.001219
207 0.001143
208 0.001087
209 0.001006
210 0.001006
211 0.000940
212 0.001005
213 0.001098
214 0.001178
215 0.001200
216 0.001209
217 0.001137
218 0.001063
219 0.001013
220 0.000925
221 0.000853
222 0.000891
223 0.000900
224 0.000982
225 0.001076
226 0.001194
227 0.001205
228 0.001191
229 0.001155
230 0.001108
231 0.001057
232 0.001020
233 0.001016
234 0.001032
235 0.001066
236 0.001144
237 0.001179
238 0.001120
239 0.001041
240 0.000997
241 0.000954
242 0.000920
243 0.000918
244 0.000934
245 0.000882
246 0.000953
247 0.001019
248 0.001116
249 0.001264
250 0.001255
251 0.001261
252 0.001166
253 0.001025
254 0.000992
255 0.000951
256 0.000964
257 0.000951
258 0.000975
259 0.001014
260 0.001029
261 0.001035
262 0.001008
263 0.000984
264 0.000861
265 0.000719
266 0.000644
267 0.000591
268 0.000605
269 0.000641
270 0.000712
271 0.000831
272 0.000920
273 0.000946
274 0.000923
275 0.000821
276 0.000741
277 0.000660
278 0.000590
279 0.000511
280 0.000476
281 0.000501
282 0.000560
283 0.000635
284 0.000649
285 0.000619
286 0.000661
287 0.000742
288 0.000728
289 0.000796
290 0.000789
291 0.000767
292 0.000757
293 0.000702
294 0.000589
295 0.000483
296 0.000373
297 0.000345
298 0.000270
299 0.000234
300 0.000186
301 0.000321
302 0.000468
303 0.000629
304 0.000745
305 0.000781
306 0.000757
307 0.000775
308 0.000714
309 0.000653
310 0.000575
311 0.000570
312 0.000562
313 0.000604
314 0.000604
315 0.000604
316 0.000658
317 0.000699
318 0.000710
319 0.000716
320 0.000656
321 0.000639
322 0.000693
323 0.000765
324 0.000827
325 0.000886
326 0.000926
327 0.001035
328 0.001105
329 0.001077
330 0.001038
331 0.000970
332 0.000840
333 0.000749
334 0.000696
335 0.000676
336 0.000674
337 0.000727
338 0.000837
339 0.000952
340 0.001023
341 0.001052
342 0.001036
343 0.001009
344 0.000968
345 0.000850
346 0.000715
347 0.000664
348 0.000676
349 0.000743
350 0.000805
351 0.000826
352 0.000869
353 0.000914
354 0.000953
355 0.000923
356 0.000826
357 0.000805
358 0.000744
359 0.000684
360 0.000639
361 0.000642
362 0.000665
363 0.000716
364 0.000763
365 0.000827
366 0.000876
367 0.000922
368 0.000979
369 0.001074
370 0.001114
371 0.001079
372 0.001061
373 0.001055
374 0.001065
375 0.001092
376 0.001070
377 0.001076
378 0.001042
379 0.000950
380 0.000935
381 0.000905
382 0.000904
383 0.000917
384 0.000985
385 0.001037
386 0.001041
387 0.001034
388 0.001074
389 0.001034
390 0.001019
391 0.001069
392 0.001067
393 0.001099
394 0.001162
395 0.001237
396 0.001303
397 0.001320
398 0.001345
399 0.001359
400 0.001335
401 0.001260
402 0.001148
403 0.001036
404 0.000904
405 0.000880
406 0.000928
407 0.000990
408 0.001027
409 0.001037
410 0.001061
411 0.001019
412 0.001003
413 0.000978
414 0.000908
415 0.000875
416 0.000862
417 0.000928
418 0.000995
419 0.001057
420 0.001158
421 0.001204
422 0.001211
423 0.001153
424 0.001086
425 0.001009
426 0.000951
427 0.000814
428 0.000684
429 0.000637
430 0.000612
431 0.000646
432 0.000740
433 0.000761
434 0.000693
435 0.000619
436 0.000539
437 0.000488
438 0.000423
439 0.000336
440 0.000236
441 0.000223
442 0.000266
443 0.000275
444 0.000345
445 0.000390
446 0.000426
447 0.000441
448 0.000447
449 0.000424
450 0.000402
451 0.000413
452 0.000429
453 0.000516
454 0.000545
455 0.000558
456 0.000564
457 0.000526
458 0.000476
459 0.000416
460 0.000321
461 0.000300
462 0.000352
463 0.000428
464 0.000462
465 0.000509
466 0.000502
467 0.000533
468 0.000485
469 0.000393
470 0.000267
471 0.000233
472 0.000211
473 0.000250
474 0.000331
475 0.000408
476 0.000487
477 0.000557
478 0.000537
479 0.000512
480 0.000435
481 0.000365
482 0.000329
483 0.000356
484 0.000416
485 0.000482
486 0.000573
487 0.000605
488 0.000669
489 0.000682
490 0.000654
491 0.000674
492 0.000661
493 0.000551
494 0.000437
495 0.000315
496 0.000237
497 0.000182
498 0.000224
499 0.000255
500 0.000280
501 0.000240
502 0.000206
503 0.000181
504 0.000128
505 0.000076
506 0.000038
507 0.000053
508 0.000084
509 0.000153
510 0.000203
511 0.000274
512 0.000365
513 0.000398
514 0.000422
515 0.000416
516 0.000410
517 0.000402
518 0.000411
519 0.000402
520 0.000416
521 0.000406
522 0.000388
523 0.000376
524 0.000418
525 0.000412
526 0.000391
527 0.000362
528 0.000323
529 0.000333
530 0.000352
531 0.000360
532 0.000376
533 0.000443
534 0.000461
535 0.000494
536 0.000524
537 0.000589
538 0.000664
539 0.000734
540 0.000763
541 0.000788
542 0.000747
543 0.000781
544 0.000722
545 0.000672
546 0.000628
547 0.000593
548 0.000632
549 0.000661
550 0.000670
551 0.000685
552 0.000717
553 0.000772
554 0.000786
555 0.000842
556 0.000844
557 0.000883
558 0.000922
559 0.000943
560 0.000945
561 0.000911
562 0.000863
563 0.000852
564 0.000869
565 0.000921
566 0.000931
567 0.000960
568 0.000909
569 0.000878
570 0.000843
571 0.000860
572 0.000854
573 0.000906
574 0.000959
575 0.001000
576 0.001061
577 0.001063
578 0.001058
579 0.001076
580 0.001057
581 0.001036
582 0.001008
583 0.001016
584 0.001026
585 0.001071
586 0.001098
587 0.001117
588 0.001138
589 0.001155
590 0.001219
591 0.001221
592 0.001204
593 0.001196
594 0.001221
595 0.001210
596 0.001226
597 0.001162
598 0.001148
599 0.001141
600 0.001131
601 0.001086
602 0.001037
603 0.001027
604 0.001029
605 0.001035
606 0.001085
607 0.001087
608 0.001064
609 0.001006
610 0.000959
611 0.000929
612 0.000928
613 0.000918
614 0.000902
615 0.000850
616 0.000804
617 0.000809
618 0.000832
619 0.000825
620 0.000796
621 0.000777
622 0.000775
623 0.000741
624 0.000789
625 0.000819
626 0.000817
627 0.000774
628 0.000692
629 0.000627
630 0.000592
631 0.000538
632 0.000522
633 0.000482
634 0.000463
635 0.000430
636 0.000407
637 0.000384
638 0.000367
639 0.000355
640 0.000331
641 0.000309
642 0.000278
643 0.000252
644 0.000281
645 0.000353
646 0.000428
647 0.000482
648 0.000529
649 0.000576
650 0.000626
651 0.000654
652 0.000658
653 0.000652
654 0.000698
655 0.000748
656 0.000822
657 0.000872
658 0.000897
659 0.000887
660 0.000832
661 0.000797
662 0.000753
663 0.000648
664 0.000557
665 0.000474
666 0.000427
667 0.000382
668 0.000335
669 0.000312
670 0.000340
671 0.000353
672 0.000378
673 0.000361
674 0.000326
675 0.000319
676 0.000329
677 0.000367
678 0.000361
679 0.000370
680 0.000391
681 0.000489
682 0.000517
683 0.000478
684 0.000380
685 0.000309
686 0.000193
687 0.000107
688 0.000059
689 0.000031
690 0.000002
691 -0.000005
692 -0.000009
693 0.000022
694 0.000010
695 -0.000013
696 -0.000020
697 -0.000030
698 -0.000037
699 -0.000047
700 -0.000035
701 -0.000049
702 -0.000036
703 -0.000023
704 0.000007
705 0.000013
706 -0.000018
707 -0.000032
708 -0.000047
709 -0.000068
710 -0.000112
711 -0.000146
712 -0.000134
713 -0.000118
714 -0.000105
715 -0.000124
716 -0.000149
717 -0.000180
718 -0.000218
719 -0.000243
720 -0.000292
721 -0.000308
722 -0.000299
723 -0.000278
724 -0.000230
725 -0.000184
726 -0.000122
727 -0.000101
728 -0.000068
729 -0.000092
730 -0.000146
731 -0.000205
732 -0.000257
733 -0.000321
734 -0.000364
735 -0.000387
736 -0.000370
737 -0.000349
738 -0.000317
739 -0.000301
740 -0.000263
741 -0.000272
742 -0.000307
743 -0.000342
744 -0.000361
745 -0.000344
746 -0.000307
747 -0.000264
748 -0.000226
749 -0.000208
750 -0.000164
751 -0.000155
752 -0.000188
753 -0.000254
754 -0.000337
755 -0.000379
756 -0.000394
757 -0.000380
758 -0.000402
759 -0.000416
760 -0.000413
761 -0.000394
762 -0.000360
763 -0.000323
764 -0.000292
765 -0.000305
766 -0.000309
767 -0.000325
768 -0.000340
769 -0.000332
770 -0.000323
771 -0.000305
772 -0.000301
773 -0.000293
774 -0.000287
775 -0.000273
776 -0.000252
777 -0.000261
778 -0.000280
779 -0.000317
780 -0.000339
781 -0.000317
782 -0.000317
783 -0.000303
784 -0.000295
785 -0.000291
786 -0.000272
787 -0.000229
788 -0.000188
789 -0.000154
790 -0.000117
791 -0.000083
792 -0.000044
793 0.000022
794 0.000047
795 0.000090
796 0.000117
797 0.000144
798 0.000143
799 0.000115
800 0.000069
801 0.000029
802 0.000035
803 0.000024
804 0.000025
805 0.000007
806 -0.000009
807 0.000003
808 0.000014
809 0.000007
