# i correlation
1 0.005088
2 0.004369
3 0.003832
4 0.003477
5 0.003188
6 0.002984
7 0.002809
8 0.002665
9 0.002481
10 0.002332
11 0.002201
12 0.002055
13 0.002001
14 0.001953
15 0.001840
16 0.001716
17 0.001584
18 0.001539
19 0.001480
20 0.001536
21 0.001514
22 0.001533
23 0.001469
24 0.001488
25 0.001534
26 0.001554
27 0.001515
28 0.001516
29 0.001523
30 0.001546
31 0.001524
32 0.001571
33 0.001580
34 0.001623
35 0.001649
36 0.001609
37 0.001542
38 0.001520
39 0.001526
40 0.001576
41 0.001561
42 0.001528
43 0.001517
44 0.001581
45 0.001623
46 0.001678
47 0.001678
48 0.001738
49 0.001730
50 0.001693
51 0.001607
52 0.001556
53 0.001493
54 0.001378
55 0.001301
56 0.001244
57 0.001197
58 0.001166
59 0.001222
60 0.001188
61 0.001130
62 0.001135
63 0.001162
64 0.001223
65 0.001199
66 0.001231
67 0.001252
68 0.001345
69 0.001491
70 0.001591
71 0.001566
72 0.001628
73 0.001660
74 0.001721
75 0.001706
76 0.001732
77 0.001778
78 0.001774
79 0.001756
80 0.001747
81 0.001714
82 0.001682
83 0.001580
84 0.001514
85 0.001485
86 0.001471
87 0.001458
88 0.001493
89 0.001465
90 0.001512
91 0.001546
92 0.001561
93 0.001468
94 0.001414
95 0.001330
96 0.001242
97 0.001210
98 0.001269
99 0.001300
100 0.001313
101 0.001332
102 0.001334
103 0.001327
104 0.001345
105 0.001365
106 0.001375
107 0.001428
108 0.001528
109 0.001500
110 0.001442
111 0.001332
112 0.001316
113 0.001345
114 0.001381
115 0.001410
116 0.001373
117 0.001414
118 0.001456
119 0.001394
120 0.001389
121 0.001406
122 0.001451
123 0.001479
124 0.001421
125 0.001384
126 0.001312
127 0.001293
128 0.001293
129 0.001261
130 0.001251
131 0.001207
132 0.001164
133 0.001188
134 0.001209
135 0.001282
136 0.001323
137 0.001300
138 0.001385
139 0.001374
140 0.001308
141 0.001259
142 0.001288
143 0.001366
144 0.001285
145 0.001224
146 0.001217
147 0.001270
148 0.001282
149 0.001260
150 0.001234
151 0.001177
152 0.001135
153 0.001111
154 0.001160
155 0.001196
156 0.001244
157 0.001285
158 0.001309
159 0.001301
160 0.001304
161 0.001343
162 0.001360
163 0.001368
164 0.001325
165 0.001212
166 0.001133
167 0.001093
168 0.001129
169 0.001119
170 0.001140
171 0.001124
172 0.001225
173 0.001222
174 0.001234
175 0.001242
176 0.001329
177 0.001437
178 0.001495
179 0.001476
180 0.001454
181 0.001407
182 0.001402
183 0.001430
184 0.001413
185 0.001340
186 0.001353
187 0.001387
188 0.001454
189 0.001459
190 0.001405
191 0.001376
192 0.001417
193 0.001419
194 0.001414
195 0.001381
196 0.001328
197 0.001326
198 0.001265
199 0.001202
200 0.001147
201 0.001130
202 0.001162
203 0.001167
204 0.001131
205 0.001111
206 0.001131
207 0.001177
208 0.001203
209 0.001221
210 0.001224
211 0.001182
212 0.001208
213 0.001201
214 0.001221
215 0.001243
216 0.001268
217 0.001259
218 0.001274
219 0.001212
220 0.001126
221 0.001059
222 0.001034
223 0.001089
224 0.001122
225 0.001119
226 0.001120
227 0.001137
228 0.001229
229 0.001281
230 0.001243
231 0.001097
232 0.000993
233 0.000875
234 0.000766
235 0.000670
236 0.000630
237 0.000623
238 0.000667
239 0.000652
240 0.000673
241 0.000659
242 0.000609
243 0.000583
244 0.000543
245 0.000486
246 0.000499
247 0.000519
248 0.000514
249 0.000504
250 0.000531
251 0.000547
252 0.000623
253 0.000683
254 0.000681
255 0.000646
256 0.000695
257 0.000732
258 0.000747
259 0.000689
260 0.000776
261 0.000892
262 0.000927
263 0.000866
264 0.000862
265 0.000854
266 0.000824
267 0.000783
268 0.000724
269 0.000672
270 0.000654
271 0.000701
272 0.000664
273 0.000615
274 0.000619
275 0.000614
276 0.000646
277 0.000639
278 0.000658
279 0.000680
280 0.000659
281 0.000714
282 0.000740
283 0.000724
284 0.000768
285 0.000827
286 0.000861
287 0.000863
288 0.000790
289 0.000700
290 0.000619
291 0.000623
292 0.000674
293 0.000684
294 0.000660
295 0.000627
296 0.000655
297 0.000733
298 0.000756
299 0.000726
300 0.000708
301 0.000720
302 0.000659
303 0.000563
304 0.000494
305 0.000478
306 0.000465
307 0.000414
308 0.000378
309 0.000396
310 0.000421
311 0.000441
312 0.000411
313 0.000369
314 0.000365
315 0.000389
316 0.000462
317 0.000529
318 0.000552
319 0.000618
320 0.000619
321 0.000586
322 0.000535
323 0.000456
324 0.000482
325 0.000507
326 0.000524
327 0.000550
328 0.000473
329 0.000422
330 0.000436
331 0.000521
332 0.000590
333 0.000611
334 0.000622
335 0.000588
336 0.000542
337 0.000573
338 0.000659
339 0.000701
340 0.000737
341 0.000746
342 0.000717
343 0.000717
344 0.000774
345 0.000794
346 0.000810
347 0.000775
348 0.000729
349 0.000604
350 0.000538
351 0.000528
352 0.000520
353 0.000503
354 0.000483
355 0.000436
356 0.000382
357 0.000289
358 0.000170
359 0.000102
360 0.000030
361 0.000033
362 0.000007
363 -0.000013
364 -0.000021
365 0.000039
366 0.000107
367 0.000162
368 0.000157
369 0.000139
370 0.000159
371 0.000210
372 0.000211
373 0.000261
374 0.000317
375 0.000397
376 0.000430
377 0.000415
378 0.000438
379 0.000503
380 0.000485
381 0.000451
382 0.000411
383 0.000425
384 0.000423
385 0.000438
386 0.000497
387 0.000507
388 0.000506
389 0.000526
390 0.000510
391 0.000557
392 0.000574
393 0.000585
394 0.000530
395 0.000514
396 0.000572
397 0.000543
398 0.000400
399 0.000358
400 0.000386
401 0.000441
402 0.000453
403 0.000462
404 0.000514
405 0.000517
406 0.000507
407 0.000584
408 0.000586
409 0.000578
410 0.000551
411 0.000521
412 0.000458
413 0.000406
414 0.000383
415 0.000389
416 0.000409
417 0.000481
418 0.000607
419 0.000699
420 0.000761
421 0.000858
422 0.000959
423 0.000976
424 0.001040
425 0.001034
426 0.001005
427 0.000931
428 0.000812
429 0.000742
430 0.000669
431 0.000598
432 0.000579
433 0.000569
434 0.000551
435 0.000571
436 0.000574
437 0.000492
438 0.000361
439 0.000341
440 0.000368
441 0.000356
442 0.000380
443 0.000409
444 0.000440
445 0.000406
446 0.000364
447 0.000327
448 0.000357
449 0.000389
450 0.000369
451 0.000332
452 0.000362
453 0.000433
454 0.000503
455 0.000588
456 0.000623
457 0.000635
458 0.000610
459 0.000650
460 0.000646
461 0.000622
462 0.000628
463 0.000572
464 0.000492
465 0.000408
466 0.000380
467 0.000378
468 0.000433
469 0.000482
470 0.000501
471 0.000492
472 0.000460
473 0.000518
474 0.000554
475 0.000539
476 0.000479
477 0.000433
478 0.000394
479 0.000417
480 0.000392
481 0.000403
482 0.000359
483 0.000323
484 0.000331
485 0.000328
486 0.000298
487 0.000267
488 0.000260
489 0.000273
490 0.000247
491 0.000257
492 0.000257
493 0.000277
494 0.000342
495 0.000409
496 0.000422
497 0.000430
498 0.000461
499 0.000576
500 0.000644
501 0.000713
502 0.000688
503 0.000687
504 0.000647
505 0.000643
506 0.000647
507 0.000642
508 0.000624
509 0.000614
510 0.000576
511 0.000555
512 0.000529
513 0.000534
514 0.000594
515 0.000584
516 0.000513
517 0.000418
518 0.000338
519 0.000285
520 0.000250
521 0.000258
522 0.000239
523 0.000180
524 0.000095
525 0.000039
526 0.000009
527 0.000000
528 -0.000018
529 0.000025
530 0.000026
531 0.000049
532 0.000104
533 0.000137
534 0.000185
535 0.000225
536 0.000198
537 0.000172
538 0.000156
539 0.000150
540 0.000155
541 0.000172
542 0.000165
543 0.000190
544 0.000199
545 0.000186
546 0.000124
547 0.000137
548 0.000171
549 0.000215
550 0.000234
551 0.000237
552 0.000201
553 0.000183
554 0.000183
555 0.000181
556 0.000189
557 0.000215
558 0.000240
559 0.000259
560 0.000294
561 0.000303
562 0.000293
563 0.000335
564 0.000319
565 0.000329
566 0.000266
567 0.000281
568 0.000270
569 0.000307
570 0.000310
571 0.000350
572 0.000353
573 0.000364
574 0.000336
575 0.000278
576 0.000245
577 0.000255
578 0.000269
579 0.000313
580 0.000395
581 0.000435
582 0.000452
583 0.000461
584 0.000427
585 0.000419
586 0.000382
587 0.000321
588 0.000238
589 0.000165
590 0.000091
591 0.000094
592 0.000045
593 0.000040
594 0.000040
595 0.000022
596 0.000022
597 0.000057
598 0.000074
599 0.000107
600 0.000135
601 0.000165
602 0.000211
603 0.000277
604 0.000336
605 0.000391
606 0.000431
607 0.000441
608 0.000441
609 0.000473
610 0.000443
611 0.000437
612 0.000473
613 0.000536
614 0.000567
615 0.000583
616 0.000561
617 0.000537
618 0.000516
619 0.000522
620 0.000530
621 0.000543
622 0.000554
623 0.000578
624 0.000572
625 0.000550
626 0.000534
627 0.000516
628 0.000501
629 0.000540
630 0.000576
631 0.000585
632 0.000612
633 0.000627
634 0.000587
635 0.000535
636 0.000500
637 0.000497
638 0.000450
639 0.000424
640 0.000381
641 0.000357
642 0.000317
643 0.000272
644 0.000222
645 0.000205
646 0.000161
647 0.000158
648 0.000174
649 0.000219
650 0.000270
651 0.000281
652 0.000245
653 0.000248
654 0.000242
655 0.000247
656 0.000244
657 0.000255
658 0.000237
659 0.000210
660 0.000150
661 0.000105
662 0.000073
663 0.000059
664 0.000093
665 0.000125
666 0.000053
667 -0.000029
668 -0.000093
669 -0.000149
670 -0.000174
671 -0.000125
672 -0.000058
673 0.000012
674 0.000009
675 0.000036
676 0.000022
677 0.000016
678 0.000042
679 0.000069
680 0.000050
681 0.000030
682 0.000039
683 0.000088
684 0.000109
685 0.000124
686 0.000145
687 0.000146
688 0.000110
689 0.000106
690 0.000104
691 0.000116
692 0.000143
693 0.000140
694 0.000114
695 0.000074
696 0.000029
697 0.000012
698 0.000020
699 0.000015
700 0.000018
701 0.000027
702 0.000019
703 0.000040
704 0.000018
705 0.000017
706 0.000018
707 0.000038
708 0.000009
709 -0.000018
710 -0.000041
711 -0.000057
712 -0.000069
713 -0.000062
714 -0.000044
715 -0.000051
716 -0.000073
717 -0.000031
718 -0.000016
719 0.000034
720 0.000095
721 0.000192
722 0.000215
723 0.000244
724 0.000255
725 0.000231
726 0.000169
727 0.000152
728 0.000111
729 0.000099
730 0.000068
731 0.000042
732 -0.000001
733 -0.000026
734 -0.000053
735 -0.000030
736 -0.000035
737 -0.000047
738 -0.000094
739 -0.000101
740 -0.000131
741 -0.000112
742 -0.000106
743 -0.000079
744 -0.000086
745 -0.000073
746 -0.000073
747 -0.000077
748 -0.000102
749 -0.000089
750 -0.000090
751 -0.000078
752 -0.000070
753 -0.000079
754 -0.000098
755 -0.000077
756 -0.000072
757 -0.000027
758 -0.000010
759 0.000013
760 0.000052
761 0.000108
762 0.000140
763 0.000178
764 0.000193
765 0.000199
766 0.000210
767 0.000206
768 0.000217
769 0.000206
770 0.000199
771 0.000213
772 0.000232
773 0.000233
774 0.000222
775 0.000205
776 0.000182
777 0.000170
778 0.000132
779 0.000086
780 0.000024
781 -0.000026
782 -0.000065
783 -0.000051
784 -0.000077
785 -0.000109
786 -0.000103
787 -0.000083
788 -0.000061
789 -0.000051
790 -0.000070
791 -0.000087
792 -0.000071
793 -0.000032
794 0.000007
795 0.000039
796 0.000059
797 0.000081
798 0.000107
799 0.000131
800 0.000136
801 0.000137
802 0.000103
803 0.000094
804 0.000062
805 0.000047
806 0.000030
807 0.000011
808 0.000002
809 -0.000001
