# i correlation
1 0.006188
2 0.005499
3 0.004952
4 0.004455
5 0.004089
6 0.003789
7 0.003482
8 0.003227
9 0.003001
10 0.002692
11 0.002422
12 0.002184
13 0.002029
14 0.001928
15 0.001842
16 0.001771
17 0.001733
18 0.001696
19 0.001684
20 0.001636
21 0.001570
22 0.001479
23 0.001401
24 0.001363
25 0.001442
26 0.001446
27 0.001526
28 0.001603
29 0.001670
30 0.001802
31 0.001891
32 0.001938
33 0.002000
34 0.002038
35 0.002080
36 0.002144
37 0.002153
38 0.002156
39 0.002120
40 0.002045
41 0.001917
42 0.001876
43 0.001728
44 0.001608
45 0.001448
46 0.001234
47 0.001015
48 0.000886
49 0.000787
50 0.000747
51 0.000731
52 0.000725
53 0.000729
54 0.000748
55 0.000699
56 0.000674
57 0.000703
58 0.000720
59 0.000824
60 0.000914
61 0.001032
62 0.001191
63 0.001282
64 0.001335
65 0.001364
66 0.001360
67 0.001342
68 0.001283
69 0.001273
70 0.001261
71 0.001281
72 0.001310
73 0.001290
74 0.001296
75 0.001201
76 0.001103
77 0.001038
78 0.001045
79 0.001011
80 0.001006
81 0.001004
82 0.000963
83 0.000877
84 0.000848
85 0.000745
86 0.000696
87 0.000781
88 0.000856
89 0.000910
90 0.000986
91 0.001069
92 0.001094
93 0.001064
94 0.000989
95 0.000926
96 0.000954
97 0.001015
98 0.001030
99 0.000989
100 0.000888
101 0.000828
102 0.000829
103 0.000811
104 0.000814
105 0.000836
106 0.000884
107 0.000950
108 0.001002
109 0.001016
110 0.000957
111 0.000890
112 0.000832
113 0.000752
114 0.000749
115 0.000772
116 0.000821
117 0.000890
118 0.000915
119 0.000917
120 0.000979
121 0.001002
122 0.001037
123 0.001071
124 0.001087
125 0.001103
126 0.001142
127 0.001187
128 0.001227
129 0.001269
130 0.001346
131 0.001327
132 0.001329
133 0.001367
134 0.001325
135 0.001327
136 0.001278
137 0.001183
138 0.001112
139 0.001112
140 0.001136
141 0.001255
142 0.001305
143 0.001250
144 0.001246
145 0.001217
146 0.001182
147 0.001101
148 0.001114
149 0.001125
150 0.001042
151 0.000971
152 0.000941
153 0.000827
154 0.000718
155 0.000692
156 0.000642
157 0.000585
158 0.000551
159 0.000505
160 0.000532
161 0.000620
162 0.000677
163 0.000703
164 0.000601
165 0.000575
166 0.000530
167 0.000457
168 0.000426
169 0.000456
170 0.000449
171 0.000483
172 0.000424
173 0.000282
174 0.000252
175 0.000175
176 0.000162
177 0.000195
178 0.000304
179 0.000435
180 0.000511
181 0.000552
182 0.000638
183 0.000756
184 0.000801
185 0.000832
186 0.000935
187 0.000945
188 0.000899
189 0.000812
190 0.000812
191 0.000821
192 0.000852
193 0.000900
194 0.000890
195 0.000863
196 0.000883
197 0.000899
198 0.000858
199 0.000870
200 0.000855
201 0.000860
202 0.000825
203 0.000716
204 0.000603
205 0.000482
206 0.000412
207 0.000321
208 0.000198
209 0.000118
210 0.000019
211 -0.000037
212 -0.000111
213 -0.000073
214 0.000001
215 0.000037
216 0.000072
217 0.000036
218 0.000004
219 -0.000040
220 -0.000098
221 -0.000077
222 0.000022
223 0.000087
224 0.000136
225 0.000123
226 0.000095
227 0.000064
228 0.000079
229 0.000131
230 0.000223
231 0.000325
232 0.000478
233 0.000579
234 0.000593
235 0.000578
236 0.000613
237 0.000628
238 0.000581
239 0.000578
240 0.000560
241 0.000518
242 0.000441
243 0.000344
244 0.000149
245 -0.000012
246 -0.000105
247 -0.000288
248 -0.000441
249 -0.000453
250 -0.000468
251 -0.000452
252 -0.000444
253 -0.000417
254 -0.000420
255 -0.000375
256 -0.000328
257 -0.000251
258 -0.000183
259 -0.000124
260 -0.000108
261 -0.000061
262 -0.000004
263 -0.000016
264 -0.000045
265 -0.000090
266 -0.000103
267 -0.000074
268 -0.000008
269 0.000049
270 0.000201
271 0.000334
272 0.000462
273 0.000560
274 0.000643
275 0.000723
276 0.000782
277 0.000784
278 0.000691
279 0.000535
280 0.000420
281 0.000347
282 0.000215
283 0.000105
284 -0.000049
285 -0.000186
286 -0.000338
287 -0.000402
288 -0.000467
289 -0.000507
290 -0.000493
291 -0.000486
292 -0.000492
293 -0.000498
294 -0.000479
295 -0.000411
296 -0.000372
297 -0.000371
298 -0.000352
299 -0.000349
300 -0.000338
301 -0.000304
302 -0.000285
303 -0.000237
304 -0.000146
305 -0.000083
306 0.000030
307 0.000087
308 0.000072
309 0.000006
310 -0.000038
311 -0.000068
312 -0.000083
313 -0.000096
314 -0.000041
315 -0.000019
316 -0.000092
317 -0.000217
318 -0.000307
319 -0.000400
320 -0.000441
321 -0.000510
322 -0.000617
323 -0.000590
324 -0.000557
325 -0.000550
326 -0.000563
327 -0.000553
328 -0.000578
329 -0.000608
330 -0.000668
331 -0.000641
332 -0.000572
333 -0.000608
334 -0.000571
335 -0.000508
336 -0.000461
337 -0.000363
338 -0.000340
339 -0.000272
340 -0.000268
341 -0.000261
342 -0.000227
343 -0.000197
344 -0.000190
345 -0.000163
346 -0.000188
347 -0.000205
348 -0.000197
349 -0.000149
350 -0.000134
351 -0.000186
352 -0.000275
353 -0.000362
354 -0.000431
355 -0.000484
356 -0.000501
357 -0.000532
358 -0.000576
359 -0.000607
360 -0.000685
361 -0.000762
362 -0.000728
363 -0.000659
364 -0.000625
365 -0.000521
366 -0.000449
367 -0.000366
368 -0.000257
369 -0.000117
370 -0.000021
371 -0.000013
372 -0.000024
373 -0.000034
374 -0.000037
375 -0.000037
376 -0.000040
377 -0.000014
378 0.000031
379 0.000132
380 0.000157
381 0.000182
382 0.000170
383 0.000089
384 0.000091
385 0.000142
386 0.000169
387 0.000207
388 0.000254
389 0.000224
390 0.000182
391 0.000119
392 0.000076
393 0.000041
394 -0.000001
395 -0.000027
396 -0.000078
397 -0.000089
398 -0.000021
399 0.000002
400 -0.000039
401 0.000049
402 0.000114
403 0.000200
404 0.000272
405 0.000294
406 0.000302
407 0.000332
408 0.000351
409 0.000329
410 0.000277
411 0.000308
412 0.000337
413 0.000347
414 0.000292
415 0.000312
416 0.000363
417 0.000460
418 0.000530
419 0.000551
420 0.000578
421 0.000565
422 0.000551
423 0.000604
424 0.000648
425 0.000684
426 0.000639
427 0.000606
428 0.000570
429 0.000567
430 0.000523
431 0.000487
432 0.000460
433 0.000496
434 0.000491
435 0.000394
436 0.000362
437 0.000331
438 0.000300
439 0.000272
440 0.000272
441 0.000300
442 0.000290
443 0.000295
444 0.000238
445 0.000141
446 0.000067
447 0.000024
448 0.000016
449 -0.000013
450 -0.000087
451 -0.000183
452 -0.000258
453 -0.000316
454 -0.000386
455 -0.000431
456 -0.000481
457 -0.000482
458 -0.000453
459 -0.000393
460 -0.000360
461 -0.000327
462 -0.000291
463 -0.000285
464 -0.000296
465 -0.000295
466 -0.000305
467 -0.000216
468 -0.000115
469 -0.000037
470 0.000029
471 0.000059
472 0.000045
473 0.000119
474 0.000133
475 0.000129
476 0.000133
477 0.000158
478 0.000146
479 0.000139
480 0.000136
481 0.000086
482 0.000015
483 -0.000051
484 -0.000123
485 -0.000153
486 -0.000163
487 -0.000139
488 -0.000144
489 -0.000124
490 -0.000044
491 -0.000019
492 0.000049
493 0.000055
494 0.000065
495 0.000101
496 0.000125
497 0.000126
498 0.000151
499 0.000155
500 0.000160
501 0.000192
502 0.000191
503 0.000206
504 0.000215
505 0.000279
506 0.000327
507 0.000359
508 0.000416
509 0.000400
510 0.000440
511 0.000486
512 0.000470
513 0.000437
514 0.000458
515 0.000457
516 0.000383
517 0.000321
518 0.000242
519 0.000183
520 0.000133
521 0.000083
522 0.000018
523 0.000002
524 -0.000060
525 -0.000048
526 -0.000087
527 -0.000106
528 -0.000121
529 -0.000115
530 -0.000065
531 -0.000016
532 0.000065
533 0.000124
534 0.000199
535 0.000210
536 0.000269
537 0.000310
538 0.000388
539 0.000483
540 0.000561
541 0.000596
542 0.000640
543 0.000673
544 0.000643
545 0.000613
546 0.000590
547 0.000631
548 0.000678
549 0.000709
550 0.000748
551 0.000752
552 0.000705
553 0.000715
554 0.000660
555 0.000640
556 0.000648
557 0.000667
558 0.000685
559 0.000700
560 0.000718
561 0.000743
562 0.000691
563 0.000633
564 0.000659
565 0.000720
566 0.000789
567 0.000837
568 0.000884
569 0.000933
570 0.000961
571 0.000971
572 0.000983
573 0.000990
574 0.000988
575 0.000937
576 0.000922
577 0.000922
578 0.000967
579 0.000977
580 0.000994
581 0.001005
582 0.001036
583 0.001013
584 0.000974
585 0.000972
586 0.000956
587 0.000928
588 0.000920
589 0.000910
590 0.000859
591 0.000809
592 0.000743
593 0.000641
594 0.000581
595 0.000546
596 0.000483
597 0.000439
598 0.000408
599 0.000426
600 0.000410
601 0.000465
602 0.000503
603 0.000537
604 0.000605
605 0.000660
606 0.000675
607 0.000713
608 0.000732
609 0.000788
610 0.000920
611 0.000991
612 0.001093
613 0.001116
614 0.001107
615 0.001079
616 0.001019
617 0.000964
618 0.000969
619 0.001014
620 0.001101
621 0.001142
622 0.001201
623 0.001186
624 0.001138
625 0.001092
626 0.001070
627 0.001058
628 0.001006
629 0.000962
630 0.000925
631 0.000919
632 0.000861
633 0.000777
634 0.000696
635 0.000591
636 0.000470
637 0.000399
638 0.000348
639 0.000367
640 0.000451
641 0.000513
642 0.000562
643 0.000579
644 0.000567
645 0.000574
646 0.000585
647 0.000675
648 0.000729
649 0.000755
650 0.000786
651 0.000805
652 0.000801
653 0.000759
654 0.000742
655 0.000735
656 0.000755
657 0.000776
658 0.000755
659 0.000732
660 0.000679
661 0.000621
662 0.000581
663 0.000560
664 0.000558
665 0.000540
666 0.000547
667 0.000499
668 0.000421
669 0.000355
670 0.000282
671 0.000265
672 0.000244
673 0.000301
674 0.000378
675 0.000450
676 0.000523
677 0.000578
678 0.000566
679 0.000559
680 0.000579
681 0.000600
682 0.000652
683 0.000702
684 0.000773
685 0.000819
686 0.000892
687 0.000881
688 0.000898
689 0.000911
690 0.000862
691 0.000829
692 0.000797
693 0.000793
694 0.000811
695 0.000790
696 0.000735
697 0.000669
698 0.000596
699 0.000551
700 0.000502
701 0.000494
702 0.000507
703 0.000524
704 0.000549
705 0.000574
706 0.000565
707 0.000583
708 0.000571
709 0.000580
710 0.000610
711 0.000650
712 0.000660
713 0.000696
714 0.000698
715 0.000666
716 0.000672
717 0.000653
718 0.000656
719 0.000714
720 0.000736
721 0.000747
722 0.000739
723 0.000655
724 0.000635
725 0.000558
726 0.000503
727 0.000445
728 0.000387
729 0.000373
730 0.000356
731 0.000319
732 0.000266
733 0.000187
734 0.000111
735 0.000057
736 0.000011
737 -0.000048
738 -0.000057
739 -0.000043
740 0.000001
741 0.000023
742 0.000022
743 0.000083
744 0.000146
745 0.000195
746 0.000208
747 0.000269
748 0.000325
749 0.000400
750 0.000446
751 0.000467
752 0.000449
753 0.000431
754 0.000440
755 0.000426
756 0.000413
757 0.000422
758 0.000391
759 0.000347
760 0.000333
761 0.000305
762 0.000296
763 0.000273
764 0.000280
765 0.000267
766 0.000271
767 0.000253
768 0.000270
769 0.000269
770 0.000259
771 0.000260
772 0.000266
773 0.000287
774 0.000304
775 0.000333
776 0.000340
777 0.000321
778 0.000311
779 0.000298
780 0.000276
781 0.000275
782 0.000294
783 0.000344
784 0.000363
785 0.000391
786 0.000407
787 0.000399
788 0.000384
789 0.000371
790 0.000353
791 0.000353
792 0.000337
793 0.000337
794 0.000323
795 0.000275
796 0.000247
797 0.000214
798 0.000182
799 0.000148
800 0.000131
801 0.000119
802 0.000112
803 0.000125
804 0.000166
805 0.000195
806 0.000255
807 0.000289
808 0.000334
809 0.000350
