# i correlation
1 0.005453
2 0.004847
3 0.004425
4 0.004032
5 0.003653
6 0.003316
7 0.003013
8 0.002725
9 0.002492
10 0.002285
11 0.002171
12 0.002015
13 0.001795
14 0.001657
15 0.001551
16 0.001465
17 0.001449
18 0.001428
19 0.001445
20 0.001440
21 0.001433
22 0.001332
23 0.001358
24 0.001433
25 0.001530
26 0.001658
27 0.001740
28 0.001741
29 0.001745
30 0.001860
31 0.001940
32 0.002002
33 0.002012
34 0.002046
35 0.002087
36 0.002107
37 0.002167
38 0.002202
39 0.002237
40 0.002212
41 0.002201
42 0.002192
43 0.002204
44 0.002263
45 0.002277
46 0.002257
47 0.002203
48 0.002150
49 0.002106
50 0.002087
51 0.002072
52 0.001964
53 0.001873
54 0.001771
55 0.001621
56 0.001518
57 0.001419
58 0.001252
59 0.001154
60 0.001079
61 0.000973
62 0.000932
63 0.000968
64 0.001032
65 0.001106
66 0.001150
67 0.001209
68 0.001230
69 0.001181
70 0.001233
71 0.001311
72 0.001387
73 0.001445
74 0.001481
75 0.001542
76 0.001594
77 0.001546
78 0.001494
79 0.001446
80 0.001398
81 0.001375
82 0.001439
83 0.001454
84 0.001451
85 0.001396
86 0.001373
87 0.001413
88 0.001396
89 0.001379
90 0.001361
91 0.001375
92 0.001354
93 0.001370
94 0.001391
95 0.001325
96 0.001290
97 0.001275
98 0.001321
99 0.001379
100 0.001446
101 0.001449
102 0.001448
103 0.001443
104 0.001410
105 0.001331
106 0.001260
107 0.001152
108 0.001118
109 0.001081
110 0.000996
111 0.000927
112 0.000859
113 0.000752
114 0.000659
115 0.000629
116 0.000560
117 0.000595
118 0.000617
119 0.000654
120 0.000687
121 0.000772
122 0.000763
123 0.000777
124 0.000785
125 0.000797
126 0.000845
127 0.000940
128 0.000978
129 0.001056
130 0.001085
131 0.001126
132 0.001260
133 0.001338
134 0.001295
135 0.001279
136 0.001230
137 0.001130
138 0.001137
139 0.001068
140 0.000996
141 0.000913
142 0.000880
143 0.000884
144 0.000893
145 0.000891
146 0.000790
147 0.000713
148 0.000649
149 0.000610
150 0.000628
151 0.000547
152 0.000481
153 0.000486
154 0.000470
155 0.000424
156 0.000448
157 0.000460
158 0.000460
159 0.000465
160 0.000503
161 0.000501
162 0.000512
163 0.000465
164 0.000484
165 0.000502
166 0.000505
167 0.000528
168 0.000566
169 0.000621
170 0.000636
171 0.000667
172 0.000735
173 0.000785
174 0.000830
175 0.000876
176 0.000911
177 0.000928
178 0.000867
179 0.000791
180 0.000745
181 0.000737
182 0.000755
183 0.000764
184 0.000716
185 0.000664
186 0.000647
187 0.000648
188 0.000654
189 0.000645
190 0.000626
191 0.000632
192 0.000648
193 0.000651
194 0.000670
195 0.000665
196 0.000609
197 0.000611
198 0.000601
199 0.000637
200 0.000595
201 0.000523
202 0.000502
203 0.000435
204 0.000354
205 0.000275
206 0.000214
207 0.000215
208 0.000255
209 0.000242
210 0.000314
211 0.000337
212 0.000341
213 0.000358
214 0.000418
215 0.000467
216 0.000466
217 0.000495
218 0.000563
219 0.000633
220 0.000718
221 0.000795
222 0.000825
223 0.000806
224 0.000819
225 0.000835
226 0.000920
227 0.000935
228 0.000856
229 0.000788
230 0.000662
231 0.000575
232 0.000570
233 0.000518
234 0.000428
235 0.000324
236 0.000350
237 0.000322
238 0.000315
239 0.000294
240 0.000284
241 0.000310
242 0.000375
243 0.000435
244 0.000503
245 0.000555
246 0.000557
247 0.000619
248 0.000623
249 0.000538
250 0.000469
251 0.000363
252 0.000278
253 0.000211
254 0.000114
255 -0.000026
256 -0.000043
257 0.000004
258 0.000048
259 0.000147
260 0.000184
261 0.000271
262 0.000369
263 0.000494
264 0.000627
265 0.000681
266 0.000740
267 0.000804
268 0.000825
269 0.000777
270 0.000787
271 0.000830
272 0.000796
273 0.000780
274 0.000730
275 0.000712
276 0.000654
277 0.000610
278 0.000570
279 0.000542
280 0.000534
281 0.000484
282 0.000451
283 0.000451
284 0.000399
285 0.000362
286 0.000365
287 0.000387
288 0.000404
289 0.000421
290 0.000397
291 0.000402
292 0.000414
293 0.000376
294 0.000380
295 0.000330
296 0.000305
297 0.000296
298 0.000314
299 0.000332
300 0.000366
301 0.000418
302 0.000458
303 0.000504
304 0.000491
305 0.000444
306 0.000391
307 0.000346
308 0.000360
309 0.000344
310 0.000314
311 0.000304
312 0.000338
313 0.000329
314 0.000351
315 0.000408
316 0.000434
317 0.000420
318 0.000427
319 0.000432
320 0.000474
321 0.000420
322 0.000299
323 0.000166
324 0.000109
325 0.000017
326 -0.000019
327 -0.000004
328 -0.000057
329 -0.000090
330 -0.000107
331 -0.000139
332 -0.000144
333 -0.000168
334 -0.000173
335 -0.000154
336 -0.000176
337 -0.000191
338 -0.000155
339 -0.000124
340 -0.000154
341 -0.000169
342 -0.000151
343 -0.000111
344 -0.000088
345 -0.000075
346 -0.000071
347 -0.000013
348 -0.000043
349 -0.000105
350 -0.000108
351 -0.000081
352 -0.000096
353 -0.000010
354 0.000032
355 0.000066
356 0.000065
357 0.000056
358 0.000016
359 0.000021
360 0.000016
361 -0.000023
362 -0.000040
363 -0.000098
364 -0.000059
365 -0.000007
366 0.000004
367 -0.000053
368 -0.000101
369 -0.000105
370 -0.000097
371 -0.000042
372 -0.000036
373 -0.000051
374 -0.000038
375 -0.000030
376 -0.000023
377 -0.000022
378 -0.000055
379 -0.000072
380 -0.000049
381 0.000003
382 0.000013
383 0.000020
384 0.000019
385 0.000035
386 0.000047
387 0.000016
388 -0.000005
389 -0.000085
390 -0.000087
391 -0.000006
392 0.000111
393 0.000138
394 0.000157
395 0.000180
396 0.000192
397 0.000150
398 0.000082
399 -0.000035
400 -0.000124
401 -0.000139
402 -0.000131
403 -0.000124
404 -0.000128
405 -0.000169
406 -0.000226
407 -0.000257
408 -0.000326
409 -0.000328
410 -0.000330
411 -0.000314
412 -0.000328
413 -0.000361
414 -0.000385
415 -0.000381
416 -0.000383
417 -0.000446
418 -0.000479
419 -0.000503
420 -0.000491
421 -0.000431
422 -0.000435
423 -0.000459
424 -0.000432
425 -0.000435
426 -0.000385
427 -0.000402
428 -0.000405
429 -0.000407
430 -0.000381
431 -0.000371
432 -0.000349
433 -0.000337
434 -0.000351
435 -0.000292
436 -0.000234
437 -0.000189
438 -0.000159
439 -0.000168
440 -0.000165
441 -0.000075
442 -0.000034
443 -0.000054
444 -0.000056
445 -0.000084
446 -0.000108
447 -0.000058
448 -0.000065
449 -0.000141
450 -0.000237
451 -0.000346
452 -0.000431
453 -0.000454
454 -0.000545
455 -0.000597
456 -0.000594
457 -0.000639
458 -0.000657
459 -0.000676
460 -0.000616
461 -0.000596
462 -0.000551
463 -0.000531
464 -0.000505
465 -0.000489
466 -0.000499
467 -0.000497
468 -0.000463
469 -0.000456
470 -0.000480
471 -0.000483
472 -0.000456
473 -0.000492
474 -0.000453
475 -0.000420
476 -0.000439
477 -0.000457
478 -0.000481
479 -0.000503
480 -0.000534
481 -0.000545
482 -0.000570
483 -0.000576
484 -0.000615
485 -0.000601
486 -0.000542
487 -0.000491
488 -0.000403
489 -0.000339
490 -0.000318
491 -0.000297
492 -0.000261
493 -0.000215
494 -0.000188
495 -0.000166
496 -0.000144
497 -0.000163
498 -0.000201
499 -0.000263
500 -0.000305
501 -0.000363
502 -0.000413
503 -0.000469
504 -0.000491
505 -0.000544
506 -0.000562
507 -0.000534
508 -0.000551
509 -0.000526
510 -0.000516
511 -0.000517
512 -0.000538
513 -0.000506
514 -0.000474
515 -0.000404
516 -0.000414
517 -0.000466
518 -0.000516
519 -0.000540
520 -0.000540
521 -0.000585
522 -0.000625
523 -0.000650
524 -0.000641
525 -0.000607
526 -0.000577
527 -0.000496
528 -0.000386
529 -0.000328
530 -0.000264
531 -0.000250
532 -0.000237
533 -0.000278
534 -0.000254
535 -0.000258
536 -0.000241
537 -0.000197
538 -0.000196
539 -0.000198
540 -0.000195
541 -0.000195
542 -0.000222
543 -0.000260
544 -0.000295
545 -0.000290
546 -0.000281
547 -0.000274
548 -0.000272
549 -0.000331
550 -0.000426
551 -0.000518
552 -0.000571
553 -0.000576
554 -0.000601
555 -0.000636
556 -0.000671
557 -0.000731
558 -0.000784
559 -0.000797
560 -0.000807
561 -0.000767
562 -0.000715
563 -0.000630
564 -0.000520
565 -0.000441
566 -0.000363
567 -0.000318
568 -0.000309
569 -0.000288
570 -0.000285
571 -0.000268
572 -0.000245
573 -0.000216
574 -0.000162
575 -0.000112
576 -0.000059
577 -0.000065
578 -0.000089
579 -0.000073
580 -0.000013
581 -0.000028
582 -0.000089
583 -0.000118
584 -0.000156
585 -0.000202
586 -0.000236
587 -0.000273
588 -0.000309
589 -0.000378
590 -0.000437
591 -0.000439
592 -0.000433
593 -0.000419
594 -0.000447
595 -0.000446
596 -0.000456
597 -0.000435
598 -0.000423
599 -0.000464
600 -0.000429
601 -0.000424
602 -0.000436
603 -0.000367
604 -0.000323
605 -0.000264
606 -0.000204
607 -0.000154
608 -0.000162
609 -0.000165
610 -0.000145
611 -0.000156
612 -0.000156
613 -0.000128
614 -0.000102
615 -0.000139
616 -0.000168
617 -0.000181
618 -0.000151
619 -0.000113
620 -0.000094
621 -0.000046
622 -0.000033
623 -0.000022
624 0.000025
625 0.000016
626 -0.000036
627 -0.000052
628 0.000003
629 0.000034
630 0.000059
631 0.000071
632 0.000089
633 0.000075
634 0.000067
635 0.000041
636 0.000001
637 -0.000060
638 -0.000104
639 -0.000109
640 -0.000083
641 -0.000104
642 -0.000170
643 -0.000232
644 -0.000316
645 -0.000375
646 -0.000451
647 -0.000493
648 -0.000495
649 -0.000515
650 -0.000547
651 -0.000542
652 -0.000561
653 -0.000579
654 -0.000561
655 -0.000524
656 -0.000529
657 -0.000535
658 -0.000504
659 -0.000456
660 -0.000402
661 -0.000396
662 -0.000382
663 -0.000316
664 -0.000267
665 -0.000208
666 -0.000159
667 -0.000116
668 -0.000070
669 -0.000060
670 -0.000045
671 -0.000012
672 0.000004
673 0.000020
674 0.000055
675 0.000097
676 0.000111
677 0.000074
678 0.000013
679 -0.000032
680 -0.000085
681 -0.000166
682 -0.000230
683 -0.000287
684 -0.000325
685 -0.000358
686 -0.000441
687 -0.000500
688 -0.000544
689 -0.000588
690 -0.000669
691 -0.000726
692 -0.000762
693 -0.000829
694 -0.000864
695 -0.000890
696 -0.000879
697 -0.000877
698 -0.000879
699 -0.000857
700 -0.000822
701 -0.000754
702 -0.000679
703 -0.000615
704 -0.000562
705 -0.000494
706 -0.000404
707 -0.000326
708 -0.000256
709 -0.000219
710 -0.000213
711 -0.000204
712 -0.000167
713 -0.000143
714 -0.000127
715 -0.000124
716 -0.000152
717 -0.000204
718 -0.000273
719 -0.000322
720 -0.000396
721 -0.000497
722 -0.000548
723 -0.000611
724 -0.000698
725 -0.000786
726 -0.000839
727 -0.000886
728 -0.000937
729 -0.000961
730 -0.000935
731 -0.000947
732 -0.000960
733 -0.000943
734 -0.000953
735 -0.000957
736 -0.000934
737 -0.000938
738 -0.000900
739 -0.000837
740 -0.000777
741 -0.000722
742 -0.000677
743 -0.000629
744 -0.000629
745 -0.000641
746 -0.000672
747 -0.000654
748 -0.000620
749 -0.000599
750 -0.000565
751 -0.000525
752 -0.000488
753 -0.000447
754 -0.000405
755 -0.000370
756 -0.000335
757 -0.000302
758 -0.000318
759 -0.000315
760 -0.000324
761 -0.000329
762 -0.000334
763 -0.000338
764 -0.000337
765 -0.000376
766 -0.000401
767 -0.000404
768 -0.000427
769 -0.000456
770 -0.000518
771 -0.000554
772 -0.000605
773 -0.000637
774 -0.000658
775 -0.000660
776 -0.000669
777 -0.000675
778 -0.000678
779 -0.000698
780 -0.000702
781 -0.000723
782 -0.000756
783 -0.000789
784 -0.000810
785 -0.000809
786 -0.000778
787 -0.000737
788 -0.000719
789 -0.000700
790 -0.000675
791 -0.000640
792 -0.000621
793 -0.000635
794 -0.000631
795 -0.000597
796 -0.000563
797 -0.000541
798 -0.000511
799 -0.000498
800 -0.000488
801 -0.000463
802 -0.000445
803 -0.000420
804 -0.000411
805 -0.000391
806 -0.000356
807 -0.000296
808 -0.000252
809 -0.000236
