# i correlation
1 0.005720
2 0.004917
3 0.004167
4 0.003570
5 0.003130
6 0.002840
7 0.002637
8 0.002430
9 0.002199
10 0.001967
11 0.001809
12 0.001756
13 0.001655
14 0.001579
15 0.001471
16 0.001368
17 0.001347
18 0.001342
19 0.001353
20 0.001435
21 0.001501
22 0.001547
23 0.001493
24 0.001526
25 0.001486
26 0.001533
27 0.001613
28 0.001647
29 0.001685
30 0.001677
31 0.001586
32 0.001459
33 0.001410
34 0.001416
35 0.001423
36 0.001399
37 0.001293
38 0.001277
39 0.001225
40 0.001188
41 0.001084
42 0.000954
43 0.000773
44 0.000647
45 0.000554
46 0.000589
47 0.000714
48 0.000855
49 0.000954
50 0.001075
51 0.001179
52 0.001324
53 0.001339
54 0.001324
55 0.001321
56 0.001298
57 0.001422
58 0.001631
59 0.001771
60 0.001791
61 0.001740
62 0.001620
63 0.001446
64 0.001278
65 0.001239
66 0.001201
67 0.001133
68 0.001069
69 0.001006
70 0.000977
71 0.000925
72 0.000886
73 0.000857
74 0.000819
75 0.000885
76 0.000942
77 0.000895
78 0.000825
79 0.000758
80 0.000804
81 0.000879
82 0.000901
83 0.000914
84 0.000917
85 0.000930
86 0.000940
87 0.001001
88 0.000996
89 0.001005
90 0.001037
91 0.000942
92 0.000872
93 0.000844
94 0.000824
95 0.000764
96 0.000687
97 0.000676
98 0.000665
99 0.000666
100 0.000658
101 0.000694
102 0.000758
103 0.000792
104 0.000835
105 0.000928
106 0.000978
107 0.000956
108 0.000918
109 0.000915
110 0.000944
111 0.000976
112 0.000981
113 0.001036
114 0.001042
115 0.001038
116 0.001109
117 0.001169
118 0.001264
119 0.001322
120 0.001413
121 0.001485
122 0.001529
123 0.001649
124 0.001661
125 0.001602
126 0.001489
127 0.001431
128 0.001475
129 0.001549
130 0.001655
131 0.001735
132 0.001772
133 0.001777
134 0.001789
135 0.001873
136 0.001749
137 0.001663
138 0.001571
139 0.001516
140 0.001457
141 0.001453
142 0.001463
143 0.001486
144 0.001494
145 0.001513
146 0.001529
147 0.001620
148 0.001628
149 0.001582
150 0.001567
151 0.001571
152 0.001557
153 0.001555
154 0.001513
155 0.001481
156 0.001436
157 0.001496
158 0.001580
159 0.001679
160 0.001769
161 0.001794
162 0.001777
163 0.001694
164 0.001617
165 0.001653
166 0.001583
167 0.001515
168 0.001536
169 0.001499
170 0.001496
171 0.001535
172 0.001490
173 0.001401
174 0.001318
175 0.001248
176 0.001146
177 0.001019
178 0.000980
179 0.000949
180 0.000958
181 0.000995
182 0.001122
183 0.001175
184 0.001121
185 0.001152
186 0.001134
187 0.001155
188 0.001220
189 0.001283
190 0.001262
191 0.001220
192 0.001163
193 0.001062
194 0.001056
195 0.001015
196 0.000996
197 0.000932
198 0.000871
199 0.000842
200 0.000917
201 0.000934
202 0.001007
203 0.001047
204 0.001055
205 0.000990
206 0.000948
207 0.000902
208 0.000790
209 0.000731
210 0.000740
211 0.000772
212 0.000792
213 0.000752
214 0.000653
215 0.000603
216 0.000564
217 0.000531
218 0.000650
219 0.000734
220 0.000829
221 0.000820
222 0.000850
223 0.000843
224 0.000837
225 0.000783
226 0.000749
227 0.000774
228 0.000801
229 0.000780
230 0.000775
231 0.000746
232 0.000695
233 0.000714
234 0.000780
235 0.000820
236 0.000902
237 0.001035
238 0.001101
239 0.001049
240 0.001122
241 0.001140
242 0.001122
243 0.001040
244 0.000962
245 0.000912
246 0.000956
247 0.000990
248 0.001001
249 0.001011
250 0.000957
251 0.000968
252 0.001029
253 0.001088
254 0.001141
255 0.001155
256 0.001093
257 0.000996
258 0.000878
259 0.000807
260 0.000836
261 0.000889
262 0.000996
263 0.001022
264 0.001076
265 0.001084
266 0.001033
267 0.000953
268 0.000929
269 0.000887
270 0.000909
271 0.000843
272 0.000770
273 0.000706
274 0.000673
275 0.000681
276 0.000782
277 0.000905
278 0.001038
279 0.001074
280 0.001119
281 0.001181
282 0.001236
283 0.001224
284 0.001239
285 0.001241
286 0.001263
287 0.001262
288 0.001330
289 0.001431
290 0.001508
291 0.001500
292 0.001502
293 0.001430
294 0.001375
295 0.001395
296 0.001416
297 0.001369
298 0.001307
299 0.001199
300 0.001110
301 0.001022
302 0.000891
303 0.000797
304 0.000756
305 0.000789
306 0.000841
307 0.000865
308 0.000933
309 0.000954
310 0.000976
311 0.000922
312 0.000953
313 0.000986
314 0.001040
315 0.001068
316 0.001036
317 0.001035
318 0.001020
319 0.000934
320 0.000958
321 0.000974
322 0.001047
323 0.001088
324 0.000981
325 0.000876
326 0.000694
327 0.000588
328 0.000503
329 0.000435
330 0.000406
331 0.000333
332 0.000245
333 0.000138
334 0.000075
335 0.000102
336 0.000176
337 0.000219
338 0.000228
339 0.000294
340 0.000314
341 0.000338
342 0.000374
343 0.000440
344 0.000523
345 0.000520
346 0.000505
347 0.000550
348 0.000543
349 0.000528
350 0.000555
351 0.000582
352 0.000575
353 0.000580
354 0.000568
355 0.000511
356 0.000469
357 0.000492
358 0.000466
359 0.000431
360 0.000367
361 0.000361
362 0.000389
363 0.000391
364 0.000352
365 0.000356
366 0.000371
367 0.000350
368 0.000385
369 0.000456
370 0.000584
371 0.000736
372 0.000814
373 0.000855
374 0.000840
375 0.000862
376 0.000809
377 0.000778
378 0.000664
379 0.000534
380 0.000367
381 0.000262
382 0.000246
383 0.000284
384 0.000278
385 0.000229
386 0.000164
387 0.000150
388 0.000235
389 0.000308
390 0.000435
391 0.000570
392 0.000647
393 0.000745
394 0.000853
395 0.000948
396 0.001042
397 0.001067
398 0.001102
399 0.001139
400 0.001112
401 0.001103
402 0.001086
403 0.001061
404 0.000971
405 0.000936
406 0.000910
407 0.000894
408 0.000882
409 0.000928
410 0.000986
411 0.001012
412 0.001071
413 0.001074
414 0.001004
415 0.000890
416 0.000773
417 0.000660
418 0.000562
419 0.000497
420 0.000482
421 0.000490
422 0.000563
423 0.000663
424 0.000757
425 0.000862
426 0.000904
427 0.000954
428 0.000979
429 0.001053
430 0.001127
431 0.001194
432 0.001201
433 0.001191
434 0.001182
435 0.001129
436 0.001105
437 0.001113
438 0.001085
439 0.000997
440 0.000900
441 0.000776
442 0.000690
443 0.000671
444 0.000626
445 0.000605
446 0.000600
447 0.000612
448 0.000665
449 0.000788
450 0.000914
451 0.000983
452 0.001032
453 0.001042
454 0.000972
455 0.000876
456 0.000793
457 0.000759
458 0.000849
459 0.000919
460 0.001032
461 0.001012
462 0.000906
463 0.000809
464 0.000759
465 0.000683
466 0.000602
467 0.000546
468 0.000479
469 0.000434
470 0.000375
471 0.000382
472 0.000426
473 0.000424
474 0.000394
475 0.000344
476 0.000258
477 0.000205
478 0.000178
479 0.000181
480 0.000244
481 0.000306
482 0.000336
483 0.000364
484 0.000408
485 0.000428
486 0.000433
487 0.000435
488 0.000474
489 0.000481
490 0.000451
491 0.000372
492 0.000310
493 0.000279
494 0.000208
495 0.000115
496 0.000071
497 0.000025
498 0.000037
499 0.000011
500 0.000058
501 0.000096
502 0.000151
503 0.000173
504 0.000166
505 0.000180
506 0.000196
507 0.000248
508 0.000347
509 0.000381
510 0.000453
511 0.000501
512 0.000585
513 0.000569
514 0.000563
515 0.000545
516 0.000507
517 0.000496
518 0.000522
519 0.000542
520 0.000523
521 0.000467
522 0.000416
523 0.000371
524 0.000335
525 0.000315
526 0.000289
527 0.000235
528 0.000194
529 0.000173
530 0.000216
531 0.000235
532 0.000263
533 0.000308
534 0.000325
535 0.000332
536 0.000342
537 0.000284
538 0.000237
539 0.000185
540 0.000170
541 0.000182
542 0.000253
543 0.000283
544 0.000304
545 0.000319
546 0.000286
547 0.000263
548 0.000244
549 0.000186
550 0.000137
551 0.000076
552 0.000025
553 -0.000012
554 0.000010
555 0.000027
556 0.000054
557 0.000051
558 0.000077
559 0.000129
560 0.000213
561 0.000288
562 0.000363
563 0.000396
564 0.000409
565 0.000381
566 0.000370
567 0.000345
568 0.000329
569 0.000362
570 0.000367
571 0.000369
572 0.000391
573 0.000425
574 0.000465
575 0.000472
576 0.000475
577 0.000499
578 0.000540
579 0.000534
580 0.000495
581 0.000513
582 0.000500
583 0.000500
584 0.000518
585 0.000547
586 0.000454
587 0.000349
588 0.000258
589 0.000169
590 0.000189
591 0.000225
592 0.000273
593 0.000301
594 0.000322
595 0.000371
596 0.000390
597 0.000402
598 0.000426
599 0.000443
600 0.000454
601 0.000469
602 0.000485
603 0.000466
604 0.000446
605 0.000450
606 0.000459
607 0.000490
608 0.000515
609 0.000506
610 0.000438
611 0.000409
612 0.000413
613 0.000374
614 0.000365
615 0.000336
616 0.000294
617 0.000247
618 0.000218
619 0.000259
620 0.000300
621 0.000362
622 0.000350
623 0.000346
624 0.000277
625 0.000224
626 0.000209
627 0.000172
628 0.000184
629 0.000193
630 0.000215
631 0.000272
632 0.000340
633 0.000388
634 0.000407
635 0.000399
636 0.000420
637 0.000430
638 0.000422
639 0.000424
640 0.000445
641 0.000448
642 0.000407
643 0.000407
644 0.000362
645 0.000351
646 0.000321
647 0.000268
648 0.000190
649 0.000150
650 0.000131
651 0.000111
652 0.000100
653 0.000129
654 0.000154
655 0.000124
656 0.000086
657 0.000021
658 0.000003
659 0.000028
660 0.000079
661 0.000137
662 0.000159
663 0.000174
664 0.000137
665 0.000130
666 0.000165
667 0.000272
668 0.000355
669 0.000415
670 0.000425
671 0.000447
672 0.000490
673 0.000510
674 0.000545
675 0.000569
676 0.000557
677 0.000510
678 0.000464
679 0.000475
680 0.000561
681 0.000590
682 0.000583
683 0.000576
684 0.000587
685 0.000584
686 0.000570
687 0.000567
688 0.000571
689 0.000563
690 0.000527
691 0.000516
692 0.000509
693 0.000486
694 0.000449
695 0.000410
696 0.000372
697 0.000326
698 0.000310
699 0.000288
700 0.000258
701 0.000263
702 0.000262
703 0.000243
704 0.000243
705 0.000237
706 0.000219
707 0.000183
708 0.000144
709 0.000135
710 0.000116
711 0.000090
712 0.000064
713 0.000073
714 0.000076
715 0.000069
716 0.000044
717 -0.000017
718 -0.000031
719 -0.000047
720 -0.000029
721 0.000004
722 0.000055
723 0.000087
724 0.000130
725 0.000161
726 0.000221
727 0.000248
728 0.000222
729 0.000178
730 0.000180
731 0.000151
732 0.000144
733 0.000125
734 0.000134
735 0.000121
736 0.000110
737 0.000089
738 0.000059
739 0.000062
740 0.000070
741 0.000066
742 0.000086
743 0.000122
744 0.000203
745 0.000308
746 0.000367
747 0.000411
748 0.000386
749 0.000379
750 0.000399
751 0.000397
752 0.000400
753 0.000393
754 0.000410
755 0.000405
756 0.000425
757 0.000431
758 0.000433
759 0.000471
760 0.000502
761 0.000531
762 0.000512
763 0.000454
764 0.000398
765 0.000362
766 0.000367
767 0.000365
768 0.000345
769 0.000293
770 0.000272
771 0.000223
772 0.000204
773 0.000205
774 0.000246
775 0.000225
776 0.000194
777 0.000128
778 0.000059
779 -0.000011
780 -0.000053
781 -0.000057
782 -0.000043
783 -0.000041
784 -0.000049
785 -0.000055
786 -0.000068
787 -0.000096
788 -0.000128
789 -0.000154
790 -0.000168
791 -0.000175
792 -0.000189
793 -0.000212
794 -0.000182
795 -0.000150
796 -0.000097
797 -0.000038
798 -0.000000
799 0.000022
800 0.000028
801 0.000043
802 0.000098
803 0.000172
804 0.000274
805 0.000345
806 0.000412
807 0.000434
808 0.000478
809 0.000505
