# i correlation
1 0.003876
2 0.003241
3 0.002723
4 0.002256
5 0.001920
6 0.001643
7 0.001375
8 0.001168
9 0.001093
10 0.001072
11 0.001075
12 0.001040
13 0.001006
14 0.000984
15 0.000924
16 0.000762
17 0.000649
18 0.000580
19 0.000491
20 0.000476
21 0.000480
22 0.000569
23 0.000631
24 0.000647
25 0.000656
26 0.000621
27 0.000625
28 0.000632
29 0.000653
30 0.000629
31 0.000583
32 0.000563
33 0.000574
34 0.000642
35 0.000690
36 0.000701
37 0.000710
38 0.000803
39 0.000808
40 0.000784
41 0.000747
42 0.000684
43 0.000647
44 0.000625
45 0.000635
46 0.000609
47 0.000612
48 0.000628
49 0.000659
50 0.000655
51 0.000611
52 0.000650
53 0.000718
54 0.000686
55 0.000653
56 0.000709
57 0.000756
58 0.000813
59 0.000841
60 0.000862
61 0.000815
62 0.000750
63 0.000694
64 0.000605
65 0.000587
66 0.000575
67 0.000566
68 0.000608
69 0.000553
70 0.000522
71 0.000519
72 0.000487
73 0.000445
74 0.000367
75 0.000322
76 0.000292
77 0.000204
78 0.000187
79 0.000189
80 0.000177
81 0.000125
82 0.000118
83 0.000190
84 0.000261
85 0.000299
86 0.000347
87 0.000399
88 0.000425
89 0.000418
90 0.000413
91 0.000391
92 0.000375
93 0.000394
94 0.000359
95 0.000344
96 0.000348
97 0.000335
98 0.000311
99 0.000306
100 0.000281
101 0.000311
102 0.000286
103 0.000261
104 0.000251
105 0.000312
106 0.000307
107 0.000278
108 0.000238
109 0.000162
110 0.000136
111 0.000115
112 0.000088
113 0.000079
114 0.000029
115 0.000054
116 -0.000002
117 0.000014
118 0.000074
119 0.000125
120 0.000110
121 0.000124
122 0.000139
123 0.000118
124 0.000138
125 0.000144
126 0.000139
127 0.000160
128 0.000196
129 0.000251
130 0.000358
131 0.000458
132 0.000534
133 0.000585
134 0.000591
135 0.000594
136 0.000609
137 0.000604
138 0.000557
139 0.000477
140 0.000378
141 0.000295
142 0.000237
143 0.000181
144 0.000108
145 0.000055
146 0.000069
147 0.000079
148 0.000089
149 0.000120
150 0.000068
151 0.000016
152 0.000004
153 0.000081
154 0.000054
155 0.000011
156 0.000031
157 0.000020
158 0.000036
159 0.000068
160 0.000066
161 0.000044
162 0.000036
163 0.000051
164 0.000059
165 0.000133
166 0.000177
167 0.000201
168 0.000220
169 0.000153
170 0.000122
171 0.000203
172 0.000198
173 0.000183
174 0.000129
175 0.000177
176 0.000284
177 0.000371
178 0.000411
179 0.000351
180 0.000289
181 0.000285
182 0.000296
183 0.000311
184 0.000324
185 0.000388
186 0.000386
187 0.000440
188 0.000437
189 0.000440
190 0.000504
191 0.000620
192 0.000673
193 0.000768
194 0.000796
195 0.000763
196 0.000676
197 0.000604
198 0.000588
199 0.000591
200 0.000561
201 0.000490
202 0.000434
203 0.000346
204 0.000270
205 0.000292
206 0.000281
207 0.000225
208 0.000131
209 0.000079
210 -0.000028
211 -0.000116
212 -0.000212
213 -0.000256
214 -0.000259
215 -0.000301
216 -0.000267
217 -0.000225
218 -0.000242
219 -0.000169
220 -0.000123
221 -0.000102
222 -0.000076
223 -0.000083
224 -0.000017
225 0.000062
226 0.000159
227 0.000180
228 0.000175
229 0.000205
230 0.000200
231 0.000226
232 0.000300
233 0.000344
234 0.000403
235 0.000418
236 0.000385
237 0.000307
238 0.000300
239 0.000330
240 0.000362
241 0.000372
242 0.000418
243 0.000515
244 0.000579
245 0.000573
246 0.000562
247 0.000498
248 0.000435
249 0.000394
250 0.000269
251 0.000170
252 0.000085
253 0.000051
254 0.000046
255 0.000092
256 0.000063
257 -0.000005
258 -0.000010
259 -0.000016
260 -0.000058
261 0.000001
262 0.000019
263 0.000015
264 0.000029
265 0.000071
266 0.000104
267 0.000161
268 0.000210
269 0.000301
270 0.000374
271 0.000368
272 0.000354
273 0.000340
274 0.000287
275 0.000223
276 0.000177
277 0.000135
278 0.000184
279 0.000198
280 0.000183
281 0.000220
282 0.000262
283 0.000234
284 0.000321
285 0.000350
286 0.000313
287 0.000254
288 0.000182
289 0.000106
290 0.000101
291 0.000087
292 0.000139
293 0.000193
294 0.000192
295 0.000205
296 0.000248
297 0.000264
298 0.000335
299 0.000418
300 0.000452
301 0.000419
302 0.000385
303 0.000333
304 0.000295
305 0.000259
306 0.000232
307 0.000138
308 0.000110
309 0.000112
310 0.000112
311 0.000066
312 0.000008
313 -0.000016
314 0.000023
315 0.000070
316 0.000043
317 0.000079
318 0.000112
319 0.000178
320 0.000246
321 0.000265
322 0.000292
323 0.000356
324 0.000473
325 0.000541
326 0.000579
327 0.000592
328 0.000583
329 0.000572
330 0.000562
331 0.000606
332 0.000666
333 0.000644
334 0.000661
335 0.000651
336 0.000582
337 0.000551
338 0.000535
339 0.000527
340 0.000502
341 0.000496
342 0.000417
343 0.000327
344 0.000308
345 0.000236
346 0.000165
347 0.000135
348 0.000173
349 0.000211
350 0.000226
351 0.000203
352 0.000201
353 0.000250
354 0.000332
355 0.000365
356 0.000381
357 0.000396
358 0.000399
359 0.000354
360 0.000296
361 0.000211
362 0.000179
363 0.000164
364 0.000201
365 0.000202
366 0.000275
367 0.000270
368 0.000300
369 0.000301
370 0.000316
371 0.000361
372 0.000388
373 0.000356
374 0.000342
375 0.000347
376 0.000337
377 0.000341
378 0.000329
379 0.000292
380 0.000297
381 0.000292
382 0.000357
383 0.000394
384 0.000433
385 0.000535
386 0.000635
387 0.000722
388 0.000744
389 0.000760
390 0.000678
391 0.000622
392 0.000619
393 0.000620
394 0.000587
395 0.000524
396 0.000452
397 0.000417
398 0.000433
399 0.000463
400 0.000491
401 0.000511
402 0.000518
403 0.000479
404 0.000466
405 0.000475
406 0.000451
407 0.000484
408 0.000443
409 0.000379
410 0.000355
411 0.000382
412 0.000361
413 0.000283
414 0.000222
415 0.000166
416 0.000137
417 0.000145
418 0.000134
419 0.000143
420 0.000147
421 0.000146
422 0.000101
423 0.000081
424 0.000086
425 0.000052
426 0.000014
427 0.000028
428 0.000070
429 0.000119
430 0.000153
431 0.000188
432 0.000233
433 0.000283
434 0.000353
435 0.000400
436 0.000362
437 0.000321
438 0.000259
439 0.000177
440 0.000075
441 0.000050
442 0.000013
443 -0.000008
444 -0.000036
445 0.000024
446 0.000122
447 0.000190
448 0.000222
449 0.000235
450 0.000212
451 0.000159
452 0.000155
453 0.000106
454 0.000067
455 0.000029
456 -0.000027
457 -0.000029
458 -0.000008
459 0.000053
460 0.000146
461 0.000181
462 0.000181
463 0.000194
464 0.000151
465 0.000097
466 0.000069
467 0.000077
468 0.000099
469 0.000199
470 0.000272
471 0.000312
472 0.000349
473 0.000376
474 0.000364
475 0.000366
476 0.000359
477 0.000354
478 0.000274
479 0.000180
480 0.000098
481 0.000036
482 -0.000020
483 -0.000020
484 -0.000012
485 0.000013
486 0.000069
487 0.000171
488 0.000234
489 0.000222
490 0.000241
491 0.000280
492 0.000266
493 0.000207
494 0.000141
495 0.000103
496 0.000016
497 0.000032
498 0.000037
499 0.000007
500 -0.000045
501 -0.000069
502 -0.000105
503 -0.000094
504 -0.000013
505 0.000039
506 0.000094
507 0.000152
508 0.000169
509 0.000170
510 0.000210
511 0.000213
512 0.000236
513 0.000269
514 0.000255
515 0.000255
516 0.000285
517 0.000349
518 0.000359
519 0.000374
520 0.000411
521 0.000365
522 0.000350
523 0.000299
524 0.000278
525 0.000344
526 0.000415
527 0.000414
528 0.000434
529 0.000425
530 0.000417
531 0.000429
532 0.000410
533 0.000378
534 0.000370
535 0.000353
536 0.000286
537 0.000230
538 0.000133
539 0.000092
540 0.000075
541 0.000086
542 0.000113
543 0.000146
544 0.000148
545 0.000147
546 0.000119
547 0.000088
548 0.000084
549 0.000085
550 0.000056
551 0.000029
552 -0.000011
553 0.000017
554 0.000068
555 0.000112
556 0.000139
557 0.000155
558 0.000210
559 0.000241
560 0.000238
561 0.000164
562 0.000090
563 0.000131
564 0.000206
565 0.000266
566 0.000332
567 0.000368
568 0.000354
569 0.000358
570 0.000379
571 0.000391
572 0.000396
573 0.000423
574 0.000411
575 0.000422
576 0.000441
577 0.000504
578 0.000592
579 0.000640
580 0.000645
581 0.000636
582 0.000645
583 0.000674
584 0.000663
585 0.000646
586 0.000609
587 0.000578
588 0.000616
589 0.000559
590 0.000514
591 0.000454
592 0.000425
593 0.000395
594 0.000398
595 0.000361
596 0.000344
597 0.000293
598 0.000257
599 0.000283
600 0.000262
601 0.000280
602 0.000305
603 0.000312
604 0.000316
605 0.000316
606 0.000327
607 0.000283
608 0.000241
609 0.000183
610 0.000150
611 0.000112
612 0.000097
613 0.000080
614 0.000063
615 0.000036
616 0.000040
617 0.000093
618 0.000141
619 0.000200
620 0.000186
621 0.000189
622 0.000173
623 0.000183
624 0.000166
625 0.000153
626 0.000173
627 0.000173
628 0.000209
629 0.000231
630 0.000265
631 0.000306
632 0.000334
633 0.000328
634 0.000330
635 0.000289
636 0.000284
637 0.000282
638 0.000253
639 0.000224
640 0.000235
641 0.000286
642 0.000323
643 0.000340
644 0.000380
645 0.000360
646 0.000332
647 0.000320
648 0.000281
649 0.000204
650 0.000156
651 0.000111
652 0.000105
653 0.000100
654 0.000149
655 0.000199
656 0.000269
657 0.000266
658 0.000230
659 0.000227
660 0.000192
661 0.000132
662 0.000106
663 0.000100
664 0.000122
665 0.000109
666 0.000152
667 0.000188
668 0.000236
669 0.000274
670 0.000262
671 0.000238
672 0.000191
673 0.000144
674 0.000135
675 0.000114
676 0.000075
677 0.000045
678 0.000047
679 0.000087
680 0.000120
681 0.000148
682 0.000169
683 0.000160
684 0.000133
685 0.000129
686 0.000116
687 0.000076
688 0.000061
689 0.000105
690 0.000179
691 0.000231
692 0.000268
693 0.000292
694 0.000307
695 0.000289
696 0.000275
697 0.000257
698 0.000196
699 0.000135
700 0.000109
701 0.000105
702 0.000128
703 0.000171
704 0.000218
705 0.000240
706 0.000254
707 0.000288
708 0.000289
709 0.000289
710 0.000276
711 0.000287
712 0.000308
713 0.000350
714 0.000348
715 0.000319
716 0.000335
717 0.000331
718 0.000291
719 0.000267
720 0.000256
721 0.000251
722 0.000233
723 0.000220
724 0.000225
725 0.000206
726 0.000205
727 0.000205
728 0.000180
729 0.000137
730 0.000129
731 0.000144
732 0.000201
733 0.000194
734 0.000213
735 0.000233
736 0.000230
737 0.000229
738 0.000202
739 0.000209
740 0.000196
741 0.000189
742 0.000196
743 0.000189
744 0.000165
745 0.000132
746 0.000095
747 0.000045
748 0.000010
749 0.000004
750 0.000009
751 0.000007
752 0.000031
753 0.000095
754 0.000134
755 0.000184
756 0.000208
757 0.000210
758 0.000214
759 0.000215
760 0.000245
761 0.000244
762 0.000233
763 0.000202
764 0.000176
765 0.000147
766 0.000108
767 0.000050
768 -0.000019
769 -0.000052
770 -0.000058
771 -0.000047
772 -0.000041
773 -0.000010
774 0.000001
775 0.000024
776 0.000044
777 0.000074
778 0.000070
779 0.000097
780 0.000069
781 0.000055
782 0.000054
783 0.000033
784 0.000021
785 0.000002
786 -0.000007
787 -0.000044
788 -0.000074
789 -0.000090
790 -0.000112
791 -0.000128
792 -0.000135
793 -0.000145
794 -0.000143
795 -0.000137
796 -0.000145
797 -0.000139
798 -0.000143
799 -0.000133
800 -0.000120
801 -0.000109
802 -0.000095
803 -0.000078
804 -0.000054
805 -0.000047
806 -0.000076
807 -0.000096
808 -0.000117
809 -0.000128
