# i correlation
1 0.007489
2 0.006876
3 0.006299
4 0.005768
5 0.005356
6 0.004836
7 0.004488
8 0.004127
9 0.003844
10 0.003665
11 0.003452
12 0.003258
13 0.003067
14 0.002834
15 0.002655
16 0.002485
17 0.002300
18 0.002160
19 0.002011
20 0.001920
21 0.001807
22 0.001680
23 0.001630
24 0.001600
25 0.001566
26 0.001532
27 0.001419
28 0.001354
29 0.001346
30 0.001367
31 0.001460
32 0.001587
33 0.001752
34 0.001938
35 0.002118
36 0.002311
37 0.002367
38 0.002400
39 0.002455
40 0.002470
41 0.002507
42 0.002530
43 0.002588
44 0.002655
45 0.002694
46 0.002723
47 0.002725
48 0.002736
49 0.002760
50 0.002721
51 0.002682
52 0.002642
53 0.002541
54 0.002449
55 0.002312
56 0.002217
57 0.002170
58 0.002084
59 0.002046
60 0.001947
61 0.001900
62 0.001806
63 0.001772
64 0.001785
65 0.001848
66 0.001860
67 0.001941
68 0.001968
69 0.002080
70 0.002176
71 0.002163
72 0.002148
73 0.002044
74 0.001937
75 0.001850
76 0.001797
77 0.001814
78 0.001847
79 0.001970
80 0.002140
81 0.002289
82 0.002446
83 0.002590
84 0.002641
85 0.002699
86 0.002720
87 0.002831
88 0.002820
89 0.002859
90 0.002859
91 0.002873
92 0.002839
93 0.002794
94 0.002780
95 0.002638
96 0.002455
97 0.002286
98 0.002126
99 0.002080
100 0.002037
101 0.002035
102 0.002011
103 0.001990
104 0.001964
105 0.001896
106 0.001868
107 0.001757
108 0.001665
109 0.001555
110 0.001416
111 0.001380
112 0.001354
113 0.001347
114 0.001402
115 0.001482
116 0.001585
117 0.001613
118 0.001699
119 0.001730
120 0.001762
121 0.001768
122 0.001771
123 0.001794
124 0.001879
125 0.001895
126 0.001935
127 0.001971
128 0.001993
129 0.001968
130 0.002007
131 0.002078
132 0.002123
133 0.002155
134 0.002259
135 0.002331
136 0.002419
137 0.002540
138 0.002693
139 0.002791
140 0.002877
141 0.002926
142 0.002930
143 0.002935
144 0.002881
145 0.002817
146 0.002675
147 0.002602
148 0.002594
149 0.002540
150 0.002620
151 0.002634
152 0.002729
153 0.002778
154 0.002863
155 0.002853
156 0.002726
157 0.002604
158 0.002482
159 0.002371
160 0.002296
161 0.002183
162 0.002006
163 0.001884
164 0.001885
165 0.001781
166 0.001733
167 0.001589
168 0.001476
169 0.001392
170 0.001365
171 0.001455
172 0.001474
173 0.001523
174 0.001602
175 0.001620
176 0.001666
177 0.001674
178 0.001682
179 0.001693
180 0.001663
181 0.001656
182 0.001584
183 0.001493
184 0.001465
185 0.001462
186 0.001521
187 0.001556
188 0.001587
189 0.001648
190 0.001691
191 0.001699
192 0.001676
193 0.001674
194 0.001687
195 0.001735
196 0.001806
197 0.001809
198 0.001771
199 0.001746
200 0.001726
201 0.001718
202 0.001648
203 0.001558
204 0.001457
205 0.001380
206 0.001279
207 0.001334
208 0.001331
209 0.001347
210 0.001371
211 0.001419
212 0.001452
213 0.001412
214 0.001365
215 0.001317
216 0.001251
217 0.001275
218 0.001278
219 0.001319
220 0.001341
221 0.001403
222 0.001471
223 0.001565
224 0.001652
225 0.001696
226 0.001681
227 0.001740
228 0.001808
229 0.001846
230 0.001872
231 0.001924
232 0.001938
233 0.001935
234 0.001990
235 0.002091
236 0.002174
237 0.002175
238 0.002187
239 0.002152
240 0.002073
241 0.002106
242 0.002059
243 0.002055
244 0.002014
245 0.001897
246 0.001874
247 0.001903
248 0.001948
249 0.001950
250 0.001846
251 0.001789
252 0.001729
253 0.001721
254 0.001777
255 0.001793
256 0.001798
257 0.001726
258 0.001646
259 0.001573
260 0.001562
261 0.001541
262 0.001445
263 0.001411
264 0.001367
265 0.001354
266 0.001384
267 0.001382
268 0.001429
269 0.001405
270 0.001387
271 0.001370
272 0.001376
273 0.001448
274 0.001524
275 0.001607
276 0.001690
277 0.001773
278 0.001859
279 0.001949
280 0.002061
281 0.002185
282 0.002261
283 0.002289
284 0.002322
285 0.002308
286 0.002304
287 0.002211
288 0.002247
289 0.002251
290 0.002333
291 0.002361
292 0.002377
293 0.002431
294 0.002483
295 0.002516
296 0.002489
297 0.002347
298 0.002249
299 0.002179
300 0.002122
301 0.002076
302 0.002035
303 0.001960
304 0.001903
305 0.001844
306 0.001778
307 0.001601
308 0.001492
309 0.001368
310 0.001228
311 0.001207
312 0.001142
313 0.001129
314 0.001165
315 0.001208
316 0.001275
317 0.001247
318 0.001324
319 0.001374
320 0.001420
321 0.001461
322 0.001461
323 0.001449
324 0.001442
325 0.001515
326 0.001593
327 0.001675
328 0.001718
329 0.001810
330 0.001886
331 0.001990
332 0.002069
333 0.002086
334 0.002116
335 0.002181
336 0.002190
337 0.002169
338 0.002149
339 0.002079
340 0.001961
341 0.001839
342 0.001751
343 0.001658
344 0.001585
345 0.001557
346 0.001480
347 0.001450
348 0.001361
349 0.001313
350 0.001311
351 0.001341
352 0.001368
353 0.001382
354 0.001407
355 0.001467
356 0.001446
357 0.001383
358 0.001282
359 0.001180
360 0.001166
361 0.001110
362 0.001072
363 0.001074
364 0.001083
365 0.001125
366 0.001134
367 0.001254
368 0.001335
369 0.001393
370 0.001425
371 0.001479
372 0.001599
373 0.001696
374 0.001726
375 0.001795
376 0.001805
377 0.001818
378 0.001816
379 0.001784
380 0.001796
381 0.001797
382 0.001795
383 0.001811
384 0.001790
385 0.001832
386 0.001853
387 0.001897
388 0.001927
389 0.001871
390 0.001849
391 0.001842
392 0.001818
393 0.001813
394 0.001785
395 0.001766
396 0.001770
397 0.001711
398 0.001673
399 0.001644
400 0.001579
401 0.001620
402 0.001625
403 0.001612
404 0.001612
405 0.001624
406 0.001656
407 0.001693
408 0.001752
409 0.001781
410 0.001747
411 0.001671
412 0.001655
413 0.001579
414 0.001574
415 0.001563
416 0.001593
417 0.001614
418 0.001602
419 0.001635
420 0.001711
421 0.001769
422 0.001832
423 0.001815
424 0.001760
425 0.001688
426 0.001612
427 0.001579
428 0.001480
429 0.001404
430 0.001349
431 0.001291
432 0.001278
433 0.001244
434 0.001233
435 0.001239
436 0.001272
437 0.001351
438 0.001378
439 0.001386
440 0.001394
441 0.001374
442 0.001354
443 0.001293
444 0.001259
445 0.001217
446 0.001216
447 0.001222
448 0.001215
449 0.001191
450 0.001210
451 0.001216
452 0.001246
453 0.001281
454 0.001336
455 0.001386
456 0.001473
457 0.001484
458 0.001468
459 0.001469
460 0.001453
461 0.001426
462 0.001338
463 0.001249
464 0.001124
465 0.001051
466 0.001025
467 0.000946
468 0.000887
469 0.000814
470 0.000801
471 0.000833
472 0.000932
473 0.001019
474 0.001106
475 0.001246
476 0.001320
477 0.001397
478 0.001399
479 0.001461
480 0.001470
481 0.001437
482 0.001397
483 0.001313
484 0.001297
485 0.001260
486 0.001243
487 0.001210
488 0.001173
489 0.001189
490 0.001231
491 0.001283
492 0.001311
493 0.001284
494 0.001207
495 0.001189
496 0.001199
497 0.001172
498 0.001112
499 0.001033
500 0.000921
501 0.000875
502 0.000843
503 0.000822
504 0.000801
505 0.000794
506 0.000804
507 0.000870
508 0.000913
509 0.000983
510 0.001031
511 0.001073
512 0.001119
513 0.001160
514 0.001169
515 0.001157
516 0.001133
517 0.001162
518 0.001142
519 0.001099
520 0.001047
521 0.001034
522 0.001059
523 0.001058
524 0.001051
525 0.001066
526 0.001089
527 0.001115
528 0.001143
529 0.001159
530 0.001190
531 0.001242
532 0.001269
533 0.001308
534 0.001325
535 0.001328
536 0.001306
537 0.001274
538 0.001283
539 0.001301
540 0.001329
541 0.001392
542 0.001449
543 0.001495
544 0.001530
545 0.001581
546 0.001655
547 0.001672
548 0.001666
549 0.001643
550 0.001587
551 0.001462
552 0.001335
553 0.001223
554 0.001164
555 0.001114
556 0.001102
557 0.001115
558 0.001123
559 0.001143
560 0.001148
561 0.001159
562 0.001194
563 0.001203
564 0.001167
565 0.001144
566 0.001140
567 0.001119
568 0.001101
569 0.001068
570 0.001060
571 0.000991
572 0.000959
573 0.000925
574 0.000952
575 0.000987
576 0.001012
577 0.001014
578 0.001009
579 0.001000
580 0.001036
581 0.001051
582 0.001029
583 0.001007
584 0.001013
585 0.001021
586 0.001007
587 0.001037
588 0.001056
589 0.001084
590 0.001098
591 0.001111
592 0.001127
593 0.001102
594 0.001055
595 0.001056
596 0.001023
597 0.000966
598 0.000932
599 0.000934
600 0.000868
601 0.000820
602 0.000810
603 0.000747
604 0.000733
605 0.000670
606 0.000642
607 0.000590
608 0.000563
609 0.000516
610 0.000492
611 0.000517
612 0.000505
613 0.000505
614 0.000468
615 0.000467
616 0.000496
617 0.000489
618 0.000470
619 0.000446
620 0.000418
621 0.000380
622 0.000375
623 0.000349
624 0.000345
625 0.000336
626 0.000349
627 0.000429
628 0.000501
629 0.000658
630 0.000771
631 0.000865
632 0.000967
633 0.001042
634 0.001103
635 0.001111
636 0.001102
637 0.001111
638 0.001073
639 0.001042
640 0.000990
641 0.000946
642 0.000855
643 0.000766
644 0.000675
645 0.000629
646 0.000567
647 0.000508
648 0.000519
649 0.000509
650 0.000577
651 0.000612
652 0.000615
653 0.000618
654 0.000590
655 0.000601
656 0.000626
657 0.000630
658 0.000616
659 0.000574
660 0.000572
661 0.000601
662 0.000607
663 0.000624
664 0.000637
665 0.000675
666 0.000689
667 0.000706
668 0.000738
669 0.000777
670 0.000824
671 0.000849
672 0.000892
673 0.000946
674 0.000988
675 0.001028
676 0.001100
677 0.001166
678 0.001217
679 0.001233
680 0.001222
681 0.001251
682 0.001278
683 0.001300
684 0.001312
685 0.001284
686 0.001278
687 0.001269
688 0.001265
689 0.001263
690 0.001239
691 0.001251
692 0.001209
693 0.001175
694 0.001138
695 0.001075
696 0.001031
697 0.000986
698 0.000965
699 0.000988
700 0.001035
701 0.001052
702 0.001085
703 0.001099
704 0.001111
705 0.001113
706 0.001076
707 0.001056
708 0.001025
709 0.001018
710 0.001026
711 0.001043
712 0.001074
713 0.001094
714 0.001101
715 0.001102
716 0.001061
717 0.001032
718 0.000998
719 0.000952
720 0.000948
721 0.000915
722 0.000903
723 0.000908
724 0.000887
725 0.000859
726 0.000829
727 0.000828
728 0.000800
729 0.000763
730 0.000745
731 0.000737
732 0.000736
733 0.000697
734 0.000686
735 0.000701
736 0.000707
737 0.000721
738 0.000727
739 0.000715
740 0.000726
741 0.000716
742 0.000739
743 0.000765
744 0.000767
745 0.000804
746 0.000816
747 0.000814
748 0.000803
749 0.000795
750 0.000797
751 0.000771
752 0.000748
753 0.000737
754 0.000708
755 0.000680
756 0.000652
757 0.000612
758 0.000552
759 0.000485
760 0.000440
761 0.000421
762 0.000384
763 0.000370
764 0.000344
765 0.000324
766 0.000340
767 0.000306
768 0.000305
769 0.000304
770 0.000321
771 0.000347
772 0.000362
773 0.000385
774 0.000426
775 0.000433
776 0.000457
777 0.000497
778 0.000525
779 0.000540
780 0.000545
781 0.000575
782 0.000609
783 0.000643
784 0.000684
785 0.000719
786 0.000739
787 0.000758
788 0.000795
789 0.000821
790 0.000820
791 0.000823
792 0.000812
793 0.000810
794 0.000824
795 0.000839
796 0.000828
797 0.000819
798 0.000802
799 0.000767
800 0.000748
801 0.000701
802 0.000675
803 0.000655
804 0.000626
805 0.000609
806 0.000590
807 0.000570
808 0.000559
809 0.000556
