# i correlation
1 0.005446
2 0.004771
3 0.004275
4 0.003852
5 0.003485
6 0.003214
7 0.002954
8 0.002748
9 0.002540
10 0.002301
11 0.002063
12 0.001895
13 0.001730
14 0.001548
15 0.001429
16 0.001316
17 0.001271
18 0.001218
19 0.001156
20 0.001044
21 0.000954
22 0.000862
23 0.000814
24 0.000815
25 0.000745
26 0.000584
27 0.000588
28 0.000530
29 0.000458
30 0.000441
31 0.000451
32 0.000475
33 0.000564
34 0.000574
35 0.000659
36 0.000708
37 0.000749
38 0.000838
39 0.000848
40 0.000901
41 0.000947
42 0.000973
43 0.000943
44 0.000942
45 0.000961
46 0.001022
47 0.001081
48 0.001139
49 0.001175
50 0.001157
51 0.001149
52 0.001132
53 0.001124
54 0.001137
55 0.001244
56 0.001352
57 0.001344
58 0.001389
59 0.001448
60 0.001407
61 0.001289
62 0.001211
63 0.001133
64 0.001079
65 0.001034
66 0.001002
67 0.000997
68 0.000970
69 0.000875
70 0.000790
71 0.000765
72 0.000746
73 0.000801
74 0.000802
75 0.000793
76 0.000808
77 0.000889
78 0.000838
79 0.000738
80 0.000685
81 0.000576
82 0.000499
83 0.000486
84 0.000508
85 0.000480
86 0.000445
87 0.000364
88 0.000369
89 0.000330
90 0.000322
91 0.000396
92 0.000495
93 0.000632
94 0.000786
95 0.000946
96 0.001004
97 0.001046
98 0.000975
99 0.000952
100 0.000943
101 0.000978
102 0.000976
103 0.000970
104 0.000997
105 0.000958
106 0.000861
107 0.000846
108 0.000866
109 0.000834
110 0.000715
111 0.000699
112 0.000808
113 0.000912
114 0.000983
115 0.001062
116 0.001128
117 0.001143
118 0.001175
119 0.001203
120 0.001204
121 0.001124
122 0.000934
123 0.000818
124 0.000746
125 0.000686
126 0.000729
127 0.000695
128 0.000685
129 0.000703
130 0.000662
131 0.000555
132 0.000498
133 0.000421
134 0.000305
135 0.000239
136 0.000204
137 0.000127
138 0.000078
139 0.000050
140 0.000018
141 0.000002
142 -0.000042
143 -0.000116
144 -0.000145
145 -0.000180
146 -0.000198
147 -0.000230
148 -0.000293
149 -0.000355
150 -0.000293
151 -0.000243
152 -0.000262
153 -0.000148
154 -0.000074
155 -0.000133
156 -0.000110
157 -0.000059
158 -0.000026
159 0.000003
160 0.000049
161 0.000139
162 0.000184
163 0.000220
164 0.000185
165 0.000183
166 0.000181
167 0.000185
168 0.000206
169 0.000154
170 0.000187
171 0.000227
172 0.000248
173 0.000187
174 0.000101
175 0.000106
176 0.000097
177 0.000143
178 0.000253
179 0.000303
180 0.000284
181 0.000251
182 0.000186
183 0.000123
184 0.000099
185 0.000200
186 0.000230
187 0.000239
188 0.000177
189 0.000160
190 0.000113
191 0.000031
192 -0.000011
193 -0.000026
194 -0.000036
195 -0.000087
196 -0.000090
197 -0.000071
198 -0.000123
199 -0.000171
200 -0.000229
201 -0.000273
202 -0.000325
203 -0.000338
204 -0.000290
205 -0.000205
206 -0.000179
207 -0.000281
208 -0.000261
209 -0.000224
210 -0.000169
211 -0.000175
212 -0.000117
213 -0.000057
214 0.000001
215 0.000033
216 0.000107
217 0.000148
218 0.000220
219 0.000228
220 0.000244
221 0.000325
222 0.000308
223 0.000267
224 0.000270
225 0.000287
226 0.000290
227 0.000332
228 0.000332
229 0.000279
230 0.000277
231 0.000231
232 0.000117
233 0.000109
234 0.000124
235 0.000121
236 0.000073
237 0.000051
238 0.000081
239 0.000099
240 0.000084
241 0.000131
242 0.000114
243 0.000137
244 0.000175
245 0.000248
246 0.000338
247 0.000333
248 0.000314
249 0.000330
250 0.000330
251 0.000257
252 0.000207
253 0.000158
254 0.000083
255 0.000059
256 0.000035
257 -0.000015
258 -0.000002
259 0.000011
260 0.000004
261 -0.000009
262 -0.000004
263 -0.000045
264 -0.000119
265 -0.000135
266 -0.000173
267 -0.000227
268 -0.000279
269 -0.000351
270 -0.000409
271 -0.000429
272 -0.000452
273 -0.000424
274 -0.000316
275 -0.000243
276 -0.000228
277 -0.000211
278 -0.000246
279 -0.000179
280 -0.000090
281 -0.000042
282 -0.000045
283 -0.000056
284 -0.000129
285 -0.000193
286 -0.000209
287 -0.000258
288 -0.000340
289 -0.000394
290 -0.000425
291 -0.000421
292 -0.000411
293 -0.000334
294 -0.000276
295 -0.000269
296 -0.000271
297 -0.000258
298 -0.000141
299 -0.000067
300 -0.000025
301 0.000027
302 0.000004
303 0.000018
304 0.000079
305 0.000064
306 -0.000030
307 -0.000090
308 -0.000150
309 -0.000201
310 -0.000294
311 -0.000309
312 -0.000314
313 -0.000254
314 -0.000203
315 -0.000260
316 -0.000318
317 -0.000300
318 -0.000247
319 -0.000240
320 -0.000208
321 -0.000081
322 -0.000014
323 0.000063
324 0.000102
325 0.000145
326 0.000201
327 0.000194
328 0.000170
329 0.000209
330 0.000195
331 0.000158
332 0.000100
333 0.000059
334 0.000137
335 0.000269
336 0.000352
337 0.000331
338 0.000396
339 0.000476
340 0.000521
341 0.000542
342 0.000575
343 0.000614
344 0.000645
345 0.000686
346 0.000750
347 0.000816
348 0.000832
349 0.000751
350 0.000703
351 0.000649
352 0.000540
353 0.000475
354 0.000512
355 0.000485
356 0.000423
357 0.000355
358 0.000389
359 0.000455
360 0.000472
361 0.000398
362 0.000411
363 0.000429
364 0.000471
365 0.000488
366 0.000485
367 0.000517
368 0.000485
369 0.000476
370 0.000449
371 0.000436
372 0.000521
373 0.000575
374 0.000618
375 0.000645
376 0.000700
377 0.000751
378 0.000803
379 0.000837
380 0.000786
381 0.000780
382 0.000757
383 0.000664
384 0.000546
385 0.000407
386 0.000311
387 0.000223
388 0.000145
389 0.000068
390 -0.000022
391 -0.000051
392 -0.000124
393 -0.000220
394 -0.000213
395 -0.000159
396 -0.000137
397 -0.000093
398 -0.000065
399 -0.000069
400 0.000008
401 0.000030
402 0.000041
403 0.000076
404 0.000060
405 0.000062
406 0.000169
407 0.000295
408 0.000351
409 0.000444
410 0.000453
411 0.000445
412 0.000475
413 0.000544
414 0.000619
415 0.000676
416 0.000757
417 0.000795
418 0.000819
419 0.000828
420 0.000851
421 0.000861
422 0.000913
423 0.000935
424 0.000940
425 0.000924
426 0.000899
427 0.000870
428 0.000876
429 0.000841
430 0.000830
431 0.000818
432 0.000807
433 0.000820
434 0.000800
435 0.000785
436 0.000763
437 0.000745
438 0.000774
439 0.000848
440 0.000877
441 0.000850
442 0.000859
443 0.000852
444 0.000806
445 0.000748
446 0.000702
447 0.000685
448 0.000572
449 0.000452
450 0.000390
451 0.000391
452 0.000362
453 0.000325
454 0.000276
455 0.000281
456 0.000258
457 0.000199
458 0.000174
459 0.000198
460 0.000210
461 0.000220
462 0.000211
463 0.000231
464 0.000255
465 0.000318
466 0.000386
467 0.000415
468 0.000458
469 0.000443
470 0.000439
471 0.000507
472 0.000559
473 0.000597
474 0.000660
475 0.000699
476 0.000757
477 0.000737
478 0.000759
479 0.000800
480 0.000839
481 0.000792
482 0.000721
483 0.000687
484 0.000677
485 0.000679
486 0.000707
487 0.000643
488 0.000613
489 0.000613
490 0.000599
491 0.000613
492 0.000628
493 0.000635
494 0.000624
495 0.000580
496 0.000494
497 0.000431
498 0.000408
499 0.000386
500 0.000338
501 0.000352
502 0.000363
503 0.000355
504 0.000309
505 0.000222
506 0.000149
507 0.000099
508 0.000071
509 0.000040
510 0.000034
511 0.000004
512 -0.000045
513 -0.000059
514 -0.000079
515 -0.000102
516 -0.000103
517 -0.000093
518 -0.000100
519 -0.000092
520 -0.000071
521 -0.000055
522 -0.000048
523 -0.000041
524 -0.000031
525 0.000030
526 0.000107
527 0.000169
528 0.000171
529 0.000160
530 0.000166
531 0.000127
532 0.000135
533 0.000117
534 0.000088
535 0.000092
536 0.000063
537 0.000025
538 -0.000050
539 -0.000076
540 -0.000059
541 -0.000076
542 -0.000077
543 -0.000059
544 0.000005
545 0.000048
546 -0.000031
547 -0.000092
548 -0.000119
549 -0.000104
550 -0.000122
551 -0.000138
552 -0.000133
553 -0.000134
554 -0.000149
555 -0.000203
556 -0.000239
557 -0.000224
558 -0.000240
559 -0.000175
560 -0.000082
561 -0.000079
562 -0.000079
563 -0.000052
564 -0.000024
565 -0.000026
566 0.000011
567 0.000057
568 0.000134
569 0.000213
570 0.000233
571 0.000194
572 0.000174
573 0.000181
574 0.000164
575 0.000189
576 0.000177
577 0.000183
578 0.000174
579 0.000185
580 0.000218
581 0.000236
582 0.000239
583 0.000226
584 0.000218
585 0.000224
586 0.000232
587 0.000292
588 0.000331
589 0.000345
590 0.000283
591 0.000218
592 0.000199
593 0.000223
594 0.000272
595 0.000283
596 0.000249
597 0.000225
598 0.000227
599 0.000245
600 0.000289
601 0.000292
602 0.000300
603 0.000296
604 0.000348
605 0.000388
606 0.000415
607 0.000425
608 0.000450
609 0.000437
610 0.000391
611 0.000334
612 0.000282
613 0.000209
614 0.000122
615 0.000074
616 0.000049
617 0.000026
618 -0.000026
619 -0.000060
620 -0.000103
621 -0.000106
622 -0.000032
623 -0.000041
624 -0.000063
625 -0.000022
626 -0.000035
627 -0.000058
628 -0.000079
629 -0.000067
630 -0.000081
631 -0.000119
632 -0.000160
633 -0.000194
634 -0.000203
635 -0.000216
636 -0.000244
637 -0.000274
638 -0.000269
639 -0.000243
640 -0.000232
641 -0.000225
642 -0.000264
643 -0.000302
644 -0.000257
645 -0.000233
646 -0.000205
647 -0.000181
648 -0.000148
649 -0.000099
650 -0.000097
651 -0.000135
652 -0.000130
653 -0.000110
654 -0.000125
655 -0.000106
656 -0.000095
657 -0.000046
658 -0.000030
659 -0.000014
660 -0.000017
661 -0.000021
662 -0.000011
663 0.000043
664 0.000086
665 0.000122
666 0.000076
667 0.000001
668 -0.000056
669 -0.000118
670 -0.000183
671 -0.000150
672 -0.000094
673 -0.000042
674 -0.000044
675 -0.000087
676 -0.000102
677 -0.000104
678 -0.000127
679 -0.000177
680 -0.000194
681 -0.000184
682 -0.000158
683 -0.000113
684 -0.000042
685 -0.000038
686 -0.000040
687 -0.000077
688 -0.000056
689 -0.000010
690 0.000046
691 0.000031
692 -0.000005
693 -0.000038
694 -0.000062
695 -0.000063
696 -0.000051
697 -0.000045
698 -0.000005
699 0.000014
700 0.000064
701 0.000149
702 0.000220
703 0.000271
704 0.000278
705 0.000268
706 0.000261
707 0.000303
708 0.000329
709 0.000347
710 0.000334
711 0.000349
712 0.000347
713 0.000382
714 0.000395
715 0.000401
716 0.000391
717 0.000361
718 0.000319
719 0.000317
720 0.000312
721 0.000325
722 0.000326
723 0.000285
724 0.000221
725 0.000156
726 0.000068
727 0.000011
728 -0.000061
729 -0.000114
730 -0.000122
731 -0.000146
732 -0.000151
733 -0.000195
734 -0.000223
735 -0.000267
736 -0.000287
737 -0.000321
738 -0.000319
739 -0.000322
740 -0.000315
741 -0.000327
742 -0.000358
743 -0.000373
744 -0.000402
745 -0.000417
746 -0.000382
747 -0.000371
748 -0.000339
749 -0.000308
750 -0.000294
751 -0.000278
752 -0.000317
753 -0.000342
754 -0.000347
755 -0.000346
756 -0.000325
757 -0.000284
758 -0.000251
759 -0.000209
760 -0.000147
761 -0.000103
762 -0.000096
763 -0.000114
764 -0.000131
765 -0.000117
766 -0.000111
767 -0.000082
768 -0.000059
769 -0.000029
770 0.000005
771 -0.000004
772 -0.000014
773 0.000002
774 0.000019
775 0.000050
776 0.000087
777 0.000106
778 0.000157
779 0.000194
780 0.000217
781 0.000229
782 0.000211
783 0.000207
784 0.000212
785 0.000230
786 0.000249
787 0.000261
788 0.000246
789 0.000242
790 0.000212
791 0.000194
792 0.000187
793 0.000170
794 0.000160
795 0.000144
796 0.000110
797 0.000097
798 0.000083
799 0.000055
800 0.000028
801 -0.000004
802 -0.000024
803 -0.000040
804 -0.000054
805 -0.000042
806 -0.000033
807 -0.000024
808 -0.000027
809 -0.000040
