# i correlation
1 0.005742
2 0.005088
3 0.004555
4 0.004160
5 0.003725
6 0.003382
7 0.003095
8 0.002818
9 0.002564
10 0.002362
11 0.002206
12 0.002099
13 0.001946
14 0.001802
15 0.001753
16 0.001698
17 0.001642
18 0.001673
19 0.001685
20 0.001633
21 0.001509
22 0.001460
23 0.001412
24 0.001366
25 0.001336
26 0.001263
27 0.001196
28 0.001161
29 0.001179
30 0.001253
31 0.001241
32 0.001230
33 0.001231
34 0.001260
35 0.001289
36 0.001329
37 0.001414
38 0.001508
39 0.001542
40 0.001591
41 0.001623
42 0.001680
43 0.001711
44 0.001657
45 0.001652
46 0.001590
47 0.001497
48 0.001374
49 0.001299
50 0.001177
51 0.001135
52 0.001092
53 0.001047
54 0.000901
55 0.000772
56 0.000579
57 0.000432
58 0.000277
59 0.000223
60 0.000199
61 0.000160
62 0.000114
63 0.000119
64 0.000117
65 0.000085
66 0.000095
67 0.000210
68 0.000267
69 0.000309
70 0.000370
71 0.000488
72 0.000564
73 0.000697
74 0.000759
75 0.000794
76 0.000910
77 0.001032
78 0.001115
79 0.001267
80 0.001378
81 0.001387
82 0.001366
83 0.001305
84 0.001303
85 0.001379
86 0.001373
87 0.001301
88 0.001195
89 0.001142
90 0.001065
91 0.001107
92 0.001128
93 0.001192
94 0.001243
95 0.001365
96 0.001441
97 0.001506
98 0.001595
99 0.001614
100 0.001587
101 0.001527
102 0.001500
103 0.001522
104 0.001598
105 0.001599
106 0.001475
107 0.001424
108 0.001303
109 0.001207
110 0.001131
111 0.001143
112 0.001104
113 0.001006
114 0.000949
115 0.000945
116 0.000949
117 0.000954
118 0.000948
119 0.000999
120 0.001089
121 0.001157
122 0.001272
123 0.001324
124 0.001355
125 0.001338
126 0.001297
127 0.001298
128 0.001300
129 0.001339
130 0.001373
131 0.001376
132 0.001373
133 0.001342
134 0.001307
135 0.001237
136 0.001112
137 0.001062
138 0.001010
139 0.000952
140 0.000917
141 0.000855
142 0.000769
143 0.000609
144 0.000493
145 0.000348
146 0.000252
147 0.000245
148 0.000268
149 0.000326
150 0.000372
151 0.000354
152 0.000349
153 0.000372
154 0.000406
155 0.000452
156 0.000512
157 0.000595
158 0.000708
159 0.000778
160 0.000815
161 0.000813
162 0.000799
163 0.000744
164 0.000761
165 0.000780
166 0.000818
167 0.000890
168 0.000943
169 0.000981
170 0.001032
171 0.001118
172 0.001205
173 0.001295
174 0.001393
175 0.001450
176 0.001461
177 0.001473
178 0.001589
179 0.001678
180 0.001746
181 0.001770
182 0.001757
183 0.001721
184 0.001640
185 0.001541
186 0.001388
187 0.001171
188 0.000990
189 0.000892
190 0.000854
191 0.000797
192 0.000764
193 0.000730
194 0.000682
195 0.000573
196 0.000548
197 0.000507
198 0.000591
199 0.000633
200 0.000757
201 0.000862
202 0.001013
203 0.001132
204 0.001231
205 0.001291
206 0.001307
207 0.001304
208 0.001351
209 0.001391
210 0.001413
211 0.001481
212 0.001572
213 0.001630
214 0.001687
215 0.001793
216 0.001794
217 0.001700
218 0.001617
219 0.001579
220 0.001638
221 0.001705
222 0.001666
223 0.001659
224 0.001649
225 0.001585
226 0.001534
227 0.001540
228 0.001547
229 0.001500
230 0.001368
231 0.001269
232 0.001174
233 0.001075
234 0.001084
235 0.001114
236 0.001093
237 0.000935
238 0.000852
239 0.000795
240 0.000721
241 0.000627
242 0.000549
243 0.000489
244 0.000436
245 0.000408
246 0.000383
247 0.000315
248 0.000149
249 0.000049
250 0.000010
251 0.000035
252 0.000012
253 0.000125
254 0.000229
255 0.000300
256 0.000352
257 0.000402
258 0.000435
259 0.000525
260 0.000572
261 0.000644
262 0.000681
263 0.000711
264 0.000692
265 0.000740
266 0.000760
267 0.000682
268 0.000597
269 0.000551
270 0.000503
271 0.000494
272 0.000479
273 0.000419
274 0.000390
275 0.000381
276 0.000353
277 0.000361
278 0.000371
279 0.000411
280 0.000465
281 0.000509
282 0.000526
283 0.000571
284 0.000567
285 0.000611
286 0.000603
287 0.000665
288 0.000733
289 0.000726
290 0.000630
291 0.000553
292 0.000464
293 0.000395
294 0.000378
295 0.000372
296 0.000418
297 0.000441
298 0.000463
299 0.000484
300 0.000560
301 0.000570
302 0.000577
303 0.000646
304 0.000718
305 0.000816
306 0.000908
307 0.000998
308 0.001105
309 0.001158
310 0.001189
311 0.001190
312 0.001238
313 0.001274
314 0.001282
315 0.001262
316 0.001270
317 0.001229
318 0.001227
319 0.001239
320 0.001243
321 0.001128
322 0.001056
323 0.001038
324 0.000964
325 0.000941
326 0.000947
327 0.000886
328 0.000764
329 0.000628
330 0.000529
331 0.000512
332 0.000567
333 0.000627
334 0.000679
335 0.000692
336 0.000689
337 0.000624
338 0.000616
339 0.000631
340 0.000638
341 0.000582
342 0.000604
343 0.000570
344 0.000569
345 0.000556
346 0.000508
347 0.000456
348 0.000437
349 0.000462
350 0.000546
351 0.000632
352 0.000641
353 0.000617
354 0.000556
355 0.000495
356 0.000455
357 0.000402
358 0.000373
359 0.000311
360 0.000273
361 0.000293
362 0.000318
363 0.000351
364 0.000430
365 0.000491
366 0.000444
367 0.000387
368 0.000287
369 0.000161
370 0.000020
371 -0.000076
372 -0.000160
373 -0.000180
374 -0.000197
375 -0.000228
376 -0.000238
377 -0.000251
378 -0.000274
379 -0.000303
380 -0.000290
381 -0.000289
382 -0.000233
383 -0.000125
384 0.000010
385 0.000180
386 0.000382
387 0.000522
388 0.000595
389 0.000626
390 0.000646
391 0.000669
392 0.000686
393 0.000775
394 0.000838
395 0.000868
396 0.000895
397 0.000901
398 0.000876
399 0.000839
400 0.000776
401 0.000727
402 0.000685
403 0.000684
404 0.000722
405 0.000805
406 0.000786
407 0.000733
408 0.000654
409 0.000584
410 0.000489
411 0.000441
412 0.000445
413 0.000452
414 0.000425
415 0.000369
416 0.000417
417 0.000475
418 0.000517
419 0.000549
420 0.000575
421 0.000567
422 0.000486
423 0.000434
424 0.000386
425 0.000304
426 0.000193
427 0.000166
428 0.000181
429 0.000265
430 0.000302
431 0.000343
432 0.000351
433 0.000320
434 0.000298
435 0.000337
436 0.000420
437 0.000464
438 0.000546
439 0.000581
440 0.000609
441 0.000601
442 0.000648
443 0.000662
444 0.000669
445 0.000643
446 0.000622
447 0.000630
448 0.000604
449 0.000618
450 0.000623
451 0.000565
452 0.000435
453 0.000380
454 0.000347
455 0.000324
456 0.000310
457 0.000314
458 0.000291
459 0.000325
460 0.000281
461 0.000233
462 0.000188
463 0.000143
464 0.000087
465 0.000050
466 0.000072
467 0.000085
468 0.000124
469 0.000166
470 0.000178
471 0.000175
472 0.000135
473 0.000092
474 0.000092
475 0.000067
476 -0.000022
477 -0.000114
478 -0.000163
479 -0.000210
480 -0.000248
481 -0.000258
482 -0.000221
483 -0.000166
484 -0.000120
485 -0.000060
486 0.000000
487 0.000085
488 0.000103
489 0.000140
490 0.000186
491 0.000192
492 0.000217
493 0.000254
494 0.000244
495 0.000250
496 0.000241
497 0.000277
498 0.000314
499 0.000332
500 0.000327
501 0.000317
502 0.000311
503 0.000289
504 0.000234
505 0.000180
506 0.000127
507 0.000078
508 0.000054
509 0.000016
510 -0.000051
511 -0.000127
512 -0.000142
513 -0.000155
514 -0.000151
515 -0.000135
516 -0.000075
517 -0.000027
518 0.000007
519 0.000008
520 0.000025
521 0.000000
522 -0.000012
523 0.000010
524 0.000107
525 0.000152
526 0.000156
527 0.000194
528 0.000238
529 0.000265
530 0.000274
531 0.000256
532 0.000236
533 0.000205
534 0.000254
535 0.000308
536 0.000345
537 0.000304
538 0.000321
539 0.000329
540 0.000349
541 0.000379
542 0.000439
543 0.000475
544 0.000503
545 0.000489
546 0.000492
547 0.000480
548 0.000443
549 0.000381
550 0.000340
551 0.000316
552 0.000235
553 0.000191
554 0.000261
555 0.000291
556 0.000237
557 0.000186
558 0.000134
559 0.000077
560 0.000052
561 0.000056
562 0.000056
563 0.000076
564 0.000084
565 0.000122
566 0.000187
567 0.000263
568 0.000275
569 0.000322
570 0.000374
571 0.000424
572 0.000456
573 0.000521
574 0.000554
575 0.000517
576 0.000543
577 0.000571
578 0.000595
579 0.000627
580 0.000636
581 0.000612
582 0.000552
583 0.000492
584 0.000384
585 0.000319
586 0.000246
587 0.000198
588 0.000148
589 0.000092
590 0.000006
591 -0.000031
592 -0.000084
593 -0.000134
594 -0.000169
595 -0.000185
596 -0.000153
597 -0.000107
598 -0.000041
599 0.000001
600 0.000014
601 0.000046
602 0.000051
603 0.000108
604 0.000122
605 0.000071
606 0.000074
607 0.000099
608 0.000114
609 0.000110
610 0.000144
611 0.000157
612 0.000155
613 0.000148
614 0.000178
615 0.000189
616 0.000177
617 0.000196
618 0.000208
619 0.000238
620 0.000263
621 0.000311
622 0.000398
623 0.000471
624 0.000477
625 0.000469
626 0.000462
627 0.000523
628 0.000534
629 0.000514
630 0.000433
631 0.000338
632 0.000252
633 0.000169
634 0.000087
635 -0.000004
636 -0.000061
637 -0.000124
638 -0.000189
639 -0.000193
640 -0.000160
641 -0.000111
642 -0.000080
643 -0.000086
644 -0.000099
645 -0.000097
646 -0.000100
647 -0.000072
648 -0.000086
649 -0.000079
650 -0.000074
651 -0.000056
652 -0.000004
653 0.000041
654 0.000036
655 0.000036
656 0.000044
657 0.000012
658 -0.000020
659 -0.000023
660 -0.000038
661 -0.000081
662 -0.000104
663 -0.000115
664 -0.000142
665 -0.000114
666 -0.000098
667 -0.000088
668 -0.000100
669 -0.000090
670 -0.000044
671 -0.000013
672 0.000024
673 0.000050
674 0.000136
675 0.000170
676 0.000207
677 0.000198
678 0.000213
679 0.000176
680 0.000116
681 0.000070
682 0.000033
683 0.000022
684 -0.000033
685 -0.000065
686 -0.000109
687 -0.000162
688 -0.000220
689 -0.000281
690 -0.000294
691 -0.000318
692 -0.000348
693 -0.000353
694 -0.000327
695 -0.000292
696 -0.000267
697 -0.000260
698 -0.000219
699 -0.000140
700 -0.000090
701 -0.000045
702 -0.000018
703 0.000056
704 0.000064
705 0.000056
706 0.000037
707 -0.000010
708 -0.000006
709 -0.000000
710 0.000010
711 -0.000019
712 -0.000055
713 -0.000037
714 -0.000031
715 0.000002
716 0.000010
717 0.000006
718 0.000038
719 0.000066
720 0.000075
721 0.000076
722 0.000098
723 0.000090
724 0.000071
725 0.000082
726 0.000077
727 0.000069
728 0.000070
729 0.000117
730 0.000143
731 0.000151
732 0.000140
733 0.000141
734 0.000132
735 0.000098
736 0.000113
737 0.000110
738 0.000149
739 0.000160
740 0.000191
741 0.000230
742 0.000240
743 0.000249
744 0.000220
745 0.000207
746 0.000193
747 0.000188
748 0.000185
749 0.000182
750 0.000174
751 0.000185
752 0.000191
753 0.000191
754 0.000202
755 0.000224
756 0.000243
757 0.000221
758 0.000237
759 0.000240
760 0.000219
761 0.000178
762 0.000150
763 0.000152
764 0.000136
765 0.000112
766 0.000059
767 0.000067
768 0.000083
769 0.000110
770 0.000166
771 0.000207
772 0.000242
773 0.000243
774 0.000268
775 0.000277
776 0.000286
777 0.000299
778 0.000322
779 0.000360
780 0.000394
781 0.000433
782 0.000488
783 0.000518
784 0.000524
785 0.000557
786 0.000582
787 0.000552
788 0.000506
789 0.000477
790 0.000432
791 0.000369
792 0.000307
793 0.000270
794 0.000247
795 0.000229
796 0.000199
797 0.000187
798 0.000175
799 0.000141
800 0.000119
801 0.000144
802 0.000172
803 0.000187
804 0.000201
805 0.000232
806 0.000269
807 0.000299
808 0.000329
809 0.000350
