# i correlation
1 0.005355
2 0.004670
3 0.004081
4 0.003535
5 0.003133
6 0.002863
7 0.002670
8 0.002486
9 0.002288
10 0.002084
11 0.001899
12 0.001738
13 0.001474
14 0.001316
15 0.001191
16 0.001068
17 0.001040
18 0.000980
19 0.000880
20 0.000773
21 0.000611
22 0.000414
23 0.000291
24 0.000192
25 0.000122
26 0.000028
27 0.000008
28 0.000031
29 0.000114
30 0.000128
31 0.000169
32 0.000110
33 0.000023
34 0.000000
35 0.000018
36 0.000015
37 0.000078
38 0.000078
39 0.000121
40 0.000260
41 0.000385
42 0.000466
43 0.000591
44 0.000713
45 0.000771
46 0.000889
47 0.000928
48 0.000954
49 0.001007
50 0.001030
51 0.001013
52 0.001033
53 0.001041
54 0.001050
55 0.001102
56 0.001132
57 0.001124
58 0.001108
59 0.001073
60 0.001039
61 0.000930
62 0.000815
63 0.000707
64 0.000736
65 0.000770
66 0.000851
67 0.000892
68 0.000923
69 0.000914
70 0.000935
71 0.000960
72 0.000999
73 0.001057
74 0.001070
75 0.001056
76 0.000976
77 0.000910
78 0.000846
79 0.000770
80 0.000677
81 0.000605
82 0.000430
83 0.000333
84 0.000312
85 0.000354
86 0.000447
87 0.000453
88 0.000419
89 0.000350
90 0.000165
91 -0.000042
92 -0.000204
93 -0.000296
94 -0.000347
95 -0.000334
96 -0.000242
97 -0.000187
98 -0.000181
99 -0.000202
100 -0.000232
101 -0.000247
102 -0.000182
103 -0.000101
104 -0.000016
105 0.000036
106 0.000126
107 0.000204
108 0.000189
109 0.000138
110 0.000169
111 0.000232
112 0.000263
113 0.000349
114 0.000460
115 0.000547
116 0.000529
117 0.000524
118 0.000551
119 0.000496
120 0.000491
121 0.000569
122 0.000661
123 0.000696
124 0.000674
125 0.000675
126 0.000694
127 0.000692
128 0.000693
129 0.000705
130 0.000720
131 0.000635
132 0.000482
133 0.000299
134 0.000139
135 -0.000025
136 -0.000145
137 -0.000213
138 -0.000196
139 -0.000189
140 -0.000165
141 -0.000117
142 -0.000066
143 0.000016
144 -0.000053
145 -0.000027
146 0.000002
147 -0.000013
148 -0.000069
149 -0.000170
150 -0.000254
151 -0.000331
152 -0.000406
153 -0.000393
154 -0.000389
155 -0.000290
156 -0.000226
157 -0.000089
158 -0.000017
159 0.000076
160 0.000197
161 0.000276
162 0.000329
163 0.000335
164 0.000306
165 0.000277
166 0.000265
167 0.000252
168 0.000251
169 0.000248
170 0.000262
171 0.000280
172 0.000344
173 0.000435
174 0.000513
175 0.000615
176 0.000661
177 0.000710
178 0.000754
179 0.000772
180 0.000866
181 0.000892
182 0.000881
183 0.000880
184 0.000883
185 0.000856
186 0.000818
187 0.000785
188 0.000774
189 0.000723
190 0.000693
191 0.000684
192 0.000754
193 0.000726
194 0.000680
195 0.000573
196 0.000494
197 0.000433
198 0.000416
199 0.000417
200 0.000401
201 0.000454
202 0.000523
203 0.000556
204 0.000562
205 0.000561
206 0.000481
207 0.000382
208 0.000315
209 0.000288
210 0.000255
211 0.000310
212 0.000301
213 0.000278
214 0.000233
215 0.000207
216 0.000180
217 0.000193
218 0.000141
219 0.000101
220 0.000070
221 0.000027
222 -0.000008
223 -0.000013
224 -0.000080
225 -0.000057
226 -0.000015
227 0.000042
228 0.000148
229 0.000253
230 0.000296
231 0.000235
232 0.000289
233 0.000299
234 0.000311
235 0.000358
236 0.000377
237 0.000337
238 0.000259
239 0.000232
240 0.000255
241 0.000239
242 0.000236
243 0.000243
244 0.000273
245 0.000333
246 0.000375
247 0.000403
248 0.000414
249 0.000415
250 0.000432
251 0.000488
252 0.000572
253 0.000639
254 0.000656
255 0.000631
256 0.000646
257 0.000608
258 0.000585
259 0.000509
260 0.000491
261 0.000441
262 0.000310
263 0.000236
264 0.000163
265 0.000065
266 -0.000016
267 -0.000082
268 -0.000089
269 -0.000014
270 0.000075
271 0.000159
272 0.000227
273 0.000282
274 0.000211
275 0.000165
276 0.000141
277 0.000146
278 0.000122
279 0.000118
280 0.000123
281 0.000097
282 0.000072
283 0.000030
284 -0.000030
285 -0.000070
286 -0.000053
287 -0.000020
288 0.000006
289 0.000064
290 0.000075
291 0.000101
292 0.000021
293 -0.000066
294 -0.000160
295 -0.000247
296 -0.000307
297 -0.000359
298 -0.000328
299 -0.000298
300 -0.000150
301 -0.000040
302 0.000100
303 0.000207
304 0.000293
305 0.000322
306 0.000333
307 0.000374
308 0.000379
309 0.000306
310 0.000229
311 0.000194
312 0.000190
313 0.000262
314 0.000301
315 0.000297
316 0.000281
317 0.000196
318 0.000136
319 0.000108
320 0.000085
321 0.000055
322 0.000051
323 0.000068
324 0.000053
325 0.000080
326 0.000159
327 0.000151
328 0.000175
329 0.000199
330 0.000202
331 0.000267
332 0.000327
333 0.000386
334 0.000388
335 0.000398
336 0.000319
337 0.000238
338 0.000168
339 0.000058
340 -0.000037
341 -0.000056
342 -0.000120
343 -0.000131
344 -0.000093
345 -0.000068
346 -0.000065
347 -0.000071
348 -0.000077
349 -0.000060
350 -0.000020
351 0.000029
352 0.000036
353 0.000031
354 0.000036
355 0.000073
356 0.000052
357 0.000099
358 0.000224
359 0.000310
360 0.000371
361 0.000415
362 0.000462
363 0.000500
364 0.000489
365 0.000451
366 0.000370
367 0.000268
368 0.000211
369 0.000175
370 0.000163
371 0.000146
372 0.000172
373 0.000218
374 0.000253
375 0.000388
376 0.000448
377 0.000508
378 0.000531
379 0.000580
380 0.000606
381 0.000623
382 0.000679
383 0.000711
384 0.000694
385 0.000639
386 0.000614
387 0.000602
388 0.000558
389 0.000494
390 0.000426
391 0.000372
392 0.000311
393 0.000335
394 0.000351
395 0.000323
396 0.000340
397 0.000304
398 0.000313
399 0.000271
400 0.000248
401 0.000314
402 0.000343
403 0.000369
404 0.000388
405 0.000351
406 0.000292
407 0.000215
408 0.000172
409 0.000168
410 0.000159
411 0.000125
412 0.000078
413 0.000041
414 0.000031
415 0.000050
416 0.000050
417 0.000101
418 0.000137
419 0.000175
420 0.000160
421 0.000160
422 0.000142
423 0.000062
424 -0.000033
425 -0.000093
426 -0.000076
427 -0.000062
428 -0.000016
429 0.000052
430 0.000122
431 0.000104
432 0.000130
433 0.000180
434 0.000229
435 0.000244
436 0.000247
437 0.000286
438 0.000312
439 0.000339
440 0.000344
441 0.000371
442 0.000379
443 0.000363
444 0.000364
445 0.000255
446 0.000209
447 0.000158
448 0.000196
449 0.000244
450 0.000319
451 0.000381
452 0.000397
453 0.000383
454 0.000280
455 0.000188
456 0.000106
457 0.000109
458 0.000158
459 0.000189
460 0.000221
461 0.000281
462 0.000322
463 0.000308
464 0.000257
465 0.000209
466 0.000171
467 0.000171
468 0.000142
469 0.000161
470 0.000097
471 0.000046
472 0.000007
473 -0.000007
474 -0.000022
475 -0.000014
476 -0.000032
477 -0.000089
478 -0.000151
479 -0.000171
480 -0.000218
481 -0.000232
482 -0.000254
483 -0.000258
484 -0.000309
485 -0.000325
486 -0.000290
487 -0.000255
488 -0.000155
489 -0.000099
490 -0.000026
491 0.000017
492 0.000068
493 0.000154
494 0.000216
495 0.000243
496 0.000235
497 0.000222
498 0.000243
499 0.000224
500 0.000233
501 0.000243
502 0.000236
503 0.000225
504 0.000215
505 0.000254
506 0.000327
507 0.000398
508 0.000468
509 0.000449
510 0.000425
511 0.000371
512 0.000325
513 0.000280
514 0.000210
515 0.000188
516 0.000187
517 0.000170
518 0.000191
519 0.000195
520 0.000136
521 0.000064
522 0.000010
523 0.000006
524 0.000045
525 0.000125
526 0.000139
527 0.000155
528 0.000145
529 0.000076
530 0.000020
531 -0.000057
532 -0.000107
533 -0.000110
534 -0.000103
535 -0.000124
536 -0.000097
537 -0.000025
538 -0.000000
539 0.000087
540 0.000165
541 0.000212
542 0.000250
543 0.000312
544 0.000395
545 0.000441
546 0.000520
547 0.000588
548 0.000663
549 0.000692
550 0.000632
551 0.000544
552 0.000463
553 0.000403
554 0.000354
555 0.000370
556 0.000394
557 0.000387
558 0.000379
559 0.000340
560 0.000311
561 0.000307
562 0.000279
563 0.000294
564 0.000320
565 0.000285
566 0.000260
567 0.000271
568 0.000282
569 0.000259
570 0.000164
571 0.000118
572 0.000076
573 0.000060
574 0.000129
575 0.000172
576 0.000179
577 0.000234
578 0.000299
579 0.000338
580 0.000427
581 0.000473
582 0.000467
583 0.000467
584 0.000533
585 0.000561
586 0.000575
587 0.000559
588 0.000501
589 0.000532
590 0.000558
591 0.000551
592 0.000560
593 0.000542
594 0.000527
595 0.000493
596 0.000450
597 0.000436
598 0.000463
599 0.000450
600 0.000375
601 0.000306
602 0.000213
603 0.000141
604 0.000128
605 0.000124
606 0.000091
607 0.000061
608 0.000055
609 0.000052
610 0.000058
611 0.000051
612 0.000045
613 0.000049
614 0.000086
615 0.000158
616 0.000220
617 0.000244
618 0.000267
619 0.000281
620 0.000294
621 0.000329
622 0.000361
623 0.000365
624 0.000342
625 0.000279
626 0.000242
627 0.000218
628 0.000273
629 0.000287
630 0.000307
631 0.000334
632 0.000329
633 0.000362
634 0.000419
635 0.000446
636 0.000503
637 0.000522
638 0.000520
639 0.000475
640 0.000428
641 0.000374
642 0.000312
643 0.000221
644 0.000168
645 0.000156
646 0.000122
647 0.000059
648 -0.000003
649 -0.000010
650 -0.000028
651 -0.000049
652 -0.000054
653 -0.000042
654 0.000005
655 0.000075
656 0.000092
657 0.000114
658 0.000094
659 0.000074
660 0.000049
661 0.000019
662 -0.000017
663 0.000002
664 0.000032
665 0.000071
666 0.000119
667 0.000162
668 0.000187
669 0.000192
670 0.000221
671 0.000250
672 0.000233
673 0.000211
674 0.000187
675 0.000182
676 0.000157
677 0.000139
678 0.000149
679 0.000158
680 0.000146
681 0.000096
682 0.000064
683 0.000008
684 0.000003
685 0.000008
686 0.000047
687 0.000091
688 0.000083
689 0.000056
690 0.000048
691 0.000003
692 -0.000037
693 -0.000093
694 -0.000127
695 -0.000157
696 -0.000170
697 -0.000194
698 -0.000202
699 -0.000248
700 -0.000291
701 -0.000310
702 -0.000320
703 -0.000335
704 -0.000303
705 -0.000266
706 -0.000234
707 -0.000192
708 -0.000190
709 -0.000180
710 -0.000167
711 -0.000168
712 -0.000181
713 -0.000212
714 -0.000245
715 -0.000250
716 -0.000239
717 -0.000227
718 -0.000208
719 -0.000186
720 -0.000185
721 -0.000129
722 -0.000098
723 -0.000060
724 -0.000043
725 -0.000061
726 -0.000100
727 -0.000120
728 -0.000138
729 -0.000154
730 -0.000104
731 -0.000070
732 -0.000034
733 -0.000007
734 -0.000021
735 -0.000004
736 -0.000016
737 -0.000054
738 -0.000077
739 -0.000079
740 -0.000077
741 -0.000026
742 0.000048
743 0.000071
744 0.000100
745 0.000098
746 0.000071
747 0.000052
748 0.000002
749 -0.000043
750 -0.000071
751 -0.000064
752 -0.000015
753 0.000046
754 0.000054
755 0.000054
756 0.000036
757 0.000025
758 0.000006
759 0.000009
760 -0.000004
761 -0.000014
762 -0.000022
763 -0.000042
764 -0.000069
765 -0.000066
766 -0.000081
767 -0.000078
768 -0.000086
769 -0.000126
770 -0.000156
771 -0.000153
772 -0.000151
773 -0.000141
774 -0.000124
775 -0.000093
776 -0.000041
777 0.000022
778 0.000058
779 0.000109
780 0.000123
781 0.000120
782 0.000107
783 0.000127
784 0.000148
785 0.000178
786 0.000213
787 0.000249
788 0.000281
789 0.000283
790 0.000269
791 0.000291
792 0.000332
793 0.000365
794 0.000383
795 0.000404
796 0.000437
797 0.000500
798 0.000557
799 0.000594
800 0.000609
801 0.000601
802 0.000598
803 0.000563
804 0.000523
805 0.000481
806 0.000436
807 0.000398
808 0.000379
809 0.000354
