# i correlation
1 0.005345
2 0.004710
3 0.004187
4 0.003740
5 0.003385
6 0.003109
7 0.002921
8 0.002799
9 0.002690
10 0.002544
11 0.002424
12 0.002275
13 0.002097
14 0.001913
15 0.001796
16 0.001720
17 0.001650
18 0.001654
19 0.001667
20 0.001613
21 0.001545
22 0.001501
23 0.001385
24 0.001353
25 0.001341
26 0.001339
27 0.001270
28 0.001248
29 0.001224
30 0.001233
31 0.001175
32 0.001123
33 0.001068
34 0.001064
35 0.001065
36 0.001103
37 0.001180
38 0.001217
39 0.001217
40 0.001261
41 0.001286
42 0.001278
43 0.001279
44 0.001207
45 0.001196
46 0.001155
47 0.001176
48 0.001201
49 0.001164
50 0.001091
51 0.001053
52 0.001069
53 0.001044
54 0.001015
55 0.000982
56 0.001003
57 0.000978
58 0.000915
59 0.000848
60 0.000819
61 0.000917
62 0.000974
63 0.000963
64 0.000930
65 0.000980
66 0.000984
67 0.000971
68 0.000977
69 0.000973
70 0.000991
71 0.001093
72 0.001238
73 0.001325
74 0.001290
75 0.001281
76 0.001200
77 0.001123
78 0.001099
79 0.001115
80 0.001121
81 0.001162
82 0.001227
83 0.001337
84 0.001430
85 0.001454
86 0.001493
87 0.001595
88 0.001583
89 0.001573
90 0.001612
91 0.001589
92 0.001499
93 0.001409
94 0.001324
95 0.001264
96 0.001207
97 0.001176
98 0.001140
99 0.001135
100 0.001173
101 0.001186
102 0.001159
103 0.001199
104 0.001164
105 0.001176
106 0.001196
107 0.001156
108 0.001087
109 0.001096
110 0.001068
111 0.001072
112 0.001084
113 0.001141
114 0.001270
115 0.001375
116 0.001402
117 0.001390
118 0.001457
119 0.001499
120 0.001559
121 0.001531
122 0.001493
123 0.001478
124 0.001470
125 0.001428
126 0.001400
127 0.001431
128 0.001451
129 0.001433
130 0.001427
131 0.001429
132 0.001336
133 0.001244
134 0.001104
135 0.000972
136 0.000855
137 0.000751
138 0.000694
139 0.000652
140 0.000667
141 0.000665
142 0.000543
143 0.000532
144 0.000501
145 0.000410
146 0.000388
147 0.000385
148 0.000506
149 0.000546
150 0.000625
151 0.000703
152 0.000807
153 0.000926
154 0.000960
155 0.000983
156 0.000994
157 0.001005
158 0.001042
159 0.001081
160 0.001067
161 0.001068
162 0.001113
163 0.001121
164 0.001064
165 0.001007
166 0.000940
167 0.000887
168 0.000870
169 0.000921
170 0.000985
171 0.001054
172 0.001122
173 0.001139
174 0.001155
175 0.001087
176 0.001072
177 0.001054
178 0.001094
179 0.001144
180 0.001148
181 0.001175
182 0.001119
183 0.001018
184 0.000960
185 0.000912
186 0.000935
187 0.000979
188 0.001006
189 0.001059
190 0.001138
191 0.001164
192 0.001189
193 0.001202
194 0.001164
195 0.001162
196 0.001142
197 0.001166
198 0.001262
199 0.001363
200 0.001438
201 0.001420
202 0.001372
203 0.001319
204 0.001256
205 0.001256
206 0.001238
207 0.001260
208 0.001258
209 0.001333
210 0.001404
211 0.001455
212 0.001483
213 0.001403
214 0.001349
215 0.001308
216 0.001273
217 0.001222
218 0.001170
219 0.001147
220 0.001142
221 0.001141
222 0.001109
223 0.001086
224 0.001080
225 0.001029
226 0.000995
227 0.001003
228 0.001031
229 0.001056
230 0.001100
231 0.001154
232 0.001090
233 0.001013
234 0.000987
235 0.000992
236 0.000981
237 0.000997
238 0.001006
239 0.000955
240 0.000919
241 0.000865
242 0.000810
243 0.000758
244 0.000763
245 0.000774
246 0.000789
247 0.000772
248 0.000760
249 0.000721
250 0.000716
251 0.000701
252 0.000710
253 0.000758
254 0.000821
255 0.000814
256 0.000814
257 0.000761
258 0.000648
259 0.000614
260 0.000595
261 0.000520
262 0.000435
263 0.000382
264 0.000308
265 0.000252
266 0.000228
267 0.000235
268 0.000282
269 0.000292
270 0.000321
271 0.000406
272 0.000490
273 0.000597
274 0.000627
275 0.000628
276 0.000639
277 0.000660
278 0.000669
279 0.000707
280 0.000732
281 0.000750
282 0.000849
283 0.000930
284 0.000977
285 0.000974
286 0.000927
287 0.000918
288 0.000912
289 0.000928
290 0.000889
291 0.000880
292 0.000887
293 0.000949
294 0.000935
295 0.000889
296 0.000876
297 0.000822
298 0.000746
299 0.000762
300 0.000762
301 0.000855
302 0.000942
303 0.000962
304 0.000981
305 0.000945
306 0.000885
307 0.000870
308 0.000913
309 0.000951
310 0.000963
311 0.000966
312 0.000967
313 0.001055
314 0.001114
315 0.001122
316 0.001069
317 0.001053
318 0.001049
319 0.001053
320 0.001081
321 0.001112
322 0.001131
323 0.001129
324 0.001099
325 0.001144
326 0.001157
327 0.001187
328 0.001210
329 0.001302
330 0.001283
331 0.001257
332 0.001217
333 0.001133
334 0.001113
335 0.001063
336 0.000990
337 0.000895
338 0.000847
339 0.000818
340 0.000834
341 0.000864
342 0.000825
343 0.000791
344 0.000772
345 0.000802
346 0.000745
347 0.000691
348 0.000594
349 0.000546
350 0.000504
351 0.000472
352 0.000425
353 0.000385
354 0.000385
355 0.000424
356 0.000444
357 0.000486
358 0.000509
359 0.000547
360 0.000615
361 0.000627
362 0.000663
363 0.000706
364 0.000737
365 0.000725
366 0.000723
367 0.000694
368 0.000677
369 0.000704
370 0.000713
371 0.000815
372 0.000892
373 0.000861
374 0.000850
375 0.000788
376 0.000757
377 0.000731
378 0.000675
379 0.000682
380 0.000675
381 0.000674
382 0.000656
383 0.000687
384 0.000695
385 0.000687
386 0.000726
387 0.000754
388 0.000746
389 0.000749
390 0.000773
391 0.000789
392 0.000840
393 0.000863
394 0.000843
395 0.000780
396 0.000775
397 0.000771
398 0.000790
399 0.000798
400 0.000862
401 0.000950
402 0.001057
403 0.001136
404 0.001156
405 0.001131
406 0.001080
407 0.001090
408 0.001166
409 0.001269
410 0.001331
411 0.001381
412 0.001392
413 0.001347
414 0.001293
415 0.001181
416 0.001080
417 0.000970
418 0.000863
419 0.000804
420 0.000754
421 0.000755
422 0.000774
423 0.000736
424 0.000727
425 0.000706
426 0.000683
427 0.000659
428 0.000701
429 0.000721
430 0.000761
431 0.000750
432 0.000833
433 0.000878
434 0.000904
435 0.000904
436 0.000873
437 0.000843
438 0.000724
439 0.000622
440 0.000553
441 0.000544
442 0.000539
443 0.000504
444 0.000551
445 0.000622
446 0.000638
447 0.000613
448 0.000522
449 0.000484
450 0.000435
451 0.000385
452 0.000427
453 0.000445
454 0.000480
455 0.000529
456 0.000555
457 0.000562
458 0.000567
459 0.000576
460 0.000565
461 0.000579
462 0.000603
463 0.000607
464 0.000624
465 0.000623
466 0.000644
467 0.000649
468 0.000601
469 0.000570
470 0.000532
471 0.000520
472 0.000503
473 0.000521
474 0.000529
475 0.000581
476 0.000614
477 0.000662
478 0.000665
479 0.000654
480 0.000666
481 0.000645
482 0.000687
483 0.000748
484 0.000783
485 0.000781
486 0.000786
487 0.000760
488 0.000729
489 0.000709
490 0.000667
491 0.000607
492 0.000576
493 0.000572
494 0.000582
495 0.000585
496 0.000498
497 0.000449
498 0.000476
499 0.000505
500 0.000519
501 0.000566
502 0.000558
503 0.000548
504 0.000519
505 0.000477
506 0.000440
507 0.000458
508 0.000462
509 0.000421
510 0.000403
511 0.000354
512 0.000351
513 0.000337
514 0.000364
515 0.000350
516 0.000417
517 0.000484
518 0.000543
519 0.000629
520 0.000719
521 0.000744
522 0.000693
523 0.000706
524 0.000756
525 0.000816
526 0.000787
527 0.000818
528 0.000850
529 0.000843
530 0.000817
531 0.000787
532 0.000780
533 0.000732
534 0.000664
535 0.000585
536 0.000550
537 0.000485
538 0.000430
539 0.000400
540 0.000349
541 0.000297
542 0.000262
543 0.000187
544 0.000121
545 0.000032
546 -0.000039
547 -0.000133
548 -0.000236
549 -0.000286
550 -0.000273
551 -0.000305
552 -0.000302
553 -0.000313
554 -0.000351
555 -0.000299
556 -0.000282
557 -0.000269
558 -0.000274
559 -0.000288
560 -0.000290
561 -0.000244
562 -0.000208
563 -0.000167
564 -0.000152
565 -0.000133
566 -0.000118
567 -0.000120
568 -0.000111
569 -0.000110
570 -0.000130
571 -0.000129
572 -0.000094
573 -0.000038
574 -0.000027
575 -0.000034
576 -0.000013
577 -0.000056
578 -0.000104
579 -0.000147
580 -0.000171
581 -0.000202
582 -0.000205
583 -0.000197
584 -0.000168
585 -0.000118
586 -0.000073
587 -0.000054
588 -0.000032
589 0.000005
590 0.000065
591 0.000079
592 0.000085
593 0.000133
594 0.000103
595 0.000137
596 0.000123
597 0.000121
598 0.000139
599 0.000109
600 0.000124
601 0.000169
602 0.000216
603 0.000280
604 0.000349
605 0.000386
606 0.000368
607 0.000355
608 0.000365
609 0.000394
610 0.000425
611 0.000468
612 0.000483
613 0.000488
614 0.000499
615 0.000523
616 0.000549
617 0.000587
618 0.000574
619 0.000538
620 0.000503
621 0.000484
622 0.000468
623 0.000496
624 0.000526
625 0.000542
626 0.000545
627 0.000540
628 0.000532
629 0.000473
630 0.000440
631 0.000413
632 0.000377
633 0.000371
634 0.000351
635 0.000308
636 0.000268
637 0.000208
638 0.000145
639 0.000133
640 0.000138
641 0.000138
642 0.000140
643 0.000132
644 0.000132
645 0.000157
646 0.000168
647 0.000185
648 0.000184
649 0.000152
650 0.000110
651 0.000096
652 0.000115
653 0.000123
654 0.000114
655 0.000091
656 0.000131
657 0.000145
658 0.000164
659 0.000173
660 0.000170
661 0.000142
662 0.000093
663 0.000061
664 0.000037
665 0.000006
666 -0.000018
667 -0.000069
668 -0.000110
669 -0.000116
670 -0.000095
671 -0.000122
672 -0.000128
673 -0.000155
674 -0.000179
675 -0.000195
676 -0.000176
677 -0.000145
678 -0.000111
679 -0.000090
680 -0.000058
681 -0.000020
682 0.000022
683 0.000030
684 0.000023
685 0.000030
686 0.000053
687 0.000048
688 0.000064
689 0.000096
690 0.000158
691 0.000206
692 0.000259
693 0.000326
694 0.000372
695 0.000430
696 0.000471
697 0.000470
698 0.000487
699 0.000483
700 0.000461
701 0.000431
702 0.000385
703 0.000346
704 0.000346
705 0.000321
706 0.000315
707 0.000287
708 0.000251
709 0.000206
710 0.000143
711 0.000100
712 0.000085
713 0.000091
714 0.000129
715 0.000182
716 0.000231
717 0.000291
718 0.000343
719 0.000388
720 0.000387
721 0.000382
722 0.000338
723 0.000307
724 0.000269
725 0.000220
726 0.000187
727 0.000139
728 0.000090
729 0.000064
730 0.000083
731 0.000132
732 0.000167
733 0.000175
734 0.000175
735 0.000159
736 0.000130
737 0.000112
738 0.000109
739 0.000103
740 0.000087
741 0.000109
742 0.000143
743 0.000214
744 0.000261
745 0.000314
746 0.000343
747 0.000339
748 0.000326
749 0.000298
750 0.000255
751 0.000258
752 0.000231
753 0.000198
754 0.000197
755 0.000217
756 0.000230
757 0.000241
758 0.000236
759 0.000222
760 0.000189
761 0.000139
762 0.000080
763 0.000031
764 -0.000003
765 -0.000045
766 -0.000076
767 -0.000087
768 -0.000109
769 -0.000133
770 -0.000131
771 -0.000114
772 -0.000102
773 -0.000093
774 -0.000079
775 -0.000055
776 -0.000053
777 -0.000038
778 -0.000041
779 -0.000027
780 -0.000022
781 0.000011
782 0.000027
783 0.000052
784 0.000103
785 0.000140
786 0.000155
787 0.000138
788 0.000111
789 0.000056
790 0.000039
791 0.000058
792 0.000080
793 0.000111
794 0.000122
795 0.000114
796 0.000128
797 0.000124
798 0.000117
799 0.000103
800 0.000109
801 0.000109
802 0.000119
803 0.000154
804 0.000196
805 0.000227
806 0.000251
807 0.000280
808 0.000275
809 0.000285
