# i correlation
1 0.004891
2 0.004288
3 0.003823
4 0.003330
5 0.002972
6 0.002633
7 0.002244
8 0.002026
9 0.001957
10 0.001913
11 0.001905
12 0.001892
13 0.001823
14 0.001875
15 0.001880
16 0.001837
17 0.001740
18 0.001636
19 0.001624
20 0.001592
21 0.001638
22 0.001596
23 0.001516
24 0.001529
25 0.001506
26 0.001513
27 0.001409
28 0.001325
29 0.001212
30 0.001086
31 0.000981
32 0.000854
33 0.000744
34 0.000701
35 0.000721
36 0.000794
37 0.000797
38 0.000785
39 0.000690
40 0.000681
41 0.000670
42 0.000730
43 0.000782
44 0.000779
45 0.000809
46 0.000836
47 0.000826
48 0.000818
49 0.000771
50 0.000736
51 0.000729
52 0.000664
53 0.000600
54 0.000621
55 0.000555
56 0.000444
57 0.000455
58 0.000395
59 0.000364
60 0.000405
61 0.000412
62 0.000496
63 0.000581
64 0.000681
65 0.000753
66 0.000713
67 0.000648
68 0.000695
69 0.000712
70 0.000680
71 0.000709
72 0.000661
73 0.000688
74 0.000737
75 0.000708
76 0.000635
77 0.000624
78 0.000525
79 0.000545
80 0.000541
81 0.000517
82 0.000532
83 0.000501
84 0.000491
85 0.000431
86 0.000422
87 0.000474
88 0.000547
89 0.000682
90 0.000761
91 0.000766
92 0.000808
93 0.000896
94 0.000929
95 0.000884
96 0.000878
97 0.000889
98 0.000875
99 0.000953
100 0.000992
101 0.001057
102 0.001170
103 0.001267
104 0.001306
105 0.001404
106 0.001400
107 0.001394
108 0.001427
109 0.001429
110 0.001396
111 0.001328
112 0.001214
113 0.001188
114 0.001159
115 0.001137
116 0.001157
117 0.001176
118 0.001169
119 0.001202
120 0.001216
121 0.001185
122 0.001142
123 0.001080
124 0.001057
125 0.001076
126 0.001108
127 0.001075
128 0.001120
129 0.001062
130 0.000976
131 0.000968
132 0.000974
133 0.000966
134 0.000940
135 0.000910
136 0.000809
137 0.000750
138 0.000701
139 0.000675
140 0.000572
141 0.000536
142 0.000561
143 0.000587
144 0.000621
145 0.000679
146 0.000594
147 0.000608
148 0.000648
149 0.000553
150 0.000506
151 0.000448
152 0.000448
153 0.000463
154 0.000517
155 0.000553
156 0.000632
157 0.000678
158 0.000674
159 0.000671
160 0.000608
161 0.000551
162 0.000532
163 0.000567
164 0.000622
165 0.000615
166 0.000633
167 0.000616
168 0.000607
169 0.000649
170 0.000721
171 0.000819
172 0.000837
173 0.000890
174 0.000891
175 0.000866
176 0.000909
177 0.000854
178 0.000852
179 0.000844
180 0.000919
181 0.000986
182 0.001002
183 0.000989
184 0.000973
185 0.001014
186 0.001051
187 0.001023
188 0.000957
189 0.000896
190 0.000904
191 0.000863
192 0.000903
193 0.000882
194 0.000821
195 0.000730
196 0.000656
197 0.000561
198 0.000429
199 0.000378
200 0.000306
201 0.000296
202 0.000349
203 0.000309
204 0.000315
205 0.000321
206 0.000369
207 0.000556
208 0.000716
209 0.000772
210 0.000898
211 0.000968
212 0.000969
213 0.001027
214 0.001056
215 0.000992
216 0.001021
217 0.000982
218 0.000991
219 0.000948
220 0.000909
221 0.000895
222 0.000914
223 0.000880
224 0.000865
225 0.000858
226 0.000818
227 0.000866
228 0.000909
229 0.000975
230 0.000990
231 0.000921
232 0.000924
233 0.000899
234 0.000833
235 0.000811
236 0.000824
237 0.000852
238 0.000898
239 0.000841
240 0.000780
241 0.000737
242 0.000664
243 0.000500
244 0.000447
245 0.000382
246 0.000322
247 0.000360
248 0.000359
249 0.000353
250 0.000388
251 0.000414
252 0.000389
253 0.000426
254 0.000405
255 0.000398
256 0.000393
257 0.000365
258 0.000321
259 0.000303
260 0.000274
261 0.000314
262 0.000337
263 0.000324
264 0.000272
265 0.000255
266 0.000220
267 0.000168
268 0.000119
269 0.000069
270 0.000058
271 0.000059
272 0.000095
273 0.000133
274 0.000175
275 0.000208
276 0.000300
277 0.000321
278 0.000322
279 0.000346
280 0.000287
281 0.000255
282 0.000314
283 0.000343
284 0.000424
285 0.000416
286 0.000483
287 0.000572
288 0.000596
289 0.000639
290 0.000708
291 0.000712
292 0.000684
293 0.000616
294 0.000455
295 0.000378
296 0.000275
297 0.000235
298 0.000248
299 0.000177
300 0.000166
301 0.000207
302 0.000273
303 0.000318
304 0.000392
305 0.000390
306 0.000392
307 0.000423
308 0.000393
309 0.000365
310 0.000337
311 0.000264
312 0.000255
313 0.000269
314 0.000234
315 0.000243
316 0.000294
317 0.000327
318 0.000390
319 0.000539
320 0.000561
321 0.000583
322 0.000575
323 0.000478
324 0.000394
325 0.000304
326 0.000229
327 0.000195
328 0.000179
329 0.000206
330 0.000258
331 0.000306
332 0.000363
333 0.000459
334 0.000533
335 0.000581
336 0.000549
337 0.000471
338 0.000427
339 0.000378
340 0.000332
341 0.000286
342 0.000265
343 0.000275
344 0.000323
345 0.000369
346 0.000416
347 0.000394
348 0.000366
349 0.000310
350 0.000276
351 0.000221
352 0.000150
353 0.000142
354 0.000085
355 0.000091
356 0.000174
357 0.000263
358 0.000362
359 0.000423
360 0.000426
361 0.000494
362 0.000569
363 0.000606
364 0.000615
365 0.000620
366 0.000649
367 0.000662
368 0.000641
369 0.000568
370 0.000519
371 0.000388
372 0.000351
373 0.000327
374 0.000290
375 0.000281
376 0.000280
377 0.000366
378 0.000382
379 0.000474
380 0.000524
381 0.000589
382 0.000666
383 0.000705
384 0.000730
385 0.000700
386 0.000665
387 0.000637
388 0.000582
389 0.000549
390 0.000471
391 0.000391
392 0.000376
393 0.000413
394 0.000518
395 0.000566
396 0.000647
397 0.000657
398 0.000697
399 0.000736
400 0.000752
401 0.000732
402 0.000624
403 0.000624
404 0.000641
405 0.000642
406 0.000562
407 0.000439
408 0.000380
409 0.000376
410 0.000415
411 0.000444
412 0.000406
413 0.000349
414 0.000322
415 0.000325
416 0.000225
417 0.000148
418 0.000095
419 0.000047
420 0.000008
421 0.000007
422 -0.000002
423 -0.000029
424 0.000005
425 0.000018
426 0.000062
427 0.000097
428 0.000062
429 0.000077
430 0.000131
431 0.000144
432 0.000174
433 0.000151
434 0.000126
435 0.000114
436 0.000125
437 0.000157
438 0.000150
439 0.000145
440 0.000156
441 0.000165
442 0.000167
443 0.000212
444 0.000182
445 0.000182
446 0.000197
447 0.000278
448 0.000313
449 0.000305
450 0.000279
451 0.000290
452 0.000335
453 0.000334
454 0.000311
455 0.000291
456 0.000242
457 0.000189
458 0.000201
459 0.000172
460 0.000147
461 0.000138
462 0.000079
463 0.000080
464 0.000127
465 0.000125
466 0.000181
467 0.000183
468 0.000175
469 0.000215
470 0.000217
471 0.000205
472 0.000161
473 0.000055
474 -0.000004
475 -0.000031
476 -0.000018
477 -0.000010
478 0.000050
479 0.000112
480 0.000113
481 0.000050
482 -0.000021
483 -0.000016
484 -0.000050
485 -0.000090
486 -0.000117
487 -0.000119
488 -0.000136
489 -0.000130
490 -0.000081
491 -0.000037
492 0.000043
493 0.000088
494 0.000115
495 0.000115
496 0.000089
497 0.000052
498 0.000104
499 0.000098
500 0.000136
501 0.000236
502 0.000315
503 0.000361
504 0.000409
505 0.000401
506 0.000370
507 0.000313
508 0.000253
509 0.000183
510 0.000118
511 0.000068
512 0.000041
513 0.000028
514 0.000086
515 0.000111
516 0.000130
517 0.000099
518 0.000036
519 0.000000
520 0.000043
521 0.000054
522 0.000045
523 0.000046
524 0.000061
525 0.000035
526 0.000042
527 0.000073
528 0.000085
529 0.000132
530 0.000115
531 0.000114
532 0.000090
533 0.000052
534 0.000019
535 -0.000023
536 -0.000051
537 -0.000058
538 -0.000076
539 -0.000074
540 -0.000018
541 0.000002
542 -0.000012
543 0.000015
544 0.000006
545 0.000016
546 0.000021
547 -0.000009
548 0.000020
549 0.000059
550 0.000095
551 0.000111
552 0.000185
553 0.000231
554 0.000239
555 0.000239
556 0.000183
557 0.000117
558 0.000072
559 0.000004
560 -0.000005
561 -0.000066
562 -0.000161
563 -0.000202
564 -0.000245
565 -0.000220
566 -0.000181
567 -0.000168
568 -0.000158
569 -0.000099
570 -0.000091
571 -0.000089
572 -0.000063
573 -0.000098
574 -0.000081
575 -0.000021
576 -0.000012
577 -0.000008
578 -0.000047
579 -0.000060
580 -0.000030
581 -0.000037
582 -0.000093
583 -0.000176
584 -0.000220
585 -0.000228
586 -0.000202
587 -0.000238
588 -0.000279
589 -0.000307
590 -0.000292
591 -0.000230
592 -0.000215
593 -0.000225
594 -0.000218
595 -0.000124
596 -0.000039
597 0.000043
598 0.000059
599 0.000001
600 -0.000023
601 -0.000046
602 -0.000096
603 -0.000109
604 -0.000129
605 -0.000130
606 -0.000117
607 -0.000094
608 -0.000077
609 -0.000070
610 -0.000079
611 -0.000050
612 -0.000020
613 0.000008
614 0.000049
615 0.000088
616 0.000127
617 0.000198
618 0.000250
619 0.000328
620 0.000365
621 0.000383
622 0.000400
623 0.000439
624 0.000438
625 0.000426
626 0.000416
627 0.000377
628 0.000293
629 0.000259
630 0.000228
631 0.000180
632 0.000158
633 0.000137
634 0.000143
635 0.000144
636 0.000162
637 0.000155
638 0.000127
639 0.000105
640 0.000112
641 0.000121
642 0.000160
643 0.000160
644 0.000116
645 0.000077
646 0.000020
647 -0.000054
648 -0.000102
649 -0.000106
650 -0.000148
651 -0.000168
652 -0.000206
653 -0.000251
654 -0.000253
655 -0.000248
656 -0.000259
657 -0.000268
658 -0.000284
659 -0.000261
660 -0.000255
661 -0.000249
662 -0.000270
663 -0.000299
664 -0.000326
665 -0.000316
666 -0.000293
667 -0.000300
668 -0.000276
669 -0.000237
670 -0.000251
671 -0.000271
672 -0.000251
673 -0.000269
674 -0.000294
675 -0.000341
676 -0.000382
677 -0.000403
678 -0.000401
679 -0.000385
680 -0.000351
681 -0.000349
682 -0.000348
683 -0.000339
684 -0.000309
685 -0.000264
686 -0.000238
687 -0.000215
688 -0.000174
689 -0.000162
690 -0.000167
691 -0.000208
692 -0.000278
693 -0.000329
694 -0.000349
695 -0.000386
696 -0.000390
697 -0.000421
698 -0.000442
699 -0.000444
700 -0.000440
701 -0.000436
702 -0.000456
703 -0.000481
704 -0.000492
705 -0.000489
706 -0.000490
707 -0.000476
708 -0.000424
709 -0.000381
710 -0.000361
711 -0.000350
712 -0.000311
713 -0.000236
714 -0.000183
715 -0.000170
716 -0.000125
717 -0.000122
718 -0.000103
719 -0.000053
720 -0.000037
721 -0.000033
722 -0.000028
723 0.000015
724 0.000056
725 0.000059
726 0.000052
727 0.000030
728 0.000025
729 0.000043
730 0.000101
731 0.000176
732 0.000226
733 0.000259
734 0.000322
735 0.000365
736 0.000387
737 0.000398
738 0.000400
739 0.000413
740 0.000418
741 0.000401
742 0.000378
743 0.000383
744 0.000382
745 0.000428
746 0.000442
747 0.000413
748 0.000392
749 0.000366
750 0.000341
751 0.000295
752 0.000232
753 0.000196
754 0.000139
755 0.000094
756 0.000097
757 0.000093
758 0.000114
759 0.000168
760 0.000188
761 0.000234
762 0.000280
763 0.000277
764 0.000269
765 0.000259
766 0.000241
767 0.000255
768 0.000263
769 0.000257
770 0.000248
771 0.000254
772 0.000227
773 0.000230
774 0.000212
775 0.000178
776 0.000145
777 0.000148
778 0.000143
779 0.000112
780 0.000045
781 -0.000004
782 -0.000004
783 -0.000004
784 -0.000044
785 -0.000069
786 -0.000109
787 -0.000115
788 -0.000073
789 -0.000063
790 -0.000062
791 -0.000075
792 -0.000098
793 -0.000066
794 -0.000052
795 -0.000087
796 -0.000113
797 -0.000128
798 -0.000150
799 -0.000132
800 -0.000125
801 -0.000156
802 -0.000165
803 -0.000171
804 -0.000172
805 -0.000169
806 -0.000200
807 -0.000217
808 -0.000232
809 -0.000236
