# i correlation
1 0.006225
2 0.005523
3 0.004933
4 0.004484
5 0.004044
6 0.003697
7 0.003371
8 0.003177
9 0.002966
10 0.002640
11 0.002303
12 0.002059
13 0.001826
14 0.001683
15 0.001495
16 0.001356
17 0.001201
18 0.001160
19 0.001165
20 0.001081
21 0.000987
22 0.000999
23 0.001057
24 0.001105
25 0.001193
26 0.001250
27 0.001223
28 0.001235
29 0.001288
30 0.001375
31 0.001478
32 0.001576
33 0.001656
34 0.001743
35 0.001722
36 0.001720
37 0.001699
38 0.001761
39 0.001701
40 0.001638
41 0.001546
42 0.001433
43 0.001325
44 0.001251
45 0.001228
46 0.001229
47 0.001270
48 0.001201
49 0.001127
50 0.001110
51 0.001018
52 0.000947
53 0.000855
54 0.000807
55 0.000745
56 0.000698
57 0.000584
58 0.000501
59 0.000532
60 0.000543
61 0.000555
62 0.000562
63 0.000676
64 0.000802
65 0.000912
66 0.000967
67 0.000930
68 0.000955
69 0.001010
70 0.001075
71 0.001158
72 0.001252
73 0.001414
74 0.001561
75 0.001628
76 0.001639
77 0.001668
78 0.001690
79 0.001667
80 0.001600
81 0.001498
82 0.001414
83 0.001452
84 0.001503
85 0.001566
86 0.001533
87 0.001537
88 0.001545
89 0.001517
90 0.001415
91 0.001292
92 0.001162
93 0.001111
94 0.001073
95 0.001008
96 0.000909
97 0.000832
98 0.000777
99 0.000700
100 0.000621
101 0.000546
102 0.000492
103 0.000401
104 0.000221
105 0.000097
106 0.000040
107 0.000037
108 0.000074
109 0.000178
110 0.000250
111 0.000346
112 0.000374
113 0.000421
114 0.000461
115 0.000494
116 0.000481
117 0.000496
118 0.000541
119 0.000637
120 0.000706
121 0.000817
122 0.000886
123 0.000936
124 0.000980
125 0.001001
126 0.000901
127 0.000790
128 0.000689
129 0.000609
130 0.000528
131 0.000456
132 0.000394
133 0.000397
134 0.000365
135 0.000271
136 0.000182
137 0.000129
138 0.000158
139 0.000229
140 0.000328
141 0.000403
142 0.000438
143 0.000407
144 0.000402
145 0.000366
146 0.000400
147 0.000431
148 0.000451
149 0.000555
150 0.000658
151 0.000668
152 0.000725
153 0.000750
154 0.000857
155 0.000934
156 0.001078
157 0.001212
158 0.001384
159 0.001498
160 0.001531
161 0.001548
162 0.001612
163 0.001699
164 0.001745
165 0.001808
166 0.001809
167 0.001760
168 0.001658
169 0.001510
170 0.001335
171 0.001221
172 0.001225
173 0.001194
174 0.001169
175 0.001183
176 0.001083
177 0.001007
178 0.000918
179 0.000817
180 0.000732
181 0.000722
182 0.000669
183 0.000539
184 0.000432
185 0.000379
186 0.000347
187 0.000328
188 0.000385
189 0.000447
190 0.000541
191 0.000532
192 0.000497
193 0.000500
194 0.000479
195 0.000411
196 0.000396
197 0.000445
198 0.000473
199 0.000484
200 0.000477
201 0.000490
202 0.000494
203 0.000437
204 0.000435
205 0.000501
206 0.000508
207 0.000479
208 0.000523
209 0.000559
210 0.000584
211 0.000575
212 0.000585
213 0.000599
214 0.000632
215 0.000699
216 0.000817
217 0.000839
218 0.000828
219 0.000808
220 0.000807
221 0.000777
222 0.000757
223 0.000716
224 0.000691
225 0.000614
226 0.000509
227 0.000479
228 0.000479
229 0.000523
230 0.000565
231 0.000672
232 0.000742
233 0.000805
234 0.000860
235 0.000951
236 0.001015
237 0.001055
238 0.001033
239 0.001022
240 0.001042
241 0.001094
242 0.001149
243 0.001184
244 0.001157
245 0.001092
246 0.001010
247 0.000972
248 0.000935
249 0.000899
250 0.000891
251 0.000875
252 0.000896
253 0.000968
254 0.001011
255 0.001048
256 0.001048
257 0.001012
258 0.000958
259 0.000883
260 0.000800
261 0.000798
262 0.000781
263 0.000818
264 0.000804
265 0.000860
266 0.000886
267 0.000940
268 0.000973
269 0.000965
270 0.000923
271 0.000879
272 0.000797
273 0.000782
274 0.000746
275 0.000799
276 0.000855
277 0.000971
278 0.001030
279 0.001057
280 0.001051
281 0.001052
282 0.001048
283 0.001082
284 0.001073
285 0.001000
286 0.000947
287 0.000924
288 0.000873
289 0.000845
290 0.000847
291 0.000828
292 0.000811
293 0.000754
294 0.000724
295 0.000667
296 0.000682
297 0.000710
298 0.000690
299 0.000662
300 0.000644
301 0.000653
302 0.000746
303 0.000913
304 0.001049
305 0.001185
306 0.001337
307 0.001436
308 0.001489
309 0.001501
310 0.001469
311 0.001478
312 0.001501
313 0.001501
314 0.001505
315 0.001558
316 0.001586
317 0.001588
318 0.001533
319 0.001487
320 0.001434
321 0.001468
322 0.001477
323 0.001450
324 0.001415
325 0.001374
326 0.001327
327 0.001284
328 0.001285
329 0.001247
330 0.001322
331 0.001399
332 0.001443
333 0.001382
334 0.001318
335 0.001257
336 0.001143
337 0.001044
338 0.001014
339 0.000980
340 0.000945
341 0.000909
342 0.000863
343 0.000801
344 0.000776
345 0.000623
346 0.000550
347 0.000532
348 0.000501
349 0.000460
350 0.000484
351 0.000534
352 0.000590
353 0.000640
354 0.000665
355 0.000653
356 0.000656
357 0.000665
358 0.000655
359 0.000563
360 0.000492
361 0.000435
362 0.000440
363 0.000397
364 0.000395
365 0.000377
366 0.000381
367 0.000372
368 0.000351
369 0.000290
370 0.000279
371 0.000296
372 0.000302
373 0.000289
374 0.000269
375 0.000288
376 0.000333
377 0.000416
378 0.000469
379 0.000484
380 0.000544
381 0.000624
382 0.000708
383 0.000773
384 0.000769
385 0.000751
386 0.000790
387 0.000835
388 0.000789
389 0.000728
390 0.000655
391 0.000666
392 0.000692
393 0.000683
394 0.000689
395 0.000696
396 0.000709
397 0.000645
398 0.000592
399 0.000537
400 0.000519
401 0.000520
402 0.000516
403 0.000510
404 0.000536
405 0.000601
406 0.000651
407 0.000673
408 0.000630
409 0.000570
410 0.000455
411 0.000419
412 0.000394
413 0.000384
414 0.000359
415 0.000393
416 0.000400
417 0.000475
418 0.000460
419 0.000439
420 0.000398
421 0.000342
422 0.000278
423 0.000262
424 0.000230
425 0.000238
426 0.000239
427 0.000284
428 0.000342
429 0.000375
430 0.000409
431 0.000480
432 0.000531
433 0.000574
434 0.000560
435 0.000517
436 0.000532
437 0.000562
438 0.000597
439 0.000565
440 0.000469
441 0.000372
442 0.000246
443 0.000172
444 0.000030
445 -0.000030
446 -0.000098
447 -0.000121
448 -0.000203
449 -0.000282
450 -0.000380
451 -0.000405
452 -0.000400
453 -0.000337
454 -0.000335
455 -0.000282
456 -0.000224
457 -0.000116
458 -0.000071
459 -0.000013
460 0.000008
461 0.000086
462 0.000113
463 0.000152
464 0.000227
465 0.000323
466 0.000399
467 0.000497
468 0.000527
469 0.000555
470 0.000655
471 0.000812
472 0.000923
473 0.000988
474 0.000972
475 0.000978
476 0.000948
477 0.000905
478 0.000833
479 0.000812
480 0.000760
481 0.000691
482 0.000596
483 0.000573
484 0.000591
485 0.000593
486 0.000580
487 0.000546
488 0.000491
489 0.000476
490 0.000473
491 0.000477
492 0.000493
493 0.000515
494 0.000558
495 0.000619
496 0.000720
497 0.000799
498 0.000890
499 0.000896
500 0.000876
501 0.000842
502 0.000895
503 0.000921
504 0.000972
505 0.001021
506 0.001048
507 0.001042
508 0.001009
509 0.000940
510 0.000851
511 0.000795
512 0.000725
513 0.000718
514 0.000715
515 0.000648
516 0.000623
517 0.000566
518 0.000479
519 0.000361
520 0.000284
521 0.000249
522 0.000278
523 0.000301
524 0.000311
525 0.000363
526 0.000393
527 0.000408
528 0.000414
529 0.000472
530 0.000554
531 0.000633
532 0.000650
533 0.000664
534 0.000683
535 0.000641
536 0.000623
537 0.000615
538 0.000585
539 0.000557
540 0.000582
541 0.000588
542 0.000593
543 0.000585
544 0.000570
545 0.000628
546 0.000697
547 0.000744
548 0.000835
549 0.000890
550 0.000946
551 0.000965
552 0.000993
553 0.000997
554 0.000991
555 0.000971
556 0.000973
557 0.001003
558 0.001032
559 0.001101
560 0.001143
561 0.001199
562 0.001242
563 0.001298
564 0.001310
565 0.001232
566 0.001125
567 0.001081
568 0.001049
569 0.001022
570 0.000991
571 0.000990
572 0.001019
573 0.001041
574 0.000996
575 0.000916
576 0.000839
577 0.000779
578 0.000736
579 0.000701
580 0.000698
581 0.000738
582 0.000782
583 0.000812
584 0.000802
585 0.000795
586 0.000842
587 0.000908
588 0.000957
589 0.000984
590 0.001015
591 0.001015
592 0.001023
593 0.001063
594 0.001108
595 0.001162
596 0.001187
597 0.001225
598 0.001252
599 0.001246
600 0.001195
601 0.001097
602 0.000996
603 0.000910
604 0.000781
605 0.000689
606 0.000598
607 0.000553
608 0.000502
609 0.000467
610 0.000396
611 0.000364
612 0.000295
613 0.000250
614 0.000203
615 0.000158
616 0.000135
617 0.000118
618 0.000124
619 0.000166
620 0.000218
621 0.000233
622 0.000276
623 0.000286
624 0.000295
625 0.000366
626 0.000391
627 0.000442
628 0.000503
629 0.000570
630 0.000642
631 0.000706
632 0.000726
633 0.000731
634 0.000733
635 0.000762
636 0.000839
637 0.000913
638 0.000965
639 0.000972
640 0.000936
641 0.000886
642 0.000836
643 0.000756
644 0.000721
645 0.000685
646 0.000652
647 0.000648
648 0.000686
649 0.000681
650 0.000663
651 0.000582
652 0.000516
653 0.000429
654 0.000382
655 0.000340
656 0.000322
657 0.000302
658 0.000282
659 0.000274
660 0.000303
661 0.000387
662 0.000436
663 0.000508
664 0.000557
665 0.000582
666 0.000549
667 0.000519
668 0.000483
669 0.000511
670 0.000568
671 0.000591
672 0.000668
673 0.000744
674 0.000797
675 0.000796
676 0.000762
677 0.000708
678 0.000635
679 0.000547
680 0.000456
681 0.000418
682 0.000409
683 0.000413
684 0.000401
685 0.000357
686 0.000334
687 0.000263
688 0.000253
689 0.000217
690 0.000188
691 0.000152
692 0.000164
693 0.000139
694 0.000113
695 0.000129
696 0.000162
697 0.000162
698 0.000144
699 0.000102
700 0.000068
701 0.000058
702 0.000065
703 0.000085
704 0.000127
705 0.000148
706 0.000181
707 0.000219
708 0.000292
709 0.000312
710 0.000363
711 0.000422
712 0.000428
713 0.000444
714 0.000506
715 0.000560
716 0.000573
717 0.000546
718 0.000522
719 0.000523
720 0.000534
721 0.000533
722 0.000546
723 0.000525
724 0.000502
725 0.000432
726 0.000365
727 0.000296
728 0.000243
729 0.000181
730 0.000161
731 0.000087
732 0.000005
733 -0.000055
734 -0.000108
735 -0.000129
736 -0.000134
737 -0.000171
738 -0.000130
739 -0.000084
740 -0.000038
741 -0.000043
742 -0.000033
743 -0.000037
744 -0.000012
745 0.000025
746 0.000072
747 0.000129
748 0.000182
749 0.000236
750 0.000287
751 0.000280
752 0.000239
753 0.000207
754 0.000180
755 0.000200
756 0.000198
757 0.000173
758 0.000174
759 0.000182
760 0.000178
761 0.000170
762 0.000174
763 0.000170
764 0.000183
765 0.000178
766 0.000163
767 0.000156
768 0.000148
769 0.000163
770 0.000160
771 0.000160
772 0.000156
773 0.000156
774 0.000150
775 0.000142
776 0.000110
777 0.000091
778 0.000048
779 0.000033
780 0.000006
781 0.000014
782 0.000034
783 0.000076
784 0.000104
785 0.000143
786 0.000149
787 0.000167
788 0.000215
789 0.000262
790 0.000258
791 0.000268
792 0.000283
793 0.000328
794 0.000374
795 0.000417
796 0.000428
797 0.000428
798 0.000443
799 0.000440
800 0.000408
801 0.000364
802 0.000341
803 0.000337
804 0.000328
805 0.000307
806 0.000283
807 0.000273
808 0.000262
809 0.000250
