# i correlation
1 0.005368
2 0.004612
3 0.004006
4 0.003498
5 0.003140
6 0.002828
7 0.002549
8 0.002403
9 0.002233
10 0.002018
11 0.001800
12 0.001595
13 0.001428
14 0.001347
15 0.001268
16 0.001235
17 0.001148
18 0.001102
19 0.001071
20 0.001003
21 0.000960
22 0.000948
23 0.000827
24 0.000853
25 0.000923
26 0.001061
27 0.001194
28 0.001316
29 0.001424
30 0.001538
31 0.001584
32 0.001639
33 0.001667
34 0.001739
35 0.001713
36 0.001636
37 0.001653
38 0.001643
39 0.001605
40 0.001578
41 0.001480
42 0.001411
43 0.001325
44 0.001284
45 0.001248
46 0.001242
47 0.001297
48 0.001344
49 0.001368
50 0.001393
51 0.001325
52 0.001192
53 0.001062
54 0.001003
55 0.001011
56 0.001060
57 0.001029
58 0.001027
59 0.001016
60 0.000972
61 0.000978
62 0.000992
63 0.001048
64 0.001159
65 0.001248
66 0.001372
67 0.001412
68 0.001442
69 0.001461
70 0.001502
71 0.001581
72 0.001598
73 0.001548
74 0.001495
75 0.001421
76 0.001363
77 0.001367
78 0.001400
79 0.001341
80 0.001353
81 0.001271
82 0.001191
83 0.001073
84 0.000971
85 0.000927
86 0.000920
87 0.000905
88 0.000912
89 0.000863
90 0.000791
91 0.000774
92 0.000712
93 0.000712
94 0.000733
95 0.000756
96 0.000797
97 0.000873
98 0.000997
99 0.001051
100 0.001086
101 0.001124
102 0.001182
103 0.001222
104 0.001338
105 0.001424
106 0.001502
107 0.001595
108 0.001703
109 0.001776
110 0.001789
111 0.001720
112 0.001752
113 0.001791
114 0.001744
115 0.001671
116 0.001604
117 0.001595
118 0.001496
119 0.001389
120 0.001279
121 0.001186
122 0.001096
123 0.000979
124 0.000856
125 0.000786
126 0.000773
127 0.000807
128 0.000778
129 0.000709
130 0.000555
131 0.000467
132 0.000400
133 0.000362
134 0.000311
135 0.000332
136 0.000392
137 0.000415
138 0.000464
139 0.000502
140 0.000440
141 0.000428
142 0.000486
143 0.000505
144 0.000539
145 0.000563
146 0.000630
147 0.000756
148 0.000864
149 0.000969
150 0.000952
151 0.000905
152 0.000913
153 0.000998
154 0.001040
155 0.001020
156 0.001050
157 0.001043
158 0.001040
159 0.001074
160 0.001061
161 0.000978
162 0.000910
163 0.000859
164 0.000847
165 0.000868
166 0.000790
167 0.000698
168 0.000628
169 0.000534
170 0.000438
171 0.000356
172 0.000283
173 0.000283
174 0.000350
175 0.000457
176 0.000562
177 0.000603
178 0.000591
179 0.000565
180 0.000637
181 0.000760
182 0.000824
183 0.000878
184 0.000959
185 0.000978
186 0.000984
187 0.000987
188 0.000956
189 0.000913
190 0.000891
191 0.000874
192 0.000821
193 0.000823
194 0.000821
195 0.000737
196 0.000584
197 0.000489
198 0.000404
199 0.000362
200 0.000304
201 0.000224
202 0.000152
203 0.000113
204 0.000047
205 -0.000026
206 -0.000050
207 0.000021
208 0.000083
209 0.000140
210 0.000182
211 0.000243
212 0.000343
213 0.000430
214 0.000520
215 0.000606
216 0.000641
217 0.000639
218 0.000626
219 0.000593
220 0.000615
221 0.000647
222 0.000640
223 0.000622
224 0.000626
225 0.000657
226 0.000682
227 0.000685
228 0.000683
229 0.000765
230 0.000780
231 0.000849
232 0.000830
233 0.000775
234 0.000697
235 0.000567
236 0.000458
237 0.000396
238 0.000303
239 0.000227
240 0.000195
241 0.000203
242 0.000217
243 0.000174
244 0.000138
245 0.000147
246 0.000191
247 0.000241
248 0.000235
249 0.000201
250 0.000190
251 0.000216
252 0.000177
253 0.000087
254 0.000040
255 0.000067
256 0.000145
257 0.000171
258 0.000270
259 0.000370
260 0.000365
261 0.000359
262 0.000356
263 0.000418
264 0.000470
265 0.000524
266 0.000619
267 0.000643
268 0.000646
269 0.000645
270 0.000621
271 0.000646
272 0.000664
273 0.000705
274 0.000760
275 0.000753
276 0.000724
277 0.000694
278 0.000675
279 0.000658
280 0.000685
281 0.000705
282 0.000737
283 0.000660
284 0.000556
285 0.000483
286 0.000369
287 0.000305
288 0.000270
289 0.000219
290 0.000190
291 0.000182
292 0.000175
293 0.000214
294 0.000227
295 0.000314
296 0.000389
297 0.000477
298 0.000545
299 0.000579
300 0.000602
301 0.000622
302 0.000675
303 0.000771
304 0.000776
305 0.000727
306 0.000721
307 0.000750
308 0.000824
309 0.000954
310 0.000980
311 0.000988
312 0.000945
313 0.000919
314 0.000928
315 0.000924
316 0.000918
317 0.000900
318 0.000847
319 0.000822
320 0.000763
321 0.000703
322 0.000700
323 0.000642
324 0.000585
325 0.000575
326 0.000547
327 0.000536
328 0.000486
329 0.000495
330 0.000567
331 0.000559
332 0.000456
333 0.000400
334 0.000369
335 0.000343
336 0.000381
337 0.000442
338 0.000486
339 0.000563
340 0.000567
341 0.000594
342 0.000594
343 0.000607
344 0.000617
345 0.000713
346 0.000835
347 0.000937
348 0.000998
349 0.001049
350 0.001061
351 0.001027
352 0.000958
353 0.000949
354 0.000927
355 0.000881
356 0.000855
357 0.000789
358 0.000724
359 0.000695
360 0.000628
361 0.000548
362 0.000483
363 0.000373
364 0.000389
365 0.000368
366 0.000262
367 0.000246
368 0.000313
369 0.000365
370 0.000402
371 0.000465
372 0.000450
373 0.000526
374 0.000593
375 0.000655
376 0.000718
377 0.000779
378 0.000827
379 0.000877
380 0.000957
381 0.000982
382 0.000975
383 0.000992
384 0.000958
385 0.000921
386 0.000872
387 0.000806
388 0.000772
389 0.000705
390 0.000598
391 0.000537
392 0.000454
393 0.000410
394 0.000368
395 0.000341
396 0.000316
397 0.000269
398 0.000201
399 0.000121
400 0.000068
401 0.000023
402 0.000056
403 0.000060
404 0.000128
405 0.000245
406 0.000290
407 0.000364
408 0.000408
409 0.000457
410 0.000494
411 0.000519
412 0.000542
413 0.000599
414 0.000623
415 0.000667
416 0.000714
417 0.000734
418 0.000762
419 0.000774
420 0.000814
421 0.000836
422 0.000818
423 0.000826
424 0.000848
425 0.000846
426 0.000839
427 0.000794
428 0.000710
429 0.000596
430 0.000529
431 0.000499
432 0.000524
433 0.000559
434 0.000582
435 0.000666
436 0.000718
437 0.000727
438 0.000667
439 0.000607
440 0.000536
441 0.000458
442 0.000415
443 0.000397
444 0.000402
445 0.000431
446 0.000485
447 0.000516
448 0.000476
449 0.000454
450 0.000410
451 0.000392
452 0.000399
453 0.000419
454 0.000467
455 0.000494
456 0.000504
457 0.000530
458 0.000628
459 0.000711
460 0.000728
461 0.000664
462 0.000644
463 0.000675
464 0.000670
465 0.000695
466 0.000739
467 0.000718
468 0.000740
469 0.000695
470 0.000614
471 0.000543
472 0.000529
473 0.000505
474 0.000492
475 0.000487
476 0.000472
477 0.000420
478 0.000369
479 0.000342
480 0.000333
481 0.000307
482 0.000253
483 0.000226
484 0.000259
485 0.000292
486 0.000329
487 0.000405
488 0.000487
489 0.000580
490 0.000654
491 0.000711
492 0.000732
493 0.000769
494 0.000759
495 0.000773
496 0.000792
497 0.000817
498 0.000806
499 0.000700
500 0.000594
501 0.000494
502 0.000436
503 0.000400
504 0.000329
505 0.000292
506 0.000277
507 0.000265
508 0.000223
509 0.000231
510 0.000249
511 0.000244
512 0.000189
513 0.000191
514 0.000147
515 0.000146
516 0.000085
517 0.000023
518 -0.000038
519 -0.000099
520 -0.000171
521 -0.000153
522 -0.000078
523 0.000000
524 0.000151
525 0.000217
526 0.000251
527 0.000309
528 0.000299
529 0.000350
530 0.000426
531 0.000528
532 0.000618
533 0.000711
534 0.000753
535 0.000779
536 0.000759
537 0.000754
538 0.000737
539 0.000776
540 0.000826
541 0.000833
542 0.000763
543 0.000715
544 0.000689
545 0.000704
546 0.000675
547 0.000615
548 0.000545
549 0.000483
550 0.000386
551 0.000269
552 0.000160
553 0.000089
554 0.000055
555 0.000003
556 -0.000017
557 -0.000056
558 -0.000090
559 -0.000085
560 -0.000126
561 -0.000094
562 -0.000067
563 -0.000027
564 0.000005
565 0.000008
566 0.000008
567 0.000028
568 0.000062
569 0.000106
570 0.000083
571 0.000082
572 0.000107
573 0.000112
574 0.000110
575 0.000130
576 0.000146
577 0.000152
578 0.000137
579 0.000097
580 0.000100
581 0.000091
582 0.000079
583 0.000088
584 0.000059
585 0.000060
586 0.000031
587 -0.000011
588 -0.000052
589 -0.000050
590 -0.000033
591 0.000010
592 -0.000017
593 0.000001
594 -0.000011
595 -0.000000
596 0.000069
597 0.000127
598 0.000138
599 0.000173
600 0.000204
601 0.000282
602 0.000404
603 0.000444
604 0.000476
605 0.000512
606 0.000472
607 0.000453
608 0.000383
609 0.000279
610 0.000201
611 0.000171
612 0.000184
613 0.000204
614 0.000187
615 0.000195
616 0.000200
617 0.000252
618 0.000284
619 0.000313
620 0.000336
621 0.000331
622 0.000300
623 0.000298
624 0.000266
625 0.000220
626 0.000180
627 0.000158
628 0.000142
629 0.000103
630 0.000094
631 0.000132
632 0.000197
633 0.000271
634 0.000317
635 0.000320
636 0.000344
637 0.000353
638 0.000370
639 0.000403
640 0.000439
641 0.000467
642 0.000504
643 0.000485
644 0.000485
645 0.000482
646 0.000473
647 0.000518
648 0.000541
649 0.000614
650 0.000687
651 0.000684
652 0.000691
653 0.000690
654 0.000651
655 0.000592
656 0.000553
657 0.000541
658 0.000535
659 0.000466
660 0.000406
661 0.000346
662 0.000293
663 0.000263
664 0.000184
665 0.000116
666 0.000084
667 0.000076
668 0.000091
669 0.000085
670 0.000055
671 0.000049
672 0.000017
673 0.000028
674 0.000019
675 -0.000018
676 -0.000040
677 -0.000066
678 -0.000058
679 -0.000033
680 0.000022
681 0.000051
682 0.000108
683 0.000183
684 0.000249
685 0.000261
686 0.000249
687 0.000262
688 0.000247
689 0.000257
690 0.000286
691 0.000329
692 0.000384
693 0.000393
694 0.000362
695 0.000350
696 0.000312
697 0.000274
698 0.000295
699 0.000299
700 0.000308
701 0.000314
702 0.000296
703 0.000285
704 0.000317
705 0.000375
706 0.000408
707 0.000401
708 0.000413
709 0.000402
710 0.000422
711 0.000413
712 0.000391
713 0.000390
714 0.000404
715 0.000409
716 0.000404
717 0.000405
718 0.000432
719 0.000457
720 0.000497
721 0.000527
722 0.000574
723 0.000579
724 0.000590
725 0.000582
726 0.000565
727 0.000553
728 0.000551
729 0.000584
730 0.000619
731 0.000643
732 0.000666
733 0.000648
734 0.000622
735 0.000573
736 0.000522
737 0.000438
738 0.000425
739 0.000429
740 0.000447
741 0.000453
742 0.000473
743 0.000471
744 0.000472
745 0.000434
746 0.000402
747 0.000384
748 0.000378
749 0.000417
750 0.000443
751 0.000466
752 0.000493
753 0.000511
754 0.000546
755 0.000600
756 0.000630
757 0.000666
758 0.000692
759 0.000695
760 0.000750
761 0.000790
762 0.000818
763 0.000820
764 0.000809
765 0.000780
766 0.000728
767 0.000656
768 0.000606
769 0.000568
770 0.000553
771 0.000546
772 0.000512
773 0.000492
774 0.000437
775 0.000381
776 0.000349
777 0.000315
778 0.000279
779 0.000267
780 0.000283
781 0.000293
782 0.000299
783 0.000277
784 0.000266
785 0.000256
786 0.000243
787 0.000211
788 0.000203
789 0.000219
790 0.000245
791 0.000245
792 0.000246
793 0.000241
794 0.000209
795 0.000187
796 0.000187
797 0.000196
798 0.000218
799 0.000234
800 0.000240
801 0.000238
802 0.000241
803 0.000229
804 0.000215
805 0.000233
806 0.000273
807 0.000293
808 0.000319
809 0.000350
