# i correlation
1 0.006350
2 0.005677
3 0.005075
4 0.004679
5 0.004366
6 0.004070
7 0.003869
8 0.003676
9 0.003515
10 0.003477
11 0.003429
12 0.003301
13 0.003184
14 0.003091
15 0.003032
16 0.002939
17 0.002889
18 0.002793
19 0.002755
20 0.002748
21 0.002649
22 0.002636
23 0.002533
24 0.002426
25 0.002297
26 0.002163
27 0.002155
28 0.002089
29 0.002039
30 0.002030
31 0.002101
32 0.002173
33 0.002262
34 0.002277
35 0.002265
36 0.002217
37 0.002152
38 0.002044
39 0.002060
40 0.002026
41 0.002042
42 0.002019
43 0.001969
44 0.001947
45 0.001991
46 0.001997
47 0.001989
48 0.001941
49 0.001932
50 0.001898
51 0.001902
52 0.001864
53 0.001874
54 0.001863
55 0.001829
56 0.001809
57 0.001748
58 0.001717
59 0.001690
60 0.001697
61 0.001642
62 0.001578
63 0.001530
64 0.001554
65 0.001556
66 0.001587
67 0.001580
68 0.001542
69 0.001492
70 0.001436
71 0.001321
72 0.001275
73 0.001141
74 0.000991
75 0.000865
76 0.000797
77 0.000760
78 0.000843
79 0.000905
80 0.000977
81 0.001033
82 0.001037
83 0.001028
84 0.001023
85 0.000989
86 0.001005
87 0.001016
88 0.001033
89 0.001031
90 0.001003
91 0.001017
92 0.001050
93 0.001079
94 0.001025
95 0.000911
96 0.000810
97 0.000649
98 0.000562
99 0.000482
100 0.000536
101 0.000671
102 0.000784
103 0.000923
104 0.001004
105 0.001070
106 0.001155
107 0.001156
108 0.001118
109 0.001067
110 0.001050
111 0.001108
112 0.001087
113 0.001098
114 0.001111
115 0.001123
116 0.001161
117 0.001171
118 0.001171
119 0.001203
120 0.001222
121 0.001257
122 0.001222
123 0.001297
124 0.001319
125 0.001305
126 0.001325
127 0.001363
128 0.001476
129 0.001525
130 0.001552
131 0.001559
132 0.001530
133 0.001510
134 0.001508
135 0.001596
136 0.001713
137 0.001811
138 0.001900
139 0.001881
140 0.001821
141 0.001764
142 0.001741
143 0.001722
144 0.001649
145 0.001602
146 0.001620
147 0.001664
148 0.001723
149 0.001764
150 0.001782
151 0.001724
152 0.001678
153 0.001676
154 0.001653
155 0.001655
156 0.001623
157 0.001590
158 0.001607
159 0.001696
160 0.001803
161 0.001806
162 0.001785
163 0.001689
164 0.001561
165 0.001412
166 0.001225
167 0.001186
168 0.001106
169 0.001073
170 0.001094
171 0.001135
172 0.001186
173 0.001159
174 0.001258
175 0.001340
176 0.001348
177 0.001317
178 0.001286
179 0.001271
180 0.001283
181 0.001336
182 0.001386
183 0.001401
184 0.001360
185 0.001326
186 0.001325
187 0.001327
188 0.001250
189 0.001198
190 0.001147
191 0.001154
192 0.001141
193 0.001106
194 0.001202
195 0.001333
196 0.001442
197 0.001503
198 0.001543
199 0.001570
200 0.001581
201 0.001582
202 0.001590
203 0.001541
204 0.001510
205 0.001501
206 0.001481
207 0.001493
208 0.001496
209 0.001554
210 0.001529
211 0.001473
212 0.001392
213 0.001317
214 0.001268
215 0.001203
216 0.001164
217 0.001128
218 0.001078
219 0.001038
220 0.001032
221 0.001057
222 0.001074
223 0.001083
224 0.001122
225 0.001125
226 0.001066
227 0.001013
228 0.000976
229 0.000981
230 0.000987
231 0.001106
232 0.001189
233 0.001192
234 0.001110
235 0.001039
236 0.000996
237 0.000976
238 0.000957
239 0.000993
240 0.001140
241 0.001293
242 0.001423
243 0.001467
244 0.001467
245 0.001451
246 0.001492
247 0.001509
248 0.001567
249 0.001486
250 0.001359
251 0.001292
252 0.001307
253 0.001321
254 0.001308
255 0.001305
256 0.001263
257 0.001204
258 0.001170
259 0.001166
260 0.001189
261 0.001186
262 0.001221
263 0.001274
264 0.001295
265 0.001400
266 0.001493
267 0.001550
268 0.001635
269 0.001611
270 0.001622
271 0.001602
272 0.001561
273 0.001578
274 0.001642
275 0.001667
276 0.001696
277 0.001689
278 0.001681
279 0.001641
280 0.001556
281 0.001497
282 0.001444
283 0.001390
284 0.001369
285 0.001344
286 0.001335
287 0.001340
288 0.001401
289 0.001443
290 0.001428
291 0.001421
292 0.001369
293 0.001412
294 0.001404
295 0.001446
296 0.001479
297 0.001445
298 0.001458
299 0.001460
300 0.001436
301 0.001393
302 0.001399
303 0.001390
304 0.001358
305 0.001345
306 0.001406
307 0.001446
308 0.001421
309 0.001396
310 0.001410
311 0.001398
312 0.001365
313 0.001376
314 0.001364
315 0.001308
316 0.001215
317 0.001120
318 0.001117
319 0.001042
320 0.001070
321 0.001027
322 0.000941
323 0.000864
324 0.000859
325 0.000910
326 0.000935
327 0.000996
328 0.001018
329 0.001093
330 0.001144
331 0.001160
332 0.001193
333 0.001265
334 0.001356
335 0.001477
336 0.001501
337 0.001565
338 0.001605
339 0.001567
340 0.001577
341 0.001529
342 0.001509
343 0.001469
344 0.001454
345 0.001391
346 0.001342
347 0.001322
348 0.001302
349 0.001299
350 0.001217
351 0.001142
352 0.001061
353 0.001046
354 0.001069
355 0.001082
356 0.001052
357 0.001036
358 0.000972
359 0.001011
360 0.001004
361 0.000994
362 0.001019
363 0.000972
364 0.000904
365 0.000765
366 0.000698
367 0.000616
368 0.000628
369 0.000692
370 0.000712
371 0.000718
372 0.000697
373 0.000615
374 0.000602
375 0.000544
376 0.000570
377 0.000596
378 0.000649
379 0.000805
380 0.000886
381 0.000988
382 0.001111
383 0.001157
384 0.001172
385 0.001168
386 0.001186
387 0.001192
388 0.001158
389 0.001136
390 0.001076
391 0.001060
392 0.001064
393 0.001047
394 0.000997
395 0.001020
396 0.001104
397 0.001069
398 0.001040
399 0.001074
400 0.001070
401 0.001083
402 0.001079
403 0.000999
404 0.000898
405 0.000827
406 0.000793
407 0.000808
408 0.000781
409 0.000738
410 0.000662
411 0.000561
412 0.000492
413 0.000423
414 0.000385
415 0.000329
416 0.000352
417 0.000380
418 0.000385
419 0.000387
420 0.000351
421 0.000326
422 0.000336
423 0.000356
424 0.000317
425 0.000201
426 0.000134
427 0.000093
428 0.000052
429 0.000034
430 0.000031
431 0.000022
432 0.000038
433 0.000035
434 0.000072
435 0.000068
436 0.000016
437 0.000029
438 0.000084
439 0.000111
440 0.000096
441 0.000149
442 0.000204
443 0.000261
444 0.000288
445 0.000237
446 0.000215
447 0.000169
448 0.000237
449 0.000368
450 0.000449
451 0.000529
452 0.000567
453 0.000604
454 0.000603
455 0.000579
456 0.000537
457 0.000497
458 0.000426
459 0.000338
460 0.000269
461 0.000233
462 0.000273
463 0.000363
464 0.000422
465 0.000550
466 0.000629
467 0.000666
468 0.000687
469 0.000634
470 0.000640
471 0.000644
472 0.000638
473 0.000664
474 0.000707
475 0.000720
476 0.000710
477 0.000708
478 0.000636
479 0.000545
480 0.000520
481 0.000494
482 0.000468
483 0.000485
484 0.000464
485 0.000562
486 0.000590
487 0.000626
488 0.000617
489 0.000649
490 0.000715
491 0.000743
492 0.000774
493 0.000775
494 0.000748
495 0.000725
496 0.000695
497 0.000702
498 0.000734
499 0.000792
500 0.000853
501 0.000839
502 0.000839
503 0.000802
504 0.000740
505 0.000723
506 0.000690
507 0.000755
508 0.000799
509 0.000830
510 0.000870
511 0.000888
512 0.000904
513 0.000840
514 0.000812
515 0.000810
516 0.000855
517 0.000897
518 0.000952
519 0.000988
520 0.001008
521 0.000982
522 0.000994
523 0.000958
524 0.000940
525 0.000937
526 0.000897
527 0.000879
528 0.000858
529 0.000846
530 0.000898
531 0.000963
532 0.001003
533 0.000987
534 0.001015
535 0.001043
536 0.001109
537 0.001128
538 0.001162
539 0.001194
540 0.001185
541 0.001195
542 0.001230
543 0.001252
544 0.001288
545 0.001337
546 0.001390
547 0.001397
548 0.001350
549 0.001355
550 0.001334
551 0.001311
552 0.001244
553 0.001183
554 0.001161
555 0.001162
556 0.001132
557 0.001109
558 0.001100
559 0.001060
560 0.000980
561 0.000904
562 0.000855
563 0.000799
564 0.000727
565 0.000618
566 0.000528
567 0.000503
568 0.000493
569 0.000470
570 0.000408
571 0.000354
572 0.000296
573 0.000286
574 0.000242
575 0.000211
576 0.000165
577 0.000190
578 0.000254
579 0.000321
580 0.000353
581 0.000388
582 0.000405
583 0.000399
584 0.000392
585 0.000365
586 0.000363
587 0.000332
588 0.000304
589 0.000228
590 0.000234
591 0.000293
592 0.000342
593 0.000335
594 0.000332
595 0.000344
596 0.000339
597 0.000390
598 0.000420
599 0.000408
600 0.000393
601 0.000421
602 0.000495
603 0.000576
604 0.000620
605 0.000629
606 0.000614
607 0.000514
608 0.000476
609 0.000447
610 0.000450
611 0.000437
612 0.000428
613 0.000478
614 0.000539
615 0.000577
616 0.000572
617 0.000524
618 0.000501
619 0.000445
620 0.000388
621 0.000343
622 0.000286
623 0.000254
624 0.000240
625 0.000276
626 0.000316
627 0.000362
628 0.000405
629 0.000419
630 0.000419
631 0.000405
632 0.000430
633 0.000461
634 0.000444
635 0.000424
636 0.000406
637 0.000441
638 0.000467
639 0.000478
640 0.000492
641 0.000465
642 0.000450
643 0.000433
644 0.000433
645 0.000418
646 0.000379
647 0.000424
648 0.000500
649 0.000573
650 0.000641
651 0.000686
652 0.000678
653 0.000643
654 0.000623
655 0.000638
656 0.000596
657 0.000578
658 0.000580
659 0.000603
660 0.000625
661 0.000669
662 0.000738
663 0.000737
664 0.000734
665 0.000743
666 0.000748
667 0.000738
668 0.000729
669 0.000742
670 0.000785
671 0.000790
672 0.000807
673 0.000821
674 0.000865
675 0.000908
676 0.000877
677 0.000852
678 0.000863
679 0.000876
680 0.000887
681 0.000903
682 0.000951
683 0.000945
684 0.000928
685 0.000893
686 0.000912
687 0.000876
688 0.000857
689 0.000850
690 0.000834
691 0.000791
692 0.000771
693 0.000752
694 0.000768
695 0.000760
696 0.000757
697 0.000764
698 0.000769
699 0.000753
700 0.000691
701 0.000603
702 0.000512
703 0.000422
704 0.000331
705 0.000294
706 0.000287
707 0.000291
708 0.000262
709 0.000267
710 0.000251
711 0.000234
712 0.000195
713 0.000173
714 0.000168
715 0.000120
716 0.000123
717 0.000175
718 0.000208
719 0.000225
720 0.000229
721 0.000244
722 0.000263
723 0.000284
724 0.000245
725 0.000237
726 0.000221
727 0.000211
728 0.000243
729 0.000300
730 0.000354
731 0.000394
732 0.000409
733 0.000472
734 0.000512
735 0.000496
736 0.000468
737 0.000414
738 0.000387
739 0.000362
740 0.000386
741 0.000403
742 0.000419
743 0.000393
744 0.000382
745 0.000374
746 0.000360
747 0.000318
748 0.000306
749 0.000284
750 0.000270
751 0.000274
752 0.000271
753 0.000275
754 0.000267
755 0.000241
756 0.000221
757 0.000177
758 0.000161
759 0.000132
760 0.000109
761 0.000086
762 0.000105
763 0.000130
764 0.000178
765 0.000194
766 0.000194
767 0.000200
768 0.000213
769 0.000213
770 0.000207
771 0.000201
772 0.000199
773 0.000210
774 0.000202
775 0.000197
776 0.000203
777 0.000207
778 0.000257
779 0.000268
780 0.000289
781 0.000303
782 0.000317
783 0.000308
784 0.000291
785 0.000284
786 0.000281
787 0.000289
788 0.000325
789 0.000365
790 0.000368
791 0.000374
792 0.000377
793 0.000382
794 0.000366
795 0.000351
796 0.000340
797 0.000348
798 0.000349
799 0.000361
800 0.000386
801 0.000407
802 0.000412
803 0.000424
804 0.000407
805 0.000412
806 0.000398
807 0.000394
808 0.000361
809 0.000344
