# i correlation
1 0.003956
2 0.003300
3 0.002792
4 0.002283
5 0.001889
6 0.001553
7 0.001204
8 0.000919
9 0.000785
10 0.000623
11 0.000434
12 0.000284
13 0.000225
14 0.000157
15 0.000152
16 0.000160
17 0.000235
18 0.000249
19 0.000246
20 0.000237
21 0.000194
22 0.000161
23 0.000185
24 0.000118
25 0.000028
26 0.000049
27 -0.000004
28 -0.000061
29 -0.000034
30 -0.000007
31 0.000041
32 0.000074
33 0.000105
34 0.000104
35 0.000157
36 0.000121
37 0.000083
38 0.000068
39 0.000025
40 0.000069
41 0.000208
42 0.000284
43 0.000411
44 0.000547
45 0.000615
46 0.000579
47 0.000542
48 0.000483
49 0.000372
50 0.000285
51 0.000249
52 0.000221
53 0.000165
54 0.000137
55 0.000098
56 -0.000020
57 -0.000139
58 -0.000195
59 -0.000290
60 -0.000340
61 -0.000381
62 -0.000438
63 -0.000446
64 -0.000385
65 -0.000294
66 -0.000257
67 -0.000230
68 -0.000114
69 0.000027
70 0.000138
71 0.000240
72 0.000315
73 0.000266
74 0.000271
75 0.000362
76 0.000445
77 0.000565
78 0.000651
79 0.000756
80 0.000669
81 0.000639
82 0.000600
83 0.000488
84 0.000407
85 0.000346
86 0.000289
87 0.000277
88 0.000332
89 0.000426
90 0.000528
91 0.000615
92 0.000699
93 0.000723
94 0.000738
95 0.000798
96 0.000880
97 0.000850
98 0.000889
99 0.000896
100 0.000882
101 0.000819
102 0.000706
103 0.000511
104 0.000304
105 0.000160
106 0.000071
107 0.000039
108 -0.000039
109 -0.000056
110 -0.000007
111 0.000030
112 0.000066
113 0.000170
114 0.000179
115 0.000150
116 0.000217
117 0.000255
118 0.000256
119 0.000336
120 0.000452
121 0.000542
122 0.000786
123 0.000951
124 0.001034
125 0.001130
126 0.001161
127 0.001145
128 0.001032
129 0.000947
130 0.000841
131 0.000716
132 0.000630
133 0.000540
134 0.000379
135 0.000242
136 0.000201
137 0.000295
138 0.000281
139 0.000254
140 0.000317
141 0.000361
142 0.000391
143 0.000386
144 0.000326
145 0.000225
146 0.000188
147 0.000148
148 0.000096
149 0.000025
150 -0.000051
151 -0.000098
152 -0.000190
153 -0.000187
154 -0.000138
155 -0.000047
156 0.000058
157 0.000085
158 0.000055
159 -0.000045
160 -0.000112
161 -0.000143
162 -0.000206
163 -0.000226
164 -0.000212
165 -0.000192
166 -0.000163
167 -0.000089
168 -0.000000
169 0.000058
170 0.000219
171 0.000344
172 0.000346
173 0.000382
174 0.000383
175 0.000378
176 0.000333
177 0.000357
178 0.000345
179 0.000244
180 0.000145
181 0.000060
182 -0.000064
183 -0.000171
184 -0.000242
185 -0.000309
186 -0.000342
187 -0.000394
188 -0.000382
189 -0.000399
190 -0.000380
191 -0.000360
192 -0.000260
193 -0.000174
194 -0.000108
195 -0.000052
196 -0.000039
197 0.000003
198 0.000102
199 0.000192
200 0.000304
201 0.000470
202 0.000609
203 0.000705
204 0.000776
205 0.000757
206 0.000750
207 0.000709
208 0.000656
209 0.000670
210 0.000600
211 0.000537
212 0.000503
213 0.000473
214 0.000505
215 0.000539
216 0.000559
217 0.000539
218 0.000600
219 0.000711
220 0.000793
221 0.000885
222 0.001016
223 0.001110
224 0.001131
225 0.001167
226 0.001158
227 0.001144
228 0.001031
229 0.000850
230 0.000715
231 0.000559
232 0.000430
233 0.000353
234 0.000175
235 0.000063
236 0.000004
237 -0.000098
238 -0.000143
239 -0.000123
240 -0.000035
241 0.000012
242 0.000045
243 0.000043
244 0.000029
245 0.000025
246 0.000032
247 0.000071
248 0.000053
249 0.000089
250 0.000116
251 0.000117
252 0.000109
253 0.000116
254 0.000119
255 0.000075
256 0.000063
257 0.000020
258 0.000004
259 -0.000002
260 -0.000003
261 -0.000073
262 -0.000051
263 0.000032
264 0.000099
265 0.000137
266 0.000167
267 0.000207
268 0.000233
269 0.000314
270 0.000335
271 0.000299
272 0.000210
273 0.000189
274 0.000121
275 0.000073
276 -0.000023
277 -0.000127
278 -0.000205
279 -0.000324
280 -0.000434
281 -0.000491
282 -0.000539
283 -0.000595
284 -0.000590
285 -0.000581
286 -0.000583
287 -0.000561
288 -0.000509
289 -0.000596
290 -0.000591
291 -0.000540
292 -0.000506
293 -0.000377
294 -0.000230
295 -0.000036
296 0.000138
297 0.000315
298 0.000437
299 0.000580
300 0.000658
301 0.000696
302 0.000736
303 0.000769
304 0.000806
305 0.000820
306 0.000762
307 0.000703
308 0.000678
309 0.000581
310 0.000530
311 0.000496
312 0.000480
313 0.000439
314 0.000454
315 0.000397
316 0.000315
317 0.000307
318 0.000307
319 0.000316
320 0.000308
321 0.000280
322 0.000267
323 0.000258
324 0.000217
325 0.000209
326 0.000250
327 0.000219
328 0.000225
329 0.000264
330 0.000242
331 0.000234
332 0.000198
333 0.000085
334 0.000031
335 0.000004
336 -0.000097
337 -0.000159
338 -0.000172
339 -0.000131
340 -0.000010
341 0.000145
342 0.000265
343 0.000409
344 0.000515
345 0.000584
346 0.000661
347 0.000736
348 0.000810
349 0.000895
350 0.000906
351 0.000901
352 0.000838
353 0.000760
354 0.000642
355 0.000586
356 0.000501
357 0.000436
358 0.000402
359 0.000325
360 0.000281
361 0.000193
362 0.000087
363 0.000030
364 0.000004
365 0.000022
366 0.000050
367 0.000074
368 0.000034
369 -0.000008
370 -0.000034
371 -0.000101
372 -0.000125
373 -0.000107
374 -0.000086
375 -0.000121
376 -0.000130
377 -0.000133
378 -0.000092
379 -0.000066
380 -0.000054
381 -0.000049
382 -0.000024
383 0.000008
384 0.000095
385 0.000106
386 0.000109
387 0.000082
388 0.000047
389 0.000028
390 0.000002
391 -0.000028
392 -0.000088
393 -0.000126
394 -0.000135
395 -0.000064
396 -0.000019
397 0.000023
398 0.000068
399 0.000083
400 0.000145
401 0.000185
402 0.000121
403 0.000070
404 0.000077
405 0.000045
406 0.000040
407 0.000051
408 0.000039
409 -0.000005
410 -0.000013
411 -0.000076
412 -0.000197
413 -0.000251
414 -0.000276
415 -0.000316
416 -0.000367
417 -0.000346
418 -0.000319
419 -0.000250
420 -0.000130
421 0.000002
422 0.000099
423 0.000162
424 0.000274
425 0.000376
426 0.000506
427 0.000559
428 0.000584
429 0.000545
430 0.000560
431 0.000565
432 0.000515
433 0.000505
434 0.000450
435 0.000372
436 0.000378
437 0.000410
438 0.000378
439 0.000433
440 0.000470
441 0.000545
442 0.000651
443 0.000689
444 0.000748
445 0.000776
446 0.000748
447 0.000666
448 0.000547
449 0.000498
450 0.000454
451 0.000451
452 0.000380
453 0.000286
454 0.000217
455 0.000158
456 0.000140
457 0.000114
458 0.000036
459 -0.000019
460 -0.000116
461 -0.000175
462 -0.000206
463 -0.000213
464 -0.000209
465 -0.000189
466 -0.000148
467 -0.000076
468 0.000025
469 0.000114
470 0.000125
471 0.000163
472 0.000202
473 0.000228
474 0.000289
475 0.000328
476 0.000351
477 0.000412
478 0.000431
479 0.000398
480 0.000373
481 0.000261
482 0.000170
483 0.000082
484 0.000019
485 0.000023
486 -0.000000
487 -0.000039
488 -0.000076
489 -0.000120
490 -0.000154
491 -0.000188
492 -0.000266
493 -0.000386
494 -0.000427
495 -0.000430
496 -0.000347
497 -0.000226
498 -0.000152
499 -0.000103
500 -0.000020
501 0.000028
502 0.000042
503 0.000025
504 -0.000024
505 -0.000043
506 -0.000039
507 -0.000042
508 -0.000055
509 -0.000061
510 -0.000052
511 -0.000025
512 -0.000036
513 -0.000063
514 -0.000059
515 -0.000058
516 -0.000060
517 -0.000079
518 -0.000076
519 -0.000072
520 0.000007
521 0.000145
522 0.000264
523 0.000380
524 0.000424
525 0.000377
526 0.000358
527 0.000341
528 0.000345
529 0.000366
530 0.000369
531 0.000354
532 0.000353
533 0.000395
534 0.000333
535 0.000243
536 0.000170
537 0.000134
538 0.000128
539 0.000131
540 0.000126
541 0.000109
542 0.000086
543 0.000090
544 0.000110
545 0.000098
546 0.000121
547 0.000151
548 0.000164
549 0.000165
550 0.000188
551 0.000222
552 0.000214
553 0.000204
554 0.000199
555 0.000196
556 0.000182
557 0.000160
558 0.000107
559 0.000094
560 0.000040
561 -0.000021
562 -0.000045
563 -0.000051
564 -0.000043
565 -0.000011
566 0.000055
567 0.000130
568 0.000225
569 0.000291
570 0.000344
571 0.000363
572 0.000376
573 0.000409
574 0.000451
575 0.000447
576 0.000459
577 0.000455
578 0.000464
579 0.000453
580 0.000389
581 0.000320
582 0.000258
583 0.000188
584 0.000122
585 0.000045
586 -0.000056
587 -0.000141
588 -0.000183
589 -0.000212
590 -0.000272
591 -0.000302
592 -0.000284
593 -0.000272
594 -0.000258
595 -0.000248
596 -0.000241
597 -0.000229
598 -0.000195
599 -0.000148
600 -0.000097
601 -0.000031
602 0.000011
603 -0.000010
604 -0.000026
605 -0.000060
606 -0.000138
607 -0.000148
608 -0.000134
609 -0.000134
610 -0.000114
611 -0.000069
612 -0.000036
613 -0.000030
614 -0.000004
615 0.000015
616 -0.000006
617 -0.000037
618 -0.000043
619 -0.000055
620 -0.000047
621 -0.000027
622 0.000010
623 0.000037
624 0.000044
625 -0.000000
626 -0.000033
627 -0.000019
628 0.000000
629 0.000007
630 -0.000022
631 -0.000081
632 -0.000157
633 -0.000207
634 -0.000233
635 -0.000281
636 -0.000362
637 -0.000392
638 -0.000419
639 -0.000441
640 -0.000404
641 -0.000393
642 -0.000366
643 -0.000311
644 -0.000242
645 -0.000164
646 -0.000045
647 0.000061
648 0.000135
649 0.000206
650 0.000268
651 0.000303
652 0.000337
653 0.000381
654 0.000361
655 0.000384
656 0.000372
657 0.000334
658 0.000286
659 0.000201
660 0.000128
661 0.000112
662 0.000085
663 0.000066
664 0.000076
665 0.000083
666 0.000111
667 0.000110
668 0.000101
669 0.000105
670 0.000103
671 0.000109
672 0.000113
673 0.000127
674 0.000086
675 0.000051
676 0.000038
677 0.000005
678 -0.000018
679 -0.000021
680 -0.000026
681 -0.000035
682 -0.000072
683 -0.000120
684 -0.000136
685 -0.000177
686 -0.000203
687 -0.000227
688 -0.000244
689 -0.000249
690 -0.000224
691 -0.000203
692 -0.000149
693 -0.000111
694 -0.000093
695 -0.000049
696 -0.000012
697 0.000009
698 0.000031
699 0.000079
700 0.000113
701 0.000153
702 0.000168
703 0.000158
704 0.000128
705 0.000080
706 0.000041
707 0.000015
708 -0.000031
709 -0.000053
710 -0.000045
711 -0.000051
712 -0.000078
713 -0.000117
714 -0.000151
715 -0.000184
716 -0.000197
717 -0.000215
718 -0.000220
719 -0.000235
720 -0.000266
721 -0.000242
722 -0.000237
723 -0.000235
724 -0.000219
725 -0.000202
726 -0.000199
727 -0.000172
728 -0.000180
729 -0.000182
730 -0.000175
731 -0.000168
732 -0.000128
733 -0.000121
734 -0.000103
735 -0.000101
736 -0.000074
737 -0.000027
738 0.000005
739 0.000036
740 0.000047
741 0.000094
742 0.000138
743 0.000157
744 0.000192
745 0.000214
746 0.000210
747 0.000214
748 0.000201
749 0.000188
750 0.000181
751 0.000161
752 0.000159
753 0.000152
754 0.000158
755 0.000146
756 0.000145
757 0.000110
758 0.000037
759 -0.000022
760 -0.000060
761 -0.000082
762 -0.000103
763 -0.000123
764 -0.000143
765 -0.000141
766 -0.000154
767 -0.000145
768 -0.000119
769 -0.000088
770 -0.000042
771 0.000009
772 0.000058
773 0.000088
774 0.000129
775 0.000161
776 0.000164
777 0.000159
778 0.000144
779 0.000139
780 0.000120
781 0.000085
782 0.000059
783 0.000006
784 -0.000029
785 -0.000052
786 -0.000062
787 -0.000074
788 -0.000079
789 -0.000092
790 -0.000094
791 -0.000103
792 -0.000115
793 -0.000108
794 -0.000107
795 -0.000121
796 -0.000149
797 -0.000176
798 -0.000197
799 -0.000212
800 -0.000230
801 -0.000261
802 -0.000271
803 -0.000284
804 -0.000303
805 -0.000303
806 -0.000288
807 -0.000276
808 -0.000248
809 -0.000230
