# i correlation
1 0.004463
2 0.003783
3 0.003343
4 0.003069
5 0.002739
6 0.002401
7 0.002154
8 0.002016
9 0.001859
10 0.001719
11 0.001703
12 0.001670
13 0.001583
14 0.001563
15 0.001543
16 0.001544
17 0.001570
18 0.001528
19 0.001394
20 0.001424
21 0.001455
22 0.001507
23 0.001517
24 0.001554
25 0.001601
26 0.001666
27 0.001703
28 0.001698
29 0.001757
30 0.001889
31 0.001951
32 0.001965
33 0.001939
34 0.001914
35 0.001866
36 0.001860
37 0.001741
38 0.001736
39 0.001725
40 0.001695
41 0.001581
42 0.001406
43 0.001297
44 0.001290
45 0.001256
46 0.001167
47 0.001106
48 0.001125
49 0.001210
50 0.001407
51 0.001567
52 0.001635
53 0.001626
54 0.001586
55 0.001559
56 0.001585
57 0.001528
58 0.001556
59 0.001592
60 0.001616
61 0.001613
62 0.001546
63 0.001556
64 0.001569
65 0.001615
66 0.001616
67 0.001522
68 0.001473
69 0.001409
70 0.001354
71 0.001242
72 0.001039
73 0.000913
74 0.000895
75 0.000863
76 0.000850
77 0.000811
78 0.000732
79 0.000697
80 0.000729
81 0.000852
82 0.000957
83 0.001035
84 0.001089
85 0.001127
86 0.001208
87 0.001227
88 0.001285
89 0.001394
90 0.001546
91 0.001660
92 0.001682
93 0.001713
94 0.001712
95 0.001782
96 0.001835
97 0.001905
98 0.001811
99 0.001709
100 0.001582
101 0.001433
102 0.001283
103 0.001116
104 0.001002
105 0.000931
106 0.000971
107 0.000911
108 0.000802
109 0.000718
110 0.000692
111 0.000688
112 0.000724
113 0.000736
114 0.000819
115 0.000896
116 0.000958
117 0.001029
118 0.001057
119 0.001080
120 0.001116
121 0.001072
122 0.001024
123 0.000935
124 0.000930
125 0.000949
126 0.000989
127 0.001023
128 0.001072
129 0.001219
130 0.001354
131 0.001401
132 0.001422
133 0.001413
134 0.001386
135 0.001349
136 0.001243
137 0.001161
138 0.001035
139 0.000876
140 0.000824
141 0.000889
142 0.000921
143 0.000852
144 0.000825
145 0.000831
146 0.000944
147 0.001017
148 0.001072
149 0.001192
150 0.001317
151 0.001344
152 0.001373
153 0.001327
154 0.001202
155 0.001158
156 0.001169
157 0.001181
158 0.001292
159 0.001282
160 0.001255
161 0.001255
162 0.001271
163 0.001206
164 0.001127
165 0.001079
166 0.001071
167 0.001059
168 0.000982
169 0.000896
170 0.000887
171 0.000886
172 0.000930
173 0.000970
174 0.001058
175 0.001070
176 0.001106
177 0.001119
178 0.001131
179 0.001153
180 0.001222
181 0.001242
182 0.001272
183 0.001326
184 0.001352
185 0.001360
186 0.001382
187 0.001389
188 0.001461
189 0.001489
190 0.001475
191 0.001529
192 0.001489
193 0.001385
194 0.001318
195 0.001262
196 0.001255
197 0.001227
198 0.001161
199 0.001152
200 0.001209
201 0.001265
202 0.001334
203 0.001392
204 0.001395
205 0.001385
206 0.001362
207 0.001307
208 0.001304
209 0.001256
210 0.001297
211 0.001368
212 0.001502
213 0.001607
214 0.001635
215 0.001636
216 0.001668
217 0.001699
218 0.001722
219 0.001675
220 0.001633
221 0.001624
222 0.001589
223 0.001499
224 0.001443
225 0.001394
226 0.001456
227 0.001536
228 0.001593
229 0.001617
230 0.001557
231 0.001456
232 0.001450
233 0.001384
234 0.001291
235 0.001190
236 0.001137
237 0.001130
238 0.001165
239 0.001169
240 0.001128
241 0.001084
242 0.001076
243 0.001118
244 0.001171
245 0.001141
246 0.001130
247 0.001127
248 0.001152
249 0.001187
250 0.001223
251 0.001171
252 0.001152
253 0.001123
254 0.001114
255 0.001156
256 0.001121
257 0.001065
258 0.001041
259 0.000991
260 0.000906
261 0.000874
262 0.000888
263 0.000839
264 0.000811
265 0.000842
266 0.000941
267 0.001025
268 0.001054
269 0.001096
270 0.001194
271 0.001234
272 0.001277
273 0.001335
274 0.001298
275 0.001230
276 0.001166
277 0.001162
278 0.001195
279 0.001211
280 0.001222
281 0.001199
282 0.001217
283 0.001212
284 0.001215
285 0.001177
286 0.001056
287 0.000969
288 0.000963
289 0.000913
290 0.000865
291 0.000736
292 0.000678
293 0.000659
294 0.000649
295 0.000648
296 0.000626
297 0.000607
298 0.000579
299 0.000587
300 0.000607
301 0.000615
302 0.000681
303 0.000808
304 0.000896
305 0.000982
306 0.001024
307 0.001021
308 0.001085
309 0.001124
310 0.001155
311 0.001148
312 0.001075
313 0.000998
314 0.000855
315 0.000784
316 0.000730
317 0.000708
318 0.000708
319 0.000735
320 0.000729
321 0.000698
322 0.000711
323 0.000797
324 0.000856
325 0.000846
326 0.000879
327 0.000842
328 0.000731
329 0.000656
330 0.000609
331 0.000489
332 0.000479
333 0.000486
334 0.000532
335 0.000624
336 0.000690
337 0.000717
338 0.000738
339 0.000748
340 0.000706
341 0.000711
342 0.000645
343 0.000702
344 0.000794
345 0.000792
346 0.000808
347 0.000818
348 0.000842
349 0.000843
350 0.000784
351 0.000693
352 0.000587
353 0.000555
354 0.000527
355 0.000481
356 0.000493
357 0.000469
358 0.000481
359 0.000552
360 0.000567
361 0.000609
362 0.000694
363 0.000837
364 0.000938
365 0.000938
366 0.000892
367 0.000855
368 0.000893
369 0.000956
370 0.001054
371 0.001109
372 0.001069
373 0.001055
374 0.001085
375 0.001173
376 0.001210
377 0.001163
378 0.001089
379 0.001060
380 0.001012
381 0.000867
382 0.000708
383 0.000524
384 0.000411
385 0.000402
386 0.000395
387 0.000473
388 0.000514
389 0.000544
390 0.000569
391 0.000542
392 0.000525
393 0.000523
394 0.000524
395 0.000572
396 0.000623
397 0.000668
398 0.000640
399 0.000653
400 0.000707
401 0.000791
402 0.000852
403 0.000897
404 0.000954
405 0.000937
406 0.000900
407 0.000889
408 0.000913
409 0.000911
410 0.000871
411 0.000750
412 0.000669
413 0.000571
414 0.000527
415 0.000526
416 0.000481
417 0.000446
418 0.000420
419 0.000451
420 0.000488
421 0.000509
422 0.000496
423 0.000493
424 0.000451
425 0.000456
426 0.000451
427 0.000453
428 0.000414
429 0.000425
430 0.000436
431 0.000437
432 0.000423
433 0.000405
434 0.000421
435 0.000422
436 0.000412
437 0.000358
438 0.000355
439 0.000384
440 0.000483
441 0.000563
442 0.000575
443 0.000563
444 0.000518
445 0.000544
446 0.000588
447 0.000525
448 0.000427
449 0.000345
450 0.000327
451 0.000293
452 0.000236
453 0.000189
454 0.000183
455 0.000182
456 0.000192
457 0.000204
458 0.000224
459 0.000293
460 0.000388
461 0.000486
462 0.000508
463 0.000526
464 0.000499
465 0.000485
466 0.000501
467 0.000467
468 0.000425
469 0.000384
470 0.000384
471 0.000384
472 0.000343
473 0.000286
474 0.000222
475 0.000229
476 0.000254
477 0.000244
478 0.000250
479 0.000215
480 0.000154
481 0.000136
482 0.000141
483 0.000125
484 0.000131
485 0.000196
486 0.000238
487 0.000226
488 0.000240
489 0.000244
490 0.000244
491 0.000249
492 0.000244
493 0.000303
494 0.000323
495 0.000306
496 0.000338
497 0.000373
498 0.000332
499 0.000343
500 0.000349
501 0.000374
502 0.000398
503 0.000351
504 0.000299
505 0.000336
506 0.000380
507 0.000355
508 0.000284
509 0.000226
510 0.000198
511 0.000242
512 0.000220
513 0.000153
514 0.000124
515 0.000086
516 0.000061
517 0.000076
518 0.000057
519 0.000045
520 0.000066
521 0.000072
522 0.000126
523 0.000191
524 0.000187
525 0.000150
526 0.000159
527 0.000183
528 0.000224
529 0.000243
530 0.000183
531 0.000165
532 0.000159
533 0.000117
534 0.000083
535 0.000128
536 0.000179
537 0.000277
538 0.000357
539 0.000364
540 0.000425
541 0.000412
542 0.000401
543 0.000348
544 0.000261
545 0.000232
546 0.000244
547 0.000265
548 0.000254
549 0.000244
550 0.000261
551 0.000290
552 0.000351
553 0.000415
554 0.000450
555 0.000460
556 0.000462
557 0.000440
558 0.000405
559 0.000402
560 0.000362
561 0.000315
562 0.000284
563 0.000248
564 0.000234
565 0.000211
566 0.000156
567 0.000143
568 0.000120
569 0.000090
570 0.000101
571 0.000146
572 0.000162
573 0.000186
574 0.000188
575 0.000230
576 0.000331
577 0.000391
578 0.000454
579 0.000458
580 0.000446
581 0.000465
582 0.000485
583 0.000438
584 0.000378
585 0.000373
586 0.000336
587 0.000333
588 0.000347
589 0.000342
590 0.000333
591 0.000341
592 0.000394
593 0.000445
594 0.000410
595 0.000393
596 0.000386
597 0.000363
598 0.000335
599 0.000311
600 0.000309
601 0.000293
602 0.000248
603 0.000286
604 0.000282
605 0.000305
606 0.000291
607 0.000283
608 0.000299
609 0.000332
610 0.000347
611 0.000345
612 0.000359
613 0.000353
614 0.000335
615 0.000280
616 0.000254
617 0.000232
618 0.000198
619 0.000177
620 0.000142
621 0.000147
622 0.000128
623 0.000148
624 0.000106
625 0.000091
626 0.000114
627 0.000121
628 0.000121
629 0.000131
630 0.000128
631 0.000122
632 0.000129
633 0.000119
634 0.000135
635 0.000151
636 0.000179
637 0.000229
638 0.000202
639 0.000205
640 0.000220
641 0.000280
642 0.000260
643 0.000292
644 0.000324
645 0.000347
646 0.000356
647 0.000397
648 0.000421
649 0.000409
650 0.000319
651 0.000241
652 0.000248
653 0.000230
654 0.000196
655 0.000153
656 0.000123
657 0.000063
658 -0.000014
659 -0.000060
660 -0.000100
661 -0.000127
662 -0.000155
663 -0.000183
664 -0.000173
665 -0.000167
666 -0.000156
667 -0.000117
668 -0.000126
669 -0.000099
670 -0.000067
671 -0.000029
672 -0.000008
673 0.000038
674 0.000061
675 0.000073
676 0.000058
677 0.000044
678 0.000024
679 0.000025
680 0.000021
681 0.000021
682 0.000034
683 0.000007
684 0.000021
685 0.000023
686 -0.000008
687 -0.000014
688 -0.000003
689 -0.000026
690 -0.000081
691 -0.000111
692 -0.000122
693 -0.000119
694 -0.000118
695 -0.000151
696 -0.000146
697 -0.000130
698 -0.000107
699 -0.000087
700 -0.000057
701 -0.000090
702 -0.000092
703 -0.000087
704 -0.000096
705 -0.000070
706 -0.000060
707 -0.000034
708 -0.000064
709 -0.000088
710 -0.000134
711 -0.000120
712 -0.000104
713 -0.000114
714 -0.000131
715 -0.000141
716 -0.000164
717 -0.000181
718 -0.000206
719 -0.000234
720 -0.000222
721 -0.000227
722 -0.000244
723 -0.000226
724 -0.000228
725 -0.000207
726 -0.000190
727 -0.000169
728 -0.000179
729 -0.000180
730 -0.000156
731 -0.000140
732 -0.000132
733 -0.000126
734 -0.000087
735 -0.000055
736 -0.000057
737 -0.000061
738 -0.000002
739 0.000051
740 0.000057
741 0.000034
742 0.000014
743 0.000044
744 0.000055
745 0.000070
746 0.000053
747 0.000030
748 -0.000026
749 -0.000063
750 -0.000079
751 -0.000066
752 -0.000074
753 -0.000084
754 -0.000120
755 -0.000122
756 -0.000116
757 -0.000113
758 -0.000129
759 -0.000145
760 -0.000170
761 -0.000181
762 -0.000199
763 -0.000193
764 -0.000184
765 -0.000184
766 -0.000153
767 -0.000105
768 -0.000080
769 -0.000054
770 -0.000025
771 0.000002
772 0.000038
773 0.000056
774 0.000067
775 0.000098
776 0.000112
777 0.000123
778 0.000158
779 0.000165
780 0.000108
781 0.000094
782 0.000085
783 0.000077
784 0.000069
785 0.000053
786 0.000059
787 0.000055
788 0.000018
789 -0.000002
790 0.000012
791 0.000018
792 -0.000026
793 -0.000053
794 -0.000070
795 -0.000050
796 -0.000030
797 -0.000036
798 -0.000065
799 -0.000060
800 -0.000070
801 -0.000080
802 -0.000074
803 -0.000060
804 -0.000020
805 0.000013
806 0.000009
807 -0.000003
808 0.000036
809 0.000057
