# i correlation
1 0.004989
2 0.004347
3 0.003916
4 0.003601
5 0.003311
6 0.003040
7 0.002799
8 0.002586
9 0.002455
10 0.002391
11 0.002275
12 0.002089
13 0.001976
14 0.001895
15 0.001798
16 0.001719
17 0.001617
18 0.001532
19 0.001375
20 0.001270
21 0.001225
22 0.001229
23 0.001364
24 0.001482
25 0.001593
26 0.001660
27 0.001710
28 0.001776
29 0.001780
30 0.001842
31 0.001817
32 0.001840
33 0.001886
34 0.001966
35 0.002066
36 0.002161
37 0.002120
38 0.002094
39 0.002122
40 0.002124
41 0.002132
42 0.002169
43 0.002141
44 0.002092
45 0.002033
46 0.002021
47 0.001951
48 0.001750
49 0.001615
50 0.001560
51 0.001536
52 0.001486
53 0.001465
54 0.001431
55 0.001406
56 0.001437
57 0.001529
58 0.001640
59 0.001653
60 0.001606
61 0.001490
62 0.001427
63 0.001395
64 0.001295
65 0.001194
66 0.001071
67 0.001040
68 0.001046
69 0.001044
70 0.000986
71 0.000966
72 0.000913
73 0.000845
74 0.000844
75 0.000777
76 0.000728
77 0.000714
78 0.000707
79 0.000646
80 0.000632
81 0.000672
82 0.000733
83 0.000794
84 0.000814
85 0.000760
86 0.000771
87 0.000799
88 0.000847
89 0.000879
90 0.000836
91 0.000796
92 0.000913
93 0.000993
94 0.001008
95 0.000987
96 0.000955
97 0.000968
98 0.000974
99 0.000921
100 0.000901
101 0.000876
102 0.000864
103 0.000776
104 0.000756
105 0.000734
106 0.000625
107 0.000565
108 0.000432
109 0.000307
110 0.000250
111 0.000177
112 0.000128
113 0.000060
114 0.000054
115 0.000079
116 0.000153
117 0.000186
118 0.000234
119 0.000208
120 0.000197
121 0.000220
122 0.000255
123 0.000258
124 0.000204
125 0.000216
126 0.000151
127 0.000171
128 0.000244
129 0.000269
130 0.000297
131 0.000318
132 0.000403
133 0.000470
134 0.000517
135 0.000479
136 0.000432
137 0.000341
138 0.000285
139 0.000239
140 0.000239
141 0.000187
142 0.000122
143 0.000097
144 0.000058
145 -0.000026
146 0.000023
147 0.000077
148 0.000086
149 0.000057
150 0.000043
151 0.000116
152 0.000179
153 0.000154
154 0.000121
155 0.000099
156 0.000031
157 0.000012
158 0.000029
159 0.000013
160 0.000027
161 0.000033
162 0.000014
163 0.000021
164 0.000032
165 0.000081
166 0.000043
167 0.000025
168 0.000070
169 0.000118
170 0.000150
171 0.000145
172 0.000196
173 0.000189
174 0.000220
175 0.000267
176 0.000324
177 0.000332
178 0.000321
179 0.000414
180 0.000500
181 0.000530
182 0.000528
183 0.000567
184 0.000569
185 0.000540
186 0.000516
187 0.000484
188 0.000487
189 0.000435
190 0.000461
191 0.000532
192 0.000585
193 0.000631
194 0.000644
195 0.000599
196 0.000529
197 0.000486
198 0.000471
199 0.000474
200 0.000386
201 0.000265
202 0.000222
203 0.000138
204 0.000046
205 0.000039
206 0.000010
207 0.000018
208 0.000055
209 0.000094
210 0.000111
211 0.000208
212 0.000261
213 0.000216
214 0.000181
215 0.000222
216 0.000268
217 0.000359
218 0.000525
219 0.000671
220 0.000753
221 0.000842
222 0.000924
223 0.000947
224 0.000927
225 0.000913
226 0.000894
227 0.000894
228 0.000905
229 0.000911
230 0.000874
231 0.000755
232 0.000751
233 0.000764
234 0.000809
235 0.000877
236 0.000880
237 0.000807
238 0.000777
239 0.000800
240 0.000753
241 0.000772
242 0.000759
243 0.000763
244 0.000784
245 0.000862
246 0.000882
247 0.000871
248 0.000929
249 0.000952
250 0.000997
251 0.001047
252 0.001107
253 0.001145
254 0.001244
255 0.001297
256 0.001315
257 0.001328
258 0.001368
259 0.001395
260 0.001352
261 0.001304
262 0.001262
263 0.001210
264 0.001169
265 0.001154
266 0.001185
267 0.001183
268 0.001206
269 0.001219
270 0.001161
271 0.001106
272 0.001068
273 0.001007
274 0.000983
275 0.000939
276 0.000960
277 0.001026
278 0.001066
279 0.001141
280 0.001285
281 0.001425
282 0.001492
283 0.001488
284 0.001470
285 0.001443
286 0.001448
287 0.001471
288 0.001443
289 0.001391
290 0.001406
291 0.001448
292 0.001527
293 0.001571
294 0.001586
295 0.001595
296 0.001554
297 0.001543
298 0.001452
299 0.001330
300 0.001194
301 0.001151
302 0.001124
303 0.001091
304 0.001053
305 0.001017
306 0.001015
307 0.001033
308 0.001052
309 0.001072
310 0.001071
311 0.001074
312 0.001158
313 0.001214
314 0.001170
315 0.001153
316 0.001187
317 0.001244
318 0.001251
319 0.001305
320 0.001310
321 0.001260
322 0.001230
323 0.001266
324 0.001227
325 0.001191
326 0.001176
327 0.001188
328 0.001121
329 0.001018
330 0.000940
331 0.000863
332 0.000752
333 0.000715
334 0.000709
335 0.000721
336 0.000676
337 0.000743
338 0.000769
339 0.000802
340 0.000829
341 0.000766
342 0.000689
343 0.000668
344 0.000678
345 0.000641
346 0.000612
347 0.000593
348 0.000588
349 0.000615
350 0.000649
351 0.000737
352 0.000854
353 0.000950
354 0.000947
355 0.000977
356 0.000957
357 0.000945
358 0.000871
359 0.000806
360 0.000806
361 0.000896
362 0.000926
363 0.000962
364 0.000939
365 0.000908
366 0.000905
367 0.000866
368 0.000820
369 0.000779
370 0.000758
371 0.000725
372 0.000690
373 0.000690
374 0.000650
375 0.000625
376 0.000647
377 0.000620
378 0.000543
379 0.000532
380 0.000526
381 0.000472
382 0.000434
383 0.000373
384 0.000280
385 0.000187
386 0.000167
387 0.000169
388 0.000119
389 0.000064
390 0.000089
391 0.000138
392 0.000171
393 0.000192
394 0.000214
395 0.000232
396 0.000226
397 0.000251
398 0.000279
399 0.000309
400 0.000350
401 0.000388
402 0.000413
403 0.000428
404 0.000435
405 0.000436
406 0.000452
407 0.000519
408 0.000578
409 0.000611
410 0.000623
411 0.000618
412 0.000575
413 0.000554
414 0.000546
415 0.000571
416 0.000558
417 0.000593
418 0.000660
419 0.000662
420 0.000671
421 0.000680
422 0.000624
423 0.000587
424 0.000536
425 0.000430
426 0.000377
427 0.000351
428 0.000304
429 0.000268
430 0.000211
431 0.000204
432 0.000144
433 0.000093
434 0.000099
435 0.000126
436 0.000084
437 0.000074
438 0.000036
439 0.000039
440 0.000056
441 0.000130
442 0.000171
443 0.000140
444 0.000159
445 0.000249
446 0.000279
447 0.000271
448 0.000215
449 0.000189
450 0.000191
451 0.000180
452 0.000158
453 0.000179
454 0.000192
455 0.000209
456 0.000194
457 0.000183
458 0.000182
459 0.000186
460 0.000205
461 0.000203
462 0.000207
463 0.000226
464 0.000261
465 0.000296
466 0.000303
467 0.000317
468 0.000321
469 0.000354
470 0.000346
471 0.000399
472 0.000388
473 0.000390
474 0.000396
475 0.000408
476 0.000405
477 0.000371
478 0.000370
479 0.000320
480 0.000337
481 0.000352
482 0.000307
483 0.000243
484 0.000219
485 0.000191
486 0.000178
487 0.000159
488 0.000142
489 0.000161
490 0.000149
491 0.000155
492 0.000173
493 0.000149
494 0.000077
495 0.000051
496 0.000015
497 -0.000061
498 -0.000119
499 -0.000110
500 -0.000074
501 -0.000037
502 -0.000030
503 0.000005
504 0.000062
505 0.000119
506 0.000126
507 0.000154
508 0.000183
509 0.000229
510 0.000286
511 0.000297
512 0.000268
513 0.000248
514 0.000223
515 0.000229
516 0.000257
517 0.000233
518 0.000222
519 0.000233
520 0.000211
521 0.000148
522 0.000073
523 0.000044
524 -0.000004
525 -0.000027
526 -0.000059
527 -0.000087
528 -0.000074
529 -0.000068
530 -0.000084
531 -0.000090
532 -0.000068
533 -0.000022
534 0.000025
535 0.000064
536 0.000104
537 0.000114
538 0.000161
539 0.000202
540 0.000210
541 0.000204
542 0.000216
543 0.000225
544 0.000238
545 0.000270
546 0.000337
547 0.000397
548 0.000428
549 0.000438
550 0.000418
551 0.000448
552 0.000509
553 0.000508
554 0.000394
555 0.000312
556 0.000227
557 0.000173
558 0.000127
559 0.000086
560 0.000097
561 0.000099
562 0.000134
563 0.000217
564 0.000279
565 0.000271
566 0.000256
567 0.000233
568 0.000252
569 0.000294
570 0.000330
571 0.000358
572 0.000356
573 0.000407
574 0.000467
575 0.000530
576 0.000581
577 0.000547
578 0.000584
579 0.000581
580 0.000552
581 0.000523
582 0.000471
583 0.000420
584 0.000297
585 0.000242
586 0.000149
587 0.000100
588 0.000102
589 0.000118
590 0.000063
591 0.000039
592 0.000037
593 0.000048
594 0.000100
595 0.000095
596 0.000109
597 0.000132
598 0.000154
599 0.000216
600 0.000248
601 0.000289
602 0.000308
603 0.000359
604 0.000394
605 0.000446
606 0.000517
607 0.000553
608 0.000553
609 0.000569
610 0.000594
611 0.000647
612 0.000679
613 0.000670
614 0.000686
615 0.000724
616 0.000693
617 0.000639
618 0.000565
619 0.000497
620 0.000470
621 0.000458
622 0.000460
623 0.000388
624 0.000338
625 0.000316
626 0.000290
627 0.000257
628 0.000217
629 0.000231
630 0.000209
631 0.000179
632 0.000174
633 0.000170
634 0.000183
635 0.000237
636 0.000290
637 0.000303
638 0.000305
639 0.000350
640 0.000414
641 0.000466
642 0.000489
643 0.000521
644 0.000542
645 0.000565
646 0.000573
647 0.000575
648 0.000564
649 0.000549
650 0.000582
651 0.000570
652 0.000593
653 0.000617
654 0.000624
655 0.000615
656 0.000633
657 0.000665
658 0.000677
659 0.000688
660 0.000668
661 0.000629
662 0.000621
663 0.000634
664 0.000656
665 0.000652
666 0.000665
667 0.000651
668 0.000659
669 0.000639
670 0.000610
671 0.000564
672 0.000508
673 0.000465
674 0.000434
675 0.000442
676 0.000440
677 0.000418
678 0.000371
679 0.000303
680 0.000293
681 0.000275
682 0.000263
683 0.000283
684 0.000278
685 0.000277
686 0.000272
687 0.000278
688 0.000278
689 0.000267
690 0.000230
691 0.000200
692 0.000200
693 0.000210
694 0.000216
695 0.000234
696 0.000245
697 0.000199
698 0.000232
699 0.000303
700 0.000356
701 0.000402
702 0.000401
703 0.000469
704 0.000517
705 0.000511
706 0.000488
707 0.000438
708 0.000374
709 0.000327
710 0.000332
711 0.000325
712 0.000349
713 0.000415
714 0.000449
715 0.000422
716 0.000401
717 0.000394
718 0.000379
719 0.000371
720 0.000337
721 0.000320
722 0.000319
723 0.000299
724 0.000252
725 0.000187
726 0.000165
727 0.000217
728 0.000273
729 0.000320
730 0.000347
731 0.000377
732 0.000367
733 0.000345
734 0.000357
735 0.000357
736 0.000366
737 0.000385
738 0.000380
739 0.000358
740 0.000356
741 0.000331
742 0.000293
743 0.000287
744 0.000300
745 0.000337
746 0.000359
747 0.000362
748 0.000350
749 0.000317
750 0.000273
751 0.000216
752 0.000199
753 0.000161
754 0.000130
755 0.000112
756 0.000079
757 0.000085
758 0.000098
759 0.000113
760 0.000093
761 0.000089
762 0.000134
763 0.000172
764 0.000197
765 0.000203
766 0.000202
767 0.000173
768 0.000161
769 0.000162
770 0.000173
771 0.000188
772 0.000211
773 0.000258
774 0.000253
775 0.000261
776 0.000236
777 0.000206
778 0.000171
779 0.000122
780 0.000130
781 0.000162
782 0.000156
783 0.000115
784 0.000084
785 0.000048
786 0.000002
787 0.000016
788 0.000017
789 -0.000018
790 -0.000059
791 -0.000091
792 -0.000097
793 -0.000116
794 -0.000119
795 -0.000149
796 -0.000139
797 -0.000108
798 -0.000055
799 -0.000021
800 -0.000023
801 -0.000039
802 -0.000061
803 -0.000069
804 -0.000093
805 -0.000070
806 -0.000058
807 -0.000068
808 -0.000071
809 -0.000094
