# i correlation
1 0.006478
2 0.005756
3 0.005158
4 0.004642
5 0.004240
6 0.003953
7 0.003748
8 0.003609
9 0.003470
10 0.003397
11 0.003317
12 0.003300
13 0.003305
14 0.003409
15 0.003504
16 0.003504
17 0.003435
18 0.003356
19 0.003235
20 0.003132
21 0.003058
22 0.003038
23 0.003028
24 0.002989
25 0.002915
26 0.002807
27 0.002717
28 0.002594
29 0.002465
30 0.002308
31 0.002218
32 0.002215
33 0.002142
34 0.002091
35 0.002026
36 0.001970
37 0.001918
38 0.001819
39 0.001753
40 0.001765
41 0.001782
42 0.001789
43 0.001740
44 0.001710
45 0.001669
46 0.001603
47 0.001637
48 0.001669
49 0.001695
50 0.001689
51 0.001714
52 0.001755
53 0.001677
54 0.001622
55 0.001554
56 0.001484
57 0.001455
58 0.001484
59 0.001527
60 0.001519
61 0.001487
62 0.001418
63 0.001418
64 0.001384
65 0.001447
66 0.001497
67 0.001605
68 0.001654
69 0.001648
70 0.001573
71 0.001602
72 0.001719
73 0.001764
74 0.001690
75 0.001689
76 0.001766
77 0.001829
78 0.001777
79 0.001706
80 0.001610
81 0.001580
82 0.001567
83 0.001627
84 0.001637
85 0.001623
86 0.001605
87 0.001595
88 0.001582
89 0.001605
90 0.001639
91 0.001672
92 0.001700
93 0.001738
94 0.001773
95 0.001801
96 0.001730
97 0.001646
98 0.001650
99 0.001707
100 0.001778
101 0.001814
102 0.001801
103 0.001816
104 0.001787
105 0.001791
106 0.001760
107 0.001786
108 0.001812
109 0.001782
110 0.001749
111 0.001713
112 0.001593
113 0.001591
114 0.001589
115 0.001674
116 0.001747
117 0.001820
118 0.001828
119 0.001818
120 0.001770
121 0.001637
122 0.001479
123 0.001388
124 0.001349
125 0.001316
126 0.001307
127 0.001351
128 0.001382
129 0.001344
130 0.001328
131 0.001393
132 0.001372
133 0.001382
134 0.001444
135 0.001473
136 0.001440
137 0.001344
138 0.001240
139 0.001154
140 0.001127
141 0.001094
142 0.001116
143 0.001130
144 0.001113
145 0.001027
146 0.000912
147 0.000808
148 0.000762
149 0.000790
150 0.000844
151 0.000882
152 0.000919
153 0.001012
154 0.001066
155 0.001064
156 0.001121
157 0.001118
158 0.001135
159 0.001192
160 0.001247
161 0.001184
162 0.001153
163 0.001139
164 0.001052
165 0.000991
166 0.000932
167 0.000905
168 0.000883
169 0.000840
170 0.000785
171 0.000802
172 0.000866
173 0.000941
174 0.000999
175 0.001069
176 0.001110
177 0.001098
178 0.001134
179 0.001124
180 0.001160
181 0.001101
182 0.001007
183 0.000980
184 0.000894
185 0.000819
186 0.000750
187 0.000690
188 0.000735
189 0.000750
190 0.000843
191 0.000934
192 0.001023
193 0.001053
194 0.001111
195 0.001167
196 0.001171
197 0.001155
198 0.001097
199 0.001034
200 0.001009
201 0.001002
202 0.000960
203 0.000981
204 0.000959
205 0.000892
206 0.000782
207 0.000729
208 0.000687
209 0.000689
210 0.000732
211 0.000755
212 0.000747
213 0.000623
214 0.000537
215 0.000431
216 0.000331
217 0.000228
218 0.000188
219 0.000166
220 0.000259
221 0.000307
222 0.000374
223 0.000373
224 0.000357
225 0.000416
226 0.000456
227 0.000456
228 0.000457
229 0.000427
230 0.000367
231 0.000327
232 0.000331
233 0.000293
234 0.000347
235 0.000394
236 0.000416
237 0.000447
238 0.000455
239 0.000425
240 0.000370
241 0.000339
242 0.000325
243 0.000264
244 0.000259
245 0.000253
246 0.000276
247 0.000304
248 0.000383
249 0.000471
250 0.000484
251 0.000446
252 0.000423
253 0.000383
254 0.000328
255 0.000246
256 0.000177
257 0.000226
258 0.000250
259 0.000288
260 0.000305
261 0.000274
262 0.000240
263 0.000281
264 0.000264
265 0.000222
266 0.000245
267 0.000290
268 0.000305
269 0.000307
270 0.000343
271 0.000319
272 0.000296
273 0.000319
274 0.000289
275 0.000183
276 0.000108
277 0.000017
278 -0.000034
279 -0.000071
280 -0.000076
281 -0.000023
282 -0.000019
283 0.000084
284 0.000163
285 0.000216
286 0.000306
287 0.000390
288 0.000449
289 0.000454
290 0.000426
291 0.000456
292 0.000396
293 0.000361
294 0.000319
295 0.000246
296 0.000142
297 -0.000023
298 -0.000086
299 -0.000133
300 -0.000189
301 -0.000152
302 -0.000142
303 -0.000121
304 -0.000180
305 -0.000199
306 -0.000181
307 -0.000125
308 -0.000084
309 -0.000065
310 -0.000060
311 -0.000043
312 -0.000069
313 -0.000057
314 -0.000086
315 -0.000097
316 -0.000157
317 -0.000221
318 -0.000251
319 -0.000302
320 -0.000354
321 -0.000371
322 -0.000416
323 -0.000524
324 -0.000647
325 -0.000663
326 -0.000690
327 -0.000765
328 -0.000807
329 -0.000855
330 -0.000907
331 -0.000876
332 -0.000866
333 -0.000835
334 -0.000827
335 -0.000765
336 -0.000659
337 -0.000587
338 -0.000506
339 -0.000486
340 -0.000394
341 -0.000336
342 -0.000349
343 -0.000316
344 -0.000348
345 -0.000332
346 -0.000353
347 -0.000425
348 -0.000487
349 -0.000516
350 -0.000509
351 -0.000490
352 -0.000470
353 -0.000462
354 -0.000400
355 -0.000287
356 -0.000154
357 -0.000032
358 0.000007
359 0.000055
360 0.000105
361 0.000093
362 0.000104
363 0.000197
364 0.000268
365 0.000309
366 0.000292
367 0.000249
368 0.000273
369 0.000221
370 0.000245
371 0.000258
372 0.000311
373 0.000394
374 0.000506
375 0.000523
376 0.000498
377 0.000441
378 0.000457
379 0.000478
380 0.000504
381 0.000564
382 0.000534
383 0.000530
384 0.000582
385 0.000630
386 0.000715
387 0.000797
388 0.000875
389 0.000917
390 0.000924
391 0.000966
392 0.000979
393 0.000946
394 0.000926
395 0.000910
396 0.000856
397 0.000789
398 0.000746
399 0.000645
400 0.000615
401 0.000691
402 0.000707
403 0.000745
404 0.000764
405 0.000726
406 0.000728
407 0.000678
408 0.000603
409 0.000578
410 0.000576
411 0.000516
412 0.000465
413 0.000386
414 0.000343
415 0.000338
416 0.000321
417 0.000271
418 0.000193
419 0.000089
420 0.000016
421 -0.000013
422 0.000020
423 0.000082
424 0.000101
425 0.000082
426 0.000100
427 0.000092
428 0.000059
429 0.000088
430 0.000151
431 0.000139
432 0.000133
433 0.000129
434 0.000019
435 -0.000108
436 -0.000196
437 -0.000288
438 -0.000370
439 -0.000412
440 -0.000426
441 -0.000414
442 -0.000431
443 -0.000385
444 -0.000357
445 -0.000261
446 -0.000185
447 -0.000156
448 -0.000153
449 -0.000169
450 -0.000242
451 -0.000270
452 -0.000284
453 -0.000299
454 -0.000260
455 -0.000237
456 -0.000229
457 -0.000217
458 -0.000201
459 -0.000187
460 -0.000146
461 -0.000076
462 0.000037
463 0.000128
464 0.000189
465 0.000158
466 0.000113
467 0.000067
468 0.000075
469 0.000127
470 0.000123
471 0.000112
472 0.000075
473 0.000071
474 0.000083
475 0.000110
476 0.000115
477 0.000152
478 0.000207
479 0.000293
480 0.000365
481 0.000410
482 0.000482
483 0.000518
484 0.000554
485 0.000544
486 0.000499
487 0.000443
488 0.000409
489 0.000346
490 0.000273
491 0.000221
492 0.000147
493 0.000066
494 0.000092
495 0.000174
496 0.000283
497 0.000292
498 0.000324
499 0.000378
500 0.000356
501 0.000347
502 0.000257
503 0.000195
504 0.000154
505 0.000172
506 0.000180
507 0.000144
508 0.000158
509 0.000130
510 0.000144
511 0.000145
512 0.000139
513 0.000097
514 0.000052
515 0.000001
516 -0.000011
517 -0.000021
518 -0.000076
519 -0.000164
520 -0.000207
521 -0.000194
522 -0.000147
523 -0.000055
524 -0.000019
525 0.000024
526 -0.000004
527 -0.000071
528 -0.000132
529 -0.000148
530 -0.000130
531 -0.000068
532 -0.000002
533 0.000042
534 0.000037
535 0.000069
536 0.000074
537 0.000138
538 0.000136
539 0.000133
540 0.000210
541 0.000280
542 0.000256
543 0.000239
544 0.000199
545 0.000159
546 0.000148
547 0.000177
548 0.000235
549 0.000282
550 0.000321
551 0.000335
552 0.000325
553 0.000276
554 0.000255
555 0.000232
556 0.000249
557 0.000258
558 0.000258
559 0.000254
560 0.000261
561 0.000271
562 0.000293
563 0.000317
564 0.000379
565 0.000380
566 0.000402
567 0.000359
568 0.000317
569 0.000235
570 0.000137
571 0.000082
572 0.000094
573 0.000106
574 0.000130
575 0.000145
576 0.000122
577 0.000155
578 0.000134
579 0.000093
580 0.000069
581 0.000039
582 0.000026
583 0.000016
584 0.000033
585 0.000046
586 0.000052
587 0.000009
588 0.000004
589 0.000051
590 0.000101
591 0.000082
592 0.000040
593 -0.000001
594 -0.000011
595 0.000039
596 0.000072
597 0.000082
598 0.000122
599 0.000179
600 0.000185
601 0.000165
602 0.000101
603 0.000009
604 -0.000014
605 -0.000048
606 -0.000043
607 -0.000064
608 -0.000061
609 -0.000042
610 -0.000074
611 -0.000132
612 -0.000166
613 -0.000155
614 -0.000162
615 -0.000215
616 -0.000274
617 -0.000334
618 -0.000393
619 -0.000461
620 -0.000517
621 -0.000581
622 -0.000610
623 -0.000557
624 -0.000481
625 -0.000431
626 -0.000358
627 -0.000290
628 -0.000271
629 -0.000240
630 -0.000275
631 -0.000291
632 -0.000296
633 -0.000310
634 -0.000311
635 -0.000301
636 -0.000282
637 -0.000308
638 -0.000286
639 -0.000258
640 -0.000209
641 -0.000120
642 -0.000058
643 -0.000040
644 -0.000012
645 -0.000014
646 -0.000037
647 -0.000082
648 -0.000127
649 -0.000143
650 -0.000139
651 -0.000079
652 -0.000052
653 -0.000047
654 -0.000067
655 -0.000080
656 -0.000095
657 -0.000068
658 0.000015
659 0.000111
660 0.000150
661 0.000203
662 0.000195
663 0.000165
664 0.000137
665 0.000126
666 0.000102
667 0.000159
668 0.000197
669 0.000188
670 0.000121
671 0.000067
672 0.000071
673 0.000074
674 0.000086
675 0.000099
676 0.000118
677 0.000128
678 0.000073
679 0.000076
680 0.000044
681 0.000046
682 0.000037
683 0.000033
684 0.000001
685 0.000004
686 -0.000018
687 -0.000051
688 -0.000113
689 -0.000156
690 -0.000151
691 -0.000119
692 -0.000158
693 -0.000175
694 -0.000183
695 -0.000195
696 -0.000169
697 -0.000129
698 -0.000169
699 -0.000183
700 -0.000165
701 -0.000173
702 -0.000201
703 -0.000215
704 -0.000230
705 -0.000232
706 -0.000208
707 -0.000245
708 -0.000229
709 -0.000238
710 -0.000274
711 -0.000302
712 -0.000327
713 -0.000336
714 -0.000341
715 -0.000335
716 -0.000306
717 -0.000248
718 -0.000213
719 -0.000179
720 -0.000184
721 -0.000220
722 -0.000251
723 -0.000298
724 -0.000299
725 -0.000335
726 -0.000367
727 -0.000399
728 -0.000408
729 -0.000403
730 -0.000389
731 -0.000366
732 -0.000293
733 -0.000260
734 -0.000213
735 -0.000213
736 -0.000200
737 -0.000192
738 -0.000208
739 -0.000239
740 -0.000236
741 -0.000265
742 -0.000271
743 -0.000288
744 -0.000214
745 -0.000148
746 -0.000094
747 -0.000054
748 -0.000033
749 -0.000036
750 -0.000067
751 -0.000099
752 -0.000124
753 -0.000139
754 -0.000136
755 -0.000133
756 -0.000147
757 -0.000138
758 -0.000086
759 -0.000042
760 0.000008
761 0.000037
762 0.000069
763 0.000092
764 0.000082
765 0.000046
766 0.000025
767 0.000008
768 0.000014
769 0.000071
770 0.000107
771 0.000130
772 0.000143
773 0.000156
774 0.000185
775 0.000201
776 0.000243
777 0.000250
778 0.000247
779 0.000226
780 0.000195
781 0.000164
782 0.000150
783 0.000129
784 0.000117
785 0.000133
786 0.000169
787 0.000208
788 0.000229
789 0.000268
790 0.000296
791 0.000298
792 0.000295
793 0.000269
794 0.000240
795 0.000209
796 0.000194
797 0.000200
798 0.000221
799 0.000256
800 0.000257
801 0.000256
802 0.000263
803 0.000273
804 0.000268
805 0.000256
806 0.000221
807 0.000211
808 0.000179
809 0.000148
