# i correlation
1 0.005243
2 0.004554
3 0.004029
4 0.003560
5 0.003147
6 0.002811
7 0.002492
8 0.002258
9 0.002121
10 0.001890
11 0.001674
12 0.001556
13 0.001543
14 0.001554
15 0.001508
16 0.001408
17 0.001280
18 0.001291
19 0.001321
20 0.001374
21 0.001395
22 0.001469
23 0.001514
24 0.001469
25 0.001411
26 0.001345
27 0.001325
28 0.001313
29 0.001276
30 0.001273
31 0.001270
32 0.001237
33 0.001136
34 0.001056
35 0.001025
36 0.000976
37 0.000906
38 0.000778
39 0.000667
40 0.000578
41 0.000495
42 0.000454
43 0.000470
44 0.000500
45 0.000555
46 0.000672
47 0.000787
48 0.000848
49 0.000887
50 0.000951
51 0.001043
52 0.001148
53 0.001196
54 0.001216
55 0.001199
56 0.001152
57 0.001060
58 0.000957
59 0.000927
60 0.000924
61 0.000894
62 0.000860
63 0.000725
64 0.000657
65 0.000604
66 0.000535
67 0.000508
68 0.000491
69 0.000541
70 0.000607
71 0.000642
72 0.000693
73 0.000683
74 0.000620
75 0.000571
76 0.000587
77 0.000609
78 0.000697
79 0.000724
80 0.000712
81 0.000725
82 0.000810
83 0.000859
84 0.000881
85 0.000907
86 0.000790
87 0.000782
88 0.000816
89 0.000700
90 0.000663
91 0.000663
92 0.000584
93 0.000501
94 0.000416
95 0.000299
96 0.000234
97 0.000269
98 0.000345
99 0.000329
100 0.000361
101 0.000449
102 0.000479
103 0.000480
104 0.000450
105 0.000376
106 0.000322
107 0.000242
108 0.000158
109 0.000129
110 0.000171
111 0.000171
112 0.000186
113 0.000274
114 0.000272
115 0.000197
116 0.000113
117 0.000094
118 0.000015
119 -0.000058
120 -0.000052
121 -0.000010
122 -0.000005
123 -0.000033
124 -0.000039
125 -0.000057
126 -0.000037
127 -0.000045
128 -0.000025
129 0.000029
130 0.000036
131 0.000102
132 0.000187
133 0.000305
134 0.000466
135 0.000599
136 0.000602
137 0.000624
138 0.000540
139 0.000438
140 0.000380
141 0.000305
142 0.000282
143 0.000254
144 0.000220
145 0.000227
146 0.000269
147 0.000325
148 0.000360
149 0.000445
150 0.000481
151 0.000418
152 0.000316
153 0.000321
154 0.000297
155 0.000364
156 0.000426
157 0.000536
158 0.000556
159 0.000511
160 0.000504
161 0.000525
162 0.000614
163 0.000646
164 0.000647
165 0.000557
166 0.000484
167 0.000387
168 0.000303
169 0.000189
170 0.000118
171 0.000071
172 0.000043
173 0.000012
174 -0.000085
175 -0.000165
176 -0.000189
177 -0.000170
178 -0.000229
179 -0.000301
180 -0.000287
181 -0.000200
182 -0.000108
183 -0.000008
184 0.000075
185 0.000098
186 0.000207
187 0.000256
188 0.000242
189 0.000269
190 0.000217
191 0.000166
192 0.000126
193 0.000190
194 0.000203
195 0.000240
196 0.000283
197 0.000288
198 0.000324
199 0.000384
200 0.000424
201 0.000474
202 0.000567
203 0.000591
204 0.000625
205 0.000649
206 0.000615
207 0.000600
208 0.000650
209 0.000704
210 0.000735
211 0.000760
212 0.000785
213 0.000775
214 0.000838
215 0.000937
216 0.000985
217 0.001044
218 0.001089
219 0.001109
220 0.001080
221 0.000963
222 0.000929
223 0.000873
224 0.000887
225 0.000911
226 0.000875
227 0.000864
228 0.000806
229 0.000706
230 0.000588
231 0.000514
232 0.000417
233 0.000417
234 0.000412
235 0.000431
236 0.000465
237 0.000503
238 0.000520
239 0.000512
240 0.000513
241 0.000483
242 0.000442
243 0.000341
244 0.000254
245 0.000189
246 0.000197
247 0.000247
248 0.000284
249 0.000354
250 0.000446
251 0.000470
252 0.000431
253 0.000371
254 0.000385
255 0.000391
256 0.000360
257 0.000323
258 0.000317
259 0.000349
260 0.000402
261 0.000390
262 0.000349
263 0.000344
264 0.000394
265 0.000447
266 0.000525
267 0.000622
268 0.000694
269 0.000720
270 0.000725
271 0.000728
272 0.000788
273 0.000810
274 0.000907
275 0.000902
276 0.000871
277 0.000873
278 0.000852
279 0.000806
280 0.000772
281 0.000777
282 0.000751
283 0.000709
284 0.000710
285 0.000665
286 0.000637
287 0.000628
288 0.000583
289 0.000522
290 0.000561
291 0.000561
292 0.000534
293 0.000519
294 0.000503
295 0.000468
296 0.000469
297 0.000510
298 0.000542
299 0.000560
300 0.000604
301 0.000635
302 0.000651
303 0.000699
304 0.000716
305 0.000662
306 0.000683
307 0.000645
308 0.000580
309 0.000501
310 0.000435
311 0.000352
312 0.000306
313 0.000266
314 0.000179
315 0.000190
316 0.000095
317 0.000059
318 0.000063
319 0.000089
320 0.000121
321 0.000188
322 0.000220
323 0.000207
324 0.000195
325 0.000139
326 0.000101
327 0.000087
328 0.000154
329 0.000210
330 0.000302
331 0.000348
332 0.000340
333 0.000350
334 0.000312
335 0.000211
336 0.000096
337 0.000011
338 -0.000036
339 -0.000059
340 -0.000096
341 -0.000191
342 -0.000245
343 -0.000317
344 -0.000289
345 -0.000246
346 -0.000247
347 -0.000286
348 -0.000270
349 -0.000204
350 -0.000118
351 -0.000055
352 -0.000032
353 -0.000008
354 0.000030
355 0.000088
356 0.000053
357 0.000079
358 0.000098
359 0.000101
360 0.000125
361 0.000090
362 0.000067
363 0.000077
364 0.000074
365 0.000119
366 0.000125
367 0.000083
368 0.000054
369 0.000034
370 -0.000024
371 -0.000067
372 -0.000049
373 -0.000064
374 -0.000095
375 -0.000123
376 -0.000195
377 -0.000218
378 -0.000225
379 -0.000248
380 -0.000247
381 -0.000259
382 -0.000264
383 -0.000307
384 -0.000371
385 -0.000372
386 -0.000350
387 -0.000340
388 -0.000275
389 -0.000251
390 -0.000277
391 -0.000221
392 -0.000187
393 -0.000170
394 -0.000144
395 -0.000116
396 -0.000149
397 -0.000165
398 -0.000201
399 -0.000253
400 -0.000254
401 -0.000244
402 -0.000194
403 -0.000140
404 -0.000132
405 -0.000184
406 -0.000197
407 -0.000278
408 -0.000323
409 -0.000307
410 -0.000332
411 -0.000335
412 -0.000317
413 -0.000252
414 -0.000205
415 -0.000133
416 -0.000061
417 0.000023
418 0.000036
419 -0.000001
420 -0.000083
421 -0.000134
422 -0.000141
423 -0.000107
424 -0.000005
425 0.000014
426 -0.000001
427 0.000051
428 0.000062
429 0.000070
430 0.000090
431 0.000072
432 0.000103
433 0.000085
434 0.000043
435 0.000006
436 -0.000011
437 -0.000046
438 -0.000068
439 -0.000086
440 -0.000102
441 -0.000130
442 -0.000107
443 -0.000077
444 -0.000071
445 -0.000088
446 -0.000142
447 -0.000150
448 -0.000152
449 -0.000146
450 -0.000147
451 -0.000156
452 -0.000140
453 -0.000172
454 -0.000207
455 -0.000284
456 -0.000369
457 -0.000488
458 -0.000579
459 -0.000637
460 -0.000665
461 -0.000687
462 -0.000623
463 -0.000551
464 -0.000490
465 -0.000430
466 -0.000353
467 -0.000284
468 -0.000210
469 -0.000188
470 -0.000176
471 -0.000194
472 -0.000225
473 -0.000252
474 -0.000277
475 -0.000258
476 -0.000218
477 -0.000191
478 -0.000181
479 -0.000129
480 -0.000166
481 -0.000215
482 -0.000283
483 -0.000291
484 -0.000270
485 -0.000239
486 -0.000195
487 -0.000131
488 -0.000157
489 -0.000156
490 -0.000168
491 -0.000182
492 -0.000167
493 -0.000188
494 -0.000162
495 -0.000118
496 -0.000089
497 -0.000091
498 -0.000124
499 -0.000134
500 -0.000144
501 -0.000084
502 -0.000071
503 -0.000128
504 -0.000164
505 -0.000223
506 -0.000259
507 -0.000306
508 -0.000312
509 -0.000370
510 -0.000426
511 -0.000495
512 -0.000552
513 -0.000653
514 -0.000653
515 -0.000539
516 -0.000380
517 -0.000277
518 -0.000258
519 -0.000270
520 -0.000284
521 -0.000284
522 -0.000265
523 -0.000252
524 -0.000271
525 -0.000320
526 -0.000356
527 -0.000367
528 -0.000402
529 -0.000421
530 -0.000364
531 -0.000322
532 -0.000291
533 -0.000290
534 -0.000307
535 -0.000327
536 -0.000378
537 -0.000401
538 -0.000408
539 -0.000414
540 -0.000436
541 -0.000468
542 -0.000505
543 -0.000550
544 -0.000604
545 -0.000653
546 -0.000656
547 -0.000665
548 -0.000627
549 -0.000588
550 -0.000548
551 -0.000498
552 -0.000396
553 -0.000247
554 -0.000199
555 -0.000182
556 -0.000152
557 -0.000131
558 -0.000171
559 -0.000188
560 -0.000257
561 -0.000279
562 -0.000283
563 -0.000330
564 -0.000352
565 -0.000412
566 -0.000397
567 -0.000360
568 -0.000360
569 -0.000370
570 -0.000331
571 -0.000300
572 -0.000281
573 -0.000247
574 -0.000208
575 -0.000133
576 -0.000111
577 -0.000018
578 0.000036
579 0.000039
580 0.000069
581 0.000048
582 -0.000006
583 -0.000062
584 -0.000076
585 -0.000124
586 -0.000176
587 -0.000161
588 -0.000153
589 -0.000086
590 -0.000094
591 -0.000139
592 -0.000163
593 -0.000194
594 -0.000245
595 -0.000323
596 -0.000386
597 -0.000441
598 -0.000473
599 -0.000435
600 -0.000377
601 -0.000329
602 -0.000275
603 -0.000246
604 -0.000230
605 -0.000159
606 -0.000139
607 -0.000086
608 -0.000042
609 -0.000003
610 -0.000018
611 -0.000051
612 -0.000047
613 -0.000048
614 -0.000039
615 -0.000052
616 -0.000113
617 -0.000155
618 -0.000188
619 -0.000235
620 -0.000305
621 -0.000331
622 -0.000328
623 -0.000284
624 -0.000236
625 -0.000226
626 -0.000230
627 -0.000218
628 -0.000224
629 -0.000221
630 -0.000211
631 -0.000165
632 -0.000082
633 -0.000041
634 -0.000023
635 -0.000005
636 0.000053
637 0.000069
638 0.000064
639 0.000085
640 0.000100
641 0.000097
642 0.000080
643 0.000031
644 0.000021
645 0.000015
646 0.000017
647 -0.000018
648 -0.000054
649 -0.000025
650 0.000011
651 0.000083
652 0.000115
653 0.000125
654 0.000143
655 0.000173
656 0.000131
657 0.000092
658 0.000075
659 0.000085
660 0.000076
661 0.000030
662 0.000015
663 0.000026
664 0.000050
665 0.000092
666 0.000120
667 0.000154
668 0.000205
669 0.000264
670 0.000270
671 0.000262
672 0.000260
673 0.000260
674 0.000242
675 0.000171
676 0.000084
677 0.000046
678 0.000060
679 0.000061
680 0.000010
681 -0.000045
682 -0.000103
683 -0.000143
684 -0.000133
685 -0.000134
686 -0.000169
687 -0.000165
688 -0.000137
689 -0.000135
690 -0.000111
691 -0.000088
692 -0.000082
693 -0.000050
694 -0.000041
695 -0.000052
696 -0.000098
697 -0.000108
698 -0.000147
699 -0.000135
700 -0.000123
701 -0.000066
702 -0.000027
703 0.000030
704 0.000088
705 0.000102
706 0.000125
707 0.000100
708 0.000040
709 -0.000012
710 -0.000009
711 -0.000035
712 -0.000019
713 -0.000039
714 -0.000071
715 -0.000101
716 -0.000116
717 -0.000120
718 -0.000133
719 -0.000152
720 -0.000174
721 -0.000176
722 -0.000211
723 -0.000200
724 -0.000161
725 -0.000154
726 -0.000125
727 -0.000108
728 -0.000132
729 -0.000180
730 -0.000204
731 -0.000277
732 -0.000327
733 -0.000330
734 -0.000316
735 -0.000333
736 -0.000319
737 -0.000292
738 -0.000265
739 -0.000238
740 -0.000214
741 -0.000219
742 -0.000210
743 -0.000226
744 -0.000263
745 -0.000274
746 -0.000258
747 -0.000226
748 -0.000217
749 -0.000188
750 -0.000176
751 -0.000167
752 -0.000138
753 -0.000153
754 -0.000175
755 -0.000196
756 -0.000186
757 -0.000113
758 -0.000051
759 -0.000035
760 -0.000012
761 0.000024
762 0.000019
763 0.000004
764 -0.000049
765 -0.000083
766 -0.000059
767 -0.000066
768 -0.000124
769 -0.000149
770 -0.000165
771 -0.000151
772 -0.000128
773 -0.000131
774 -0.000171
775 -0.000194
776 -0.000223
777 -0.000250
778 -0.000288
779 -0.000325
780 -0.000336
781 -0.000322
782 -0.000289
783 -0.000304
784 -0.000306
785 -0.000297
786 -0.000306
787 -0.000325
788 -0.000315
789 -0.000263
790 -0.000235
791 -0.000214
792 -0.000206
793 -0.000211
794 -0.000192
795 -0.000158
796 -0.000159
797 -0.000153
798 -0.000155
799 -0.000147
800 -0.000120
801 -0.000109
802 -0.000100
803 -0.000102
804 -0.000092
805 -0.000087
806 -0.000093
807 -0.000101
808 -0.000081
809 -0.000057
