# i correlation
1 0.004787
2 0.003988
3 0.003285
4 0.002754
5 0.002392
6 0.002132
7 0.001766
8 0.001494
9 0.001229
10 0.001173
11 0.001164
12 0.001215
13 0.001268
14 0.001223
15 0.001178
16 0.001077
17 0.001048
18 0.001059
19 0.001038
20 0.000973
21 0.001003
22 0.000985
23 0.001023
24 0.001048
25 0.001120
26 0.001183
27 0.001215
28 0.001232
29 0.001163
30 0.000987
31 0.000879
32 0.000790
33 0.000727
34 0.000725
35 0.000754
36 0.000836
37 0.000915
38 0.001001
39 0.001121
40 0.001308
41 0.001422
42 0.001493
43 0.001475
44 0.001321
45 0.001103
46 0.000979
47 0.000879
48 0.000771
49 0.000684
50 0.000701
51 0.000598
52 0.000631
53 0.000651
54 0.000753
55 0.000865
56 0.000927
57 0.000919
58 0.000898
59 0.000880
60 0.000854
61 0.000865
62 0.000845
63 0.000850
64 0.000917
65 0.001045
66 0.001063
67 0.001130
68 0.001115
69 0.001085
70 0.000999
71 0.000936
72 0.000778
73 0.000697
74 0.000618
75 0.000527
76 0.000409
77 0.000389
78 0.000392
79 0.000470
80 0.000519
81 0.000553
82 0.000612
83 0.000717
84 0.000797
85 0.000771
86 0.000651
87 0.000437
88 0.000232
89 0.000151
90 0.000077
91 0.000051
92 0.000052
93 0.000077
94 0.000100
95 0.000133
96 0.000137
97 0.000136
98 0.000126
99 0.000159
100 0.000078
101 0.000030
102 0.000125
103 0.000242
104 0.000358
105 0.000534
106 0.000697
107 0.000878
108 0.001015
109 0.001094
110 0.001088
111 0.001064
112 0.000928
113 0.000817
114 0.000707
115 0.000684
116 0.000755
117 0.000841
118 0.000924
119 0.001018
120 0.001038
121 0.001082
122 0.001044
123 0.001030
124 0.001197
125 0.001309
126 0.001342
127 0.001337
128 0.001261
129 0.001171
130 0.001081
131 0.000987
132 0.000982
133 0.000907
134 0.000924
135 0.000929
136 0.000899
137 0.000838
138 0.000845
139 0.000887
140 0.000923
141 0.000877
142 0.000820
143 0.000713
144 0.000686
145 0.000726
146 0.000715
147 0.000717
148 0.000719
149 0.000743
150 0.000764
151 0.000723
152 0.000642
153 0.000596
154 0.000537
155 0.000416
156 0.000412
157 0.000446
158 0.000508
159 0.000527
160 0.000594
161 0.000601
162 0.000605
163 0.000635
164 0.000736
165 0.000787
166 0.000831
167 0.000876
168 0.000898
169 0.000862
170 0.000896
171 0.000916
172 0.000938
173 0.000986
174 0.001022
175 0.001078
176 0.001132
177 0.001193
178 0.001228
179 0.001161
180 0.001064
181 0.000982
182 0.000919
183 0.000864
184 0.000810
185 0.000822
186 0.000801
187 0.000697
188 0.000602
189 0.000551
190 0.000617
191 0.000710
192 0.000764
193 0.000783
194 0.000757
195 0.000709
196 0.000689
197 0.000685
198 0.000662
199 0.000669
200 0.000694
201 0.000801
202 0.000846
203 0.000924
204 0.000984
205 0.000962
206 0.000940
207 0.000892
208 0.000815
209 0.000748
210 0.000699
211 0.000597
212 0.000487
213 0.000433
214 0.000417
215 0.000354
216 0.000219
217 0.000096
218 0.000044
219 -0.000009
220 -0.000080
221 -0.000121
222 -0.000261
223 -0.000324
224 -0.000302
225 -0.000199
226 -0.000097
227 0.000050
228 0.000154
229 0.000286
230 0.000315
231 0.000387
232 0.000454
233 0.000555
234 0.000688
235 0.000828
236 0.000835
237 0.000802
238 0.000724
239 0.000630
240 0.000542
241 0.000515
242 0.000535
243 0.000616
244 0.000663
245 0.000649
246 0.000613
247 0.000626
248 0.000671
249 0.000672
250 0.000677
251 0.000690
252 0.000654
253 0.000659
254 0.000576
255 0.000534
256 0.000530
257 0.000515
258 0.000544
259 0.000598
260 0.000629
261 0.000705
262 0.000609
263 0.000547
264 0.000521
265 0.000540
266 0.000576
267 0.000586
268 0.000537
269 0.000515
270 0.000530
271 0.000573
272 0.000529
273 0.000457
274 0.000448
275 0.000455
276 0.000515
277 0.000601
278 0.000604
279 0.000601
280 0.000537
281 0.000454
282 0.000470
283 0.000481
284 0.000512
285 0.000598
286 0.000597
287 0.000560
288 0.000561
289 0.000635
290 0.000661
291 0.000629
292 0.000622
293 0.000613
294 0.000649
295 0.000636
296 0.000607
297 0.000560
298 0.000547
299 0.000542
300 0.000584
301 0.000610
302 0.000653
303 0.000734
304 0.000747
305 0.000693
306 0.000689
307 0.000665
308 0.000712
309 0.000758
310 0.000846
311 0.000930
312 0.001020
313 0.001055
314 0.001074
315 0.001005
316 0.000923
317 0.000925
318 0.000960
319 0.000895
320 0.000886
321 0.000819
322 0.000770
323 0.000741
324 0.000683
325 0.000594
326 0.000523
327 0.000431
328 0.000313
329 0.000231
330 0.000175
331 0.000181
332 0.000203
333 0.000112
334 0.000050
335 0.000051
336 0.000012
337 0.000028
338 0.000083
339 0.000144
340 0.000117
341 0.000073
342 0.000067
343 0.000120
344 0.000169
345 0.000153
346 0.000148
347 0.000095
348 0.000047
349 0.000034
350 0.000137
351 0.000200
352 0.000188
353 0.000213
354 0.000204
355 0.000168
356 0.000187
357 0.000194
358 0.000189
359 0.000188
360 0.000234
361 0.000230
362 0.000211
363 0.000247
364 0.000249
365 0.000179
366 0.000112
367 0.000114
368 0.000181
369 0.000266
370 0.000247
371 0.000159
372 0.000061
373 0.000002
374 0.000065
375 0.000138
376 0.000149
377 0.000226
378 0.000280
379 0.000316
380 0.000272
381 0.000256
382 0.000242
383 0.000255
384 0.000245
385 0.000328
386 0.000334
387 0.000365
388 0.000385
389 0.000394
390 0.000379
391 0.000417
392 0.000379
393 0.000356
394 0.000350
395 0.000342
396 0.000427
397 0.000433
398 0.000422
399 0.000339
400 0.000276
401 0.000230
402 0.000200
403 0.000234
404 0.000257
405 0.000276
406 0.000323
407 0.000371
408 0.000411
409 0.000490
410 0.000475
411 0.000475
412 0.000428
413 0.000363
414 0.000294
415 0.000275
416 0.000224
417 0.000220
418 0.000193
419 0.000197
420 0.000203
421 0.000222
422 0.000221
423 0.000148
424 0.000128
425 0.000106
426 0.000074
427 0.000120
428 0.000178
429 0.000274
430 0.000393
431 0.000502
432 0.000591
433 0.000699
434 0.000799
435 0.000869
436 0.000944
437 0.001026
438 0.001107
439 0.001164
440 0.001146
441 0.001064
442 0.001007
443 0.000950
444 0.000927
445 0.000906
446 0.000885
447 0.000814
448 0.000783
449 0.000711
450 0.000678
451 0.000654
452 0.000659
453 0.000623
454 0.000574
455 0.000539
456 0.000534
457 0.000458
458 0.000433
459 0.000426
460 0.000397
461 0.000397
462 0.000439
463 0.000474
464 0.000467
465 0.000401
466 0.000311
467 0.000315
468 0.000379
469 0.000387
470 0.000436
471 0.000446
472 0.000435
473 0.000471
474 0.000561
475 0.000627
476 0.000678
477 0.000677
478 0.000656
479 0.000668
480 0.000702
481 0.000698
482 0.000652
483 0.000605
484 0.000526
485 0.000499
486 0.000499
487 0.000491
488 0.000511
489 0.000485
490 0.000443
491 0.000380
492 0.000352
493 0.000405
494 0.000448
495 0.000524
496 0.000578
497 0.000532
498 0.000503
499 0.000466
500 0.000409
501 0.000353
502 0.000337
503 0.000317
504 0.000333
505 0.000315
506 0.000334
507 0.000298
508 0.000290
509 0.000285
510 0.000306
511 0.000377
512 0.000381
513 0.000402
514 0.000467
515 0.000515
516 0.000541
517 0.000571
518 0.000568
519 0.000565
520 0.000536
521 0.000509
522 0.000456
523 0.000425
524 0.000387
525 0.000339
526 0.000273
527 0.000163
528 0.000067
529 0.000008
530 -0.000087
531 -0.000141
532 -0.000204
533 -0.000216
534 -0.000234
535 -0.000177
536 -0.000120
537 -0.000017
538 0.000067
539 0.000131
540 0.000137
541 0.000208
542 0.000255
543 0.000287
544 0.000287
545 0.000307
546 0.000272
547 0.000295
548 0.000316
549 0.000379
550 0.000380
551 0.000336
552 0.000303
553 0.000299
554 0.000387
555 0.000450
556 0.000502
557 0.000472
558 0.000479
559 0.000471
560 0.000521
561 0.000530
562 0.000525
563 0.000464
564 0.000434
565 0.000440
566 0.000462
567 0.000471
568 0.000463
569 0.000464
570 0.000466
571 0.000463
572 0.000429
573 0.000422
574 0.000385
575 0.000349
576 0.000269
577 0.000226
578 0.000247
579 0.000371
580 0.000426
581 0.000492
582 0.000498
583 0.000492
584 0.000450
585 0.000429
586 0.000374
587 0.000357
588 0.000341
589 0.000343
590 0.000324
591 0.000318
592 0.000350
593 0.000357
594 0.000343
595 0.000368
596 0.000379
597 0.000411
598 0.000409
599 0.000376
600 0.000362
601 0.000342
602 0.000373
603 0.000395
604 0.000464
605 0.000503
606 0.000538
607 0.000535
608 0.000534
609 0.000544
610 0.000581
611 0.000530
612 0.000533
613 0.000484
614 0.000459
615 0.000478
616 0.000462
617 0.000472
618 0.000454
619 0.000388
620 0.000379
621 0.000406
622 0.000454
623 0.000477
624 0.000437
625 0.000415
626 0.000337
627 0.000298
628 0.000298
629 0.000292
630 0.000271
631 0.000174
632 0.000056
633 -0.000004
634 -0.000016
635 0.000031
636 0.000052
637 0.000025
638 0.000011
639 -0.000041
640 0.000001
641 0.000018
642 0.000016
643 0.000012
644 0.000075
645 0.000097
646 0.000148
647 0.000164
648 0.000147
649 0.000138
650 0.000149
651 0.000118
652 0.000106
653 0.000096
654 0.000082
655 0.000048
656 0.000047
657 0.000028
658 -0.000023
659 -0.000037
660 -0.000081
661 -0.000114
662 -0.000088
663 -0.000056
664 -0.000001
665 0.000040
666 0.000042
667 0.000032
668 -0.000005
669 -0.000039
670 -0.000084
671 -0.000116
672 -0.000131
673 -0.000119
674 -0.000061
675 0.000011
676 0.000056
677 0.000134
678 0.000157
679 0.000109
680 0.000099
681 0.000094
682 0.000088
683 0.000088
684 0.000070
685 0.000048
686 0.000020
687 0.000040
688 0.000084
689 0.000135
690 0.000220
691 0.000211
692 0.000211
693 0.000186
694 0.000171
695 0.000103
696 0.000051
697 -0.000000
698 -0.000040
699 -0.000022
700 0.000038
701 0.000070
702 0.000058
703 0.000029
704 -0.000026
705 -0.000059
706 -0.000051
707 -0.000037
708 -0.000083
709 -0.000086
710 -0.000142
711 -0.000129
712 -0.000084
713 -0.000036
714 0.000008
715 0.000019
716 0.000015
717 0.000052
718 0.000066
719 0.000111
720 0.000128
721 0.000132
722 0.000100
723 0.000048
724 0.000030
725 0.000018
726 0.000018
727 0.000065
728 0.000122
729 0.000194
730 0.000256
731 0.000294
732 0.000299
733 0.000278
734 0.000247
735 0.000211
736 0.000143
737 0.000066
738 0.000003
739 -0.000037
740 -0.000053
741 -0.000040
742 -0.000035
743 -0.000049
744 -0.000041
745 -0.000031
746 0.000018
747 0.000073
748 0.000087
749 0.000096
750 0.000084
751 0.000040
752 0.000017
753 -0.000006
754 0.000014
755 0.000069
756 0.000151
757 0.000223
758 0.000221
759 0.000258
760 0.000252
761 0.000223
762 0.000185
763 0.000102
764 0.000017
765 -0.000069
766 -0.000172
767 -0.000235
768 -0.000234
769 -0.000184
770 -0.000130
771 -0.000087
772 -0.000018
773 0.000019
774 0.000067
775 0.000079
776 0.000073
777 0.000022
778 -0.000049
779 -0.000129
780 -0.000178
781 -0.000218
782 -0.000202
783 -0.000136
784 -0.000070
785 0.000002
786 0.000037
787 0.000082
788 0.000102
789 0.000096
790 0.000107
791 0.000080
792 0.000027
793 0.000002
794 -0.000031
795 -0.000044
796 -0.000017
797 0.000005
798 0.000041
799 0.000061
800 0.000084
801 0.000122
802 0.000146
803 0.000156
804 0.000113
805 0.000052
806 0.000004
807 -0.000061
808 -0.000097
809 -0.000149
