# i correlation
1 0.007785
2 0.007111
3 0.006514
4 0.005976
5 0.005488
6 0.005062
7 0.004765
8 0.004511
9 0.004283
10 0.004081
11 0.003892
12 0.003667
13 0.003501
14 0.003445
15 0.003449
16 0.003460
17 0.003427
18 0.003397
19 0.003385
20 0.003295
21 0.003104
22 0.002902
23 0.002714
24 0.002519
25 0.002372
26 0.002194
27 0.002035
28 0.001878
29 0.001768
30 0.001719
31 0.001665
32 0.001561
33 0.001536
34 0.001532
35 0.001569
36 0.001678
37 0.001861
38 0.001992
39 0.002147
40 0.002271
41 0.002387
42 0.002519
43 0.002487
44 0.002503
45 0.002483
46 0.002393
47 0.002392
48 0.002373
49 0.002402
50 0.002360
51 0.002309
52 0.002298
53 0.002311
54 0.002323
55 0.002308
56 0.002372
57 0.002515
58 0.002643
59 0.002721
60 0.002775
61 0.002846
62 0.002847
63 0.002845
64 0.002790
65 0.002736
66 0.002688
67 0.002656
68 0.002643
69 0.002596
70 0.002483
71 0.002358
72 0.002229
73 0.002169
74 0.002090
75 0.001963
76 0.001942
77 0.001996
78 0.002142
79 0.002152
80 0.002165
81 0.002189
82 0.002181
83 0.002153
84 0.002187
85 0.002247
86 0.002348
87 0.002449
88 0.002489
89 0.002539
90 0.002526
91 0.002504
92 0.002530
93 0.002601
94 0.002659
95 0.002673
96 0.002667
97 0.002679
98 0.002661
99 0.002662
100 0.002722
101 0.002796
102 0.002844
103 0.002879
104 0.002874
105 0.002848
106 0.002807
107 0.002799
108 0.002725
109 0.002650
110 0.002559
111 0.002523
112 0.002472
113 0.002413
114 0.002349
115 0.002308
116 0.002243
117 0.002244
118 0.002283
119 0.002316
120 0.002416
121 0.002504
122 0.002603
123 0.002695
124 0.002674
125 0.002627
126 0.002544
127 0.002466
128 0.002300
129 0.002186
130 0.002117
131 0.002093
132 0.002116
133 0.002000
134 0.001985
135 0.001954
136 0.001938
137 0.001825
138 0.001685
139 0.001637
140 0.001535
141 0.001455
142 0.001438
143 0.001450
144 0.001466
145 0.001516
146 0.001571
147 0.001613
148 0.001680
149 0.001733
150 0.001803
151 0.001836
152 0.001792
153 0.001643
154 0.001592
155 0.001524
156 0.001486
157 0.001458
158 0.001521
159 0.001542
160 0.001569
161 0.001601
162 0.001591
163 0.001585
164 0.001561
165 0.001573
166 0.001570
167 0.001568
168 0.001486
169 0.001446
170 0.001407
171 0.001398
172 0.001379
173 0.001393
174 0.001475
175 0.001527
176 0.001595
177 0.001623
178 0.001667
179 0.001752
180 0.001807
181 0.001824
182 0.001841
183 0.001883
184 0.001875
185 0.001896
186 0.001945
187 0.001916
188 0.001900
189 0.001936
190 0.001948
191 0.001955
192 0.002003
193 0.002115
194 0.002189
195 0.002180
196 0.002209
197 0.002262
198 0.002289
199 0.002314
200 0.002335
201 0.002327
202 0.002243
203 0.002158
204 0.002068
205 0.001980
206 0.001814
207 0.001710
208 0.001667
209 0.001617
210 0.001561
211 0.001519
212 0.001551
213 0.001618
214 0.001655
215 0.001709
216 0.001801
217 0.001862
218 0.001848
219 0.001862
220 0.001846
221 0.001836
222 0.001729
223 0.001680
224 0.001672
225 0.001575
226 0.001441
227 0.001348
228 0.001247
229 0.001120
230 0.001004
231 0.000917
232 0.000872
233 0.000845
234 0.000809
235 0.000794
236 0.000803
237 0.000850
238 0.000974
239 0.001093
240 0.001143
241 0.001202
242 0.001253
243 0.001374
244 0.001369
245 0.001332
246 0.001312
247 0.001321
248 0.001317
249 0.001329
250 0.001346
251 0.001376
252 0.001424
253 0.001479
254 0.001605
255 0.001675
256 0.001691
257 0.001798
258 0.001876
259 0.001891
260 0.001856
261 0.001792
262 0.001721
263 0.001708
264 0.001661
265 0.001628
266 0.001647
267 0.001622
268 0.001655
269 0.001655
270 0.001654
271 0.001645
272 0.001644
273 0.001622
274 0.001600
275 0.001587
276 0.001544
277 0.001477
278 0.001411
279 0.001350
280 0.001364
281 0.001449
282 0.001579
283 0.001685
284 0.001749
285 0.001830
286 0.001869
287 0.001822
288 0.001749
289 0.001630
290 0.001599
291 0.001533
292 0.001452
293 0.001396
294 0.001351
295 0.001289
296 0.001252
297 0.001289
298 0.001274
299 0.001263
300 0.001330
301 0.001435
302 0.001511
303 0.001527
304 0.001509
305 0.001535
306 0.001590
307 0.001644
308 0.001722
309 0.001787
310 0.001855
311 0.001904
312 0.001950
313 0.001992
314 0.002037
315 0.002085
316 0.002167
317 0.002236
318 0.002244
319 0.002256
320 0.002269
321 0.002287
322 0.002280
323 0.002291
324 0.002328
325 0.002336
326 0.002306
327 0.002288
328 0.002307
329 0.002274
330 0.002206
331 0.002080
332 0.001967
333 0.001828
334 0.001732
335 0.001624
336 0.001518
337 0.001457
338 0.001349
339 0.001280
340 0.001212
341 0.001168
342 0.001114
343 0.001093
344 0.001178
345 0.001253
346 0.001373
347 0.001442
348 0.001504
349 0.001516
350 0.001512
351 0.001489
352 0.001403
353 0.001302
354 0.001177
355 0.001083
356 0.000988
357 0.000907
358 0.000857
359 0.000869
360 0.000920
361 0.000994
362 0.001105
363 0.001215
364 0.001353
365 0.001457
366 0.001604
367 0.001697
368 0.001804
369 0.001923
370 0.002042
371 0.002089
372 0.002113
373 0.002070
374 0.002010
375 0.001982
376 0.001911
377 0.001892
378 0.001894
379 0.001922
380 0.001888
381 0.001826
382 0.001764
383 0.001709
384 0.001594
385 0.001496
386 0.001446
387 0.001434
388 0.001464
389 0.001450
390 0.001435
391 0.001448
392 0.001435
393 0.001451
394 0.001421
395 0.001394
396 0.001293
397 0.001203
398 0.001142
399 0.001041
400 0.000923
401 0.000834
402 0.000801
403 0.000819
404 0.000827
405 0.000890
406 0.000954
407 0.001034
408 0.001147
409 0.001233
410 0.001323
411 0.001411
412 0.001466
413 0.001524
414 0.001571
415 0.001656
416 0.001713
417 0.001797
418 0.001856
419 0.001853
420 0.001807
421 0.001734
422 0.001708
423 0.001633
424 0.001587
425 0.001510
426 0.001481
427 0.001468
428 0.001415
429 0.001443
430 0.001482
431 0.001530
432 0.001609
433 0.001676
434 0.001723
435 0.001733
436 0.001706
437 0.001688
438 0.001640
439 0.001531
440 0.001502
441 0.001443
442 0.001409
443 0.001323
444 0.001256
445 0.001168
446 0.001137
447 0.001108
448 0.001138
449 0.001126
450 0.001141
451 0.001205
452 0.001277
453 0.001265
454 0.001172
455 0.001107
456 0.001043
457 0.001026
458 0.000977
459 0.000941
460 0.000922
461 0.000890
462 0.000853
463 0.000786
464 0.000754
465 0.000727
466 0.000738
467 0.000776
468 0.000801
469 0.000842
470 0.000883
471 0.000948
472 0.000996
473 0.001051
474 0.001031
475 0.001031
476 0.001022
477 0.000970
478 0.000883
479 0.000804
480 0.000742
481 0.000706
482 0.000685
483 0.000682
484 0.000653
485 0.000595
486 0.000533
487 0.000494
488 0.000383
489 0.000333
490 0.000351
491 0.000376
492 0.000400
493 0.000454
494 0.000468
495 0.000521
496 0.000546
497 0.000564
498 0.000585
499 0.000591
500 0.000614
501 0.000665
502 0.000701
503 0.000710
504 0.000670
505 0.000667
506 0.000675
507 0.000688
508 0.000694
509 0.000751
510 0.000767
511 0.000748
512 0.000746
513 0.000751
514 0.000785
515 0.000828
516 0.000880
517 0.000926
518 0.001011
519 0.000975
520 0.000986
521 0.000963
522 0.000934
523 0.000895
524 0.000879
525 0.000861
526 0.000800
527 0.000746
528 0.000702
529 0.000709
530 0.000700
531 0.000669
532 0.000603
533 0.000567
534 0.000488
535 0.000416
536 0.000312
537 0.000250
538 0.000196
539 0.000210
540 0.000236
541 0.000222
542 0.000155
543 0.000146
544 0.000140
545 0.000162
546 0.000173
547 0.000154
548 0.000117
549 0.000107
550 0.000067
551 0.000057
552 0.000056
553 0.000053
554 0.000088
555 0.000075
556 0.000041
557 -0.000002
558 -0.000015
559 0.000017
560 0.000033
561 0.000030
562 0.000061
563 0.000103
564 0.000144
565 0.000219
566 0.000321
567 0.000421
568 0.000500
569 0.000634
570 0.000733
571 0.000797
572 0.000847
573 0.000862
574 0.000877
575 0.000890
576 0.000897
577 0.000897
578 0.000875
579 0.000809
580 0.000733
581 0.000622
582 0.000568
583 0.000534
584 0.000533
585 0.000576
586 0.000584
587 0.000640
588 0.000681
589 0.000704
590 0.000712
591 0.000771
592 0.000797
593 0.000772
594 0.000758
595 0.000699
596 0.000718
597 0.000679
598 0.000616
599 0.000524
600 0.000419
601 0.000331
602 0.000296
603 0.000272
604 0.000229
605 0.000155
606 0.000080
607 0.000051
608 0.000001
609 0.000002
610 -0.000027
611 -0.000056
612 -0.000043
613 -0.000039
614 -0.000038
615 -0.000066
616 -0.000081
617 -0.000027
618 0.000024
619 0.000083
620 0.000101
621 0.000116
622 0.000118
623 0.000106
624 0.000140
625 0.000104
626 0.000114
627 0.000175
628 0.000167
629 0.000156
630 0.000166
631 0.000223
632 0.000318
633 0.000416
634 0.000503
635 0.000550
636 0.000570
637 0.000599
638 0.000609
639 0.000561
640 0.000513
641 0.000478
642 0.000441
643 0.000400
644 0.000378
645 0.000363
646 0.000364
647 0.000366
648 0.000388
649 0.000346
650 0.000298
651 0.000280
652 0.000248
653 0.000228
654 0.000227
655 0.000206
656 0.000194
657 0.000215
658 0.000198
659 0.000165
660 0.000115
661 0.000092
662 0.000061
663 0.000072
664 0.000117
665 0.000184
666 0.000239
667 0.000261
668 0.000240
669 0.000232
670 0.000214
671 0.000186
672 0.000203
673 0.000200
674 0.000193
675 0.000232
676 0.000293
677 0.000320
678 0.000339
679 0.000299
680 0.000291
681 0.000294
682 0.000291
683 0.000347
684 0.000400
685 0.000487
686 0.000532
687 0.000575
688 0.000595
689 0.000595
690 0.000597
691 0.000643
692 0.000712
693 0.000743
694 0.000781
695 0.000834
696 0.000885
697 0.000880
698 0.000888
699 0.000889
700 0.000880
701 0.000870
702 0.000853
703 0.000869
704 0.000882
705 0.000888
706 0.000884
707 0.000848
708 0.000805
709 0.000741
710 0.000696
711 0.000668
712 0.000657
713 0.000600
714 0.000598
715 0.000564
716 0.000549
717 0.000546
718 0.000522
719 0.000510
720 0.000491
721 0.000471
722 0.000428
723 0.000382
724 0.000355
725 0.000352
726 0.000335
727 0.000338
728 0.000343
729 0.000318
730 0.000287
731 0.000208
732 0.000193
733 0.000206
734 0.000247
735 0.000313
736 0.000370
737 0.000406
738 0.000415
739 0.000434
740 0.000427
741 0.000466
742 0.000467
743 0.000482
744 0.000524
745 0.000571
746 0.000590
747 0.000576
748 0.000545
749 0.000514
750 0.000482
751 0.000452
752 0.000438
753 0.000453
754 0.000446
755 0.000437
756 0.000449
757 0.000424
758 0.000420
759 0.000433
760 0.000456
761 0.000470
762 0.000466
763 0.000504
764 0.000526
765 0.000514
766 0.000515
767 0.000528
768 0.000500
769 0.000485
770 0.000489
771 0.000490
772 0.000505
773 0.000482
774 0.000455
775 0.000424
776 0.000400
777 0.000392
778 0.000422
779 0.000459
780 0.000521
781 0.000560
782 0.000604
783 0.000667
784 0.000715
785 0.000748
786 0.000804
787 0.000830
788 0.000858
789 0.000871
790 0.000892
791 0.000874
792 0.000860
793 0.000859
794 0.000833
795 0.000817
796 0.000784
797 0.000757
798 0.000747
799 0.000709
800 0.000702
801 0.000685
802 0.000666
803 0.000675
804 0.000662
805 0.000634
806 0.000600
807 0.000573
808 0.000535
809 0.000517
