# i correlation
1 0.005519
2 0.004845
3 0.004341
4 0.003890
5 0.003447
6 0.003123
7 0.002864
8 0.002688
9 0.002465
10 0.002248
11 0.002089
12 0.001923
13 0.001779
14 0.001718
15 0.001599
16 0.001605
17 0.001572
18 0.001620
19 0.001572
20 0.001630
21 0.001675
22 0.001659
23 0.001634
24 0.001623
25 0.001643
26 0.001627
27 0.001576
28 0.001558
29 0.001551
30 0.001512
31 0.001484
32 0.001487
33 0.001371
34 0.001306
35 0.001284
36 0.001246
37 0.001138
38 0.001044
39 0.000891
40 0.000795
41 0.000683
42 0.000579
43 0.000579
44 0.000568
45 0.000546
46 0.000528
47 0.000528
48 0.000555
49 0.000627
50 0.000700
51 0.000819
52 0.000998
53 0.001152
54 0.001241
55 0.001322
56 0.001346
57 0.001333
58 0.001396
59 0.001433
60 0.001466
61 0.001500
62 0.001520
63 0.001518
64 0.001378
65 0.001267
66 0.001226
67 0.001204
68 0.001164
69 0.001092
70 0.001053
71 0.000975
72 0.000894
73 0.000821
74 0.000756
75 0.000745
76 0.000788
77 0.000794
78 0.000780
79 0.000827
80 0.000860
81 0.000965
82 0.000972
83 0.000953
84 0.000948
85 0.000993
86 0.000993
87 0.000939
88 0.000920
89 0.000905
90 0.000910
91 0.000941
92 0.000953
93 0.000996
94 0.001061
95 0.001137
96 0.001102
97 0.001043
98 0.000932
99 0.000809
100 0.000688
101 0.000599
102 0.000579
103 0.000609
104 0.000632
105 0.000598
106 0.000636
107 0.000645
108 0.000641
109 0.000616
110 0.000641
111 0.000715
112 0.000738
113 0.000787
114 0.000812
115 0.000816
116 0.000826
117 0.000782
118 0.000702
119 0.000598
120 0.000579
121 0.000564
122 0.000534
123 0.000463
124 0.000380
125 0.000366
126 0.000353
127 0.000306
128 0.000266
129 0.000332
130 0.000407
131 0.000479
132 0.000567
133 0.000621
134 0.000687
135 0.000651
136 0.000599
137 0.000615
138 0.000626
139 0.000675
140 0.000692
141 0.000734
142 0.000784
143 0.000820
144 0.000818
145 0.000811
146 0.000859
147 0.000912
148 0.000934
149 0.000974
150 0.000982
151 0.000940
152 0.000886
153 0.000866
154 0.000847
155 0.000846
156 0.000844
157 0.000762
158 0.000772
159 0.000770
160 0.000724
161 0.000723
162 0.000686
163 0.000685
164 0.000724
165 0.000667
166 0.000678
167 0.000713
168 0.000637
169 0.000552
170 0.000489
171 0.000440
172 0.000415
173 0.000348
174 0.000368
175 0.000445
176 0.000453
177 0.000478
178 0.000440
179 0.000460
180 0.000455
181 0.000374
182 0.000381
183 0.000395
184 0.000391
185 0.000401
186 0.000379
187 0.000356
188 0.000342
189 0.000260
190 0.000245
191 0.000236
192 0.000225
193 0.000237
194 0.000180
195 0.000106
196 0.000078
197 0.000017
198 0.000040
199 0.000121
200 0.000171
201 0.000230
202 0.000347
203 0.000369
204 0.000414
205 0.000413
206 0.000374
207 0.000309
208 0.000271
209 0.000245
210 0.000247
211 0.000276
212 0.000296
213 0.000235
214 0.000139
215 0.000038
216 -0.000037
217 -0.000082
218 -0.000142
219 -0.000209
220 -0.000189
221 -0.000204
222 -0.000222
223 -0.000207
224 -0.000203
225 -0.000262
226 -0.000293
227 -0.000329
228 -0.000357
229 -0.000313
230 -0.000294
231 -0.000299
232 -0.000293
233 -0.000335
234 -0.000389
235 -0.000431
236 -0.000463
237 -0.000472
238 -0.000469
239 -0.000502
240 -0.000455
241 -0.000458
242 -0.000512
243 -0.000574
244 -0.000630
245 -0.000589
246 -0.000580
247 -0.000538
248 -0.000468
249 -0.000449
250 -0.000449
251 -0.000457
252 -0.000473
253 -0.000507
254 -0.000528
255 -0.000537
256 -0.000552
257 -0.000584
258 -0.000604
259 -0.000595
260 -0.000563
261 -0.000470
262 -0.000376
263 -0.000345
264 -0.000294
265 -0.000216
266 -0.000148
267 -0.000064
268 -0.000026
269 -0.000032
270 -0.000043
271 -0.000116
272 -0.000127
273 -0.000113
274 -0.000074
275 -0.000023
276 -0.000020
277 -0.000007
278 0.000023
279 0.000057
280 0.000085
281 0.000124
282 0.000115
283 0.000135
284 0.000125
285 0.000067
286 0.000030
287 0.000005
288 0.000026
289 -0.000026
290 -0.000040
291 -0.000127
292 -0.000228
293 -0.000258
294 -0.000237
295 -0.000196
296 -0.000137
297 -0.000115
298 -0.000020
299 0.000022
300 0.000058
301 0.000079
302 0.000097
303 0.000112
304 0.000130
305 0.000111
306 0.000127
307 0.000127
308 0.000070
309 0.000018
310 -0.000046
311 -0.000142
312 -0.000255
313 -0.000339
314 -0.000404
315 -0.000437
316 -0.000430
317 -0.000433
318 -0.000407
319 -0.000369
320 -0.000276
321 -0.000176
322 -0.000099
323 -0.000060
324 0.000009
325 0.000033
326 0.000049
327 0.000122
328 0.000158
329 0.000124
330 0.000160
331 0.000194
332 0.000182
333 0.000175
334 0.000113
335 0.000090
336 0.000082
337 0.000039
338 0.000050
339 0.000017
340 -0.000033
341 -0.000027
342 0.000036
343 0.000104
344 0.000185
345 0.000222
346 0.000331
347 0.000384
348 0.000339
349 0.000375
350 0.000341
351 0.000325
352 0.000280
353 0.000260
354 0.000284
355 0.000283
356 0.000282
357 0.000321
358 0.000406
359 0.000490
360 0.000551
361 0.000559
362 0.000552
363 0.000542
364 0.000442
365 0.000349
366 0.000192
367 0.000116
368 -0.000026
369 -0.000135
370 -0.000196
371 -0.000260
372 -0.000324
373 -0.000386
374 -0.000436
375 -0.000446
376 -0.000469
377 -0.000496
378 -0.000491
379 -0.000425
380 -0.000412
381 -0.000321
382 -0.000241
383 -0.000117
384 -0.000039
385 0.000022
386 0.000042
387 0.000118
388 0.000126
389 0.000138
390 0.000138
391 0.000101
392 0.000060
393 0.000048
394 -0.000008
395 -0.000039
396 -0.000096
397 -0.000160
398 -0.000233
399 -0.000269
400 -0.000295
401 -0.000316
402 -0.000380
403 -0.000450
404 -0.000481
405 -0.000537
406 -0.000493
407 -0.000432
408 -0.000411
409 -0.000382
410 -0.000366
411 -0.000296
412 -0.000201
413 -0.000102
414 0.000038
415 0.000235
416 0.000416
417 0.000573
418 0.000603
419 0.000607
420 0.000554
421 0.000485
422 0.000416
423 0.000383
424 0.000329
425 0.000350
426 0.000286
427 0.000213
428 0.000156
429 0.000080
430 0.000014
431 -0.000032
432 -0.000097
433 -0.000145
434 -0.000205
435 -0.000226
436 -0.000261
437 -0.000188
438 -0.000133
439 -0.000140
440 -0.000160
441 -0.000135
442 -0.000099
443 -0.000153
444 -0.000144
445 -0.000155
446 -0.000154
447 -0.000147
448 -0.000131
449 -0.000140
450 -0.000140
451 -0.000149
452 -0.000184
453 -0.000140
454 -0.000078
455 -0.000060
456 -0.000085
457 -0.000135
458 -0.000150
459 -0.000170
460 -0.000182
461 -0.000259
462 -0.000250
463 -0.000270
464 -0.000334
465 -0.000358
466 -0.000372
467 -0.000384
468 -0.000365
469 -0.000268
470 -0.000182
471 -0.000144
472 -0.000117
473 -0.000045
474 0.000026
475 0.000038
476 0.000074
477 0.000120
478 0.000208
479 0.000241
480 0.000259
481 0.000274
482 0.000306
483 0.000340
484 0.000327
485 0.000298
486 0.000291
487 0.000296
488 0.000239
489 0.000159
490 0.000107
491 0.000100
492 0.000080
493 0.000053
494 0.000032
495 0.000002
496 -0.000035
497 -0.000028
498 -0.000003
499 0.000028
500 0.000103
501 0.000122
502 0.000120
503 0.000112
504 0.000151
505 0.000192
506 0.000208
507 0.000230
508 0.000259
509 0.000297
510 0.000356
511 0.000350
512 0.000377
513 0.000409
514 0.000433
515 0.000416
516 0.000394
517 0.000345
518 0.000382
519 0.000349
520 0.000302
521 0.000283
522 0.000293
523 0.000293
524 0.000265
525 0.000237
526 0.000264
527 0.000242
528 0.000209
529 0.000233
530 0.000275
531 0.000248
532 0.000226
533 0.000209
534 0.000224
535 0.000261
536 0.000329
537 0.000335
538 0.000300
539 0.000298
540 0.000271
541 0.000223
542 0.000153
543 0.000053
544 -0.000041
545 -0.000110
546 -0.000191
547 -0.000255
548 -0.000250
549 -0.000220
550 -0.000137
551 -0.000098
552 -0.000171
553 -0.000209
554 -0.000236
555 -0.000263
556 -0.000325
557 -0.000378
558 -0.000382
559 -0.000353
560 -0.000319
561 -0.000319
562 -0.000280
563 -0.000229
564 -0.000211
565 -0.000194
566 -0.000202
567 -0.000186
568 -0.000153
569 -0.000127
570 -0.000079
571 0.000014
572 0.000057
573 0.000120
574 0.000137
575 0.000149
576 0.000150
577 0.000145
578 0.000136
579 0.000158
580 0.000169
581 0.000219
582 0.000190
583 0.000148
584 0.000128
585 0.000135
586 0.000137
587 0.000175
588 0.000188
589 0.000201
590 0.000216
591 0.000246
592 0.000234
593 0.000226
594 0.000270
595 0.000314
596 0.000293
597 0.000275
598 0.000221
599 0.000228
600 0.000207
601 0.000156
602 0.000119
603 0.000144
604 0.000137
605 0.000155
606 0.000153
607 0.000158
608 0.000203
609 0.000209
610 0.000214
611 0.000243
612 0.000287
613 0.000316
614 0.000301
615 0.000308
616 0.000316
617 0.000361
618 0.000341
619 0.000327
620 0.000312
621 0.000364
622 0.000396
623 0.000416
624 0.000430
625 0.000458
626 0.000526
627 0.000539
628 0.000512
629 0.000525
630 0.000554
631 0.000555
632 0.000536
633 0.000538
634 0.000509
635 0.000471
636 0.000426
637 0.000424
638 0.000399
639 0.000367
640 0.000376
641 0.000364
642 0.000355
643 0.000340
644 0.000310
645 0.000266
646 0.000278
647 0.000274
648 0.000275
649 0.000272
650 0.000250
651 0.000220
652 0.000191
653 0.000163
654 0.000159
655 0.000167
656 0.000174
657 0.000196
658 0.000235
659 0.000239
660 0.000230
661 0.000223
662 0.000251
663 0.000278
664 0.000324
665 0.000366
666 0.000431
667 0.000449
668 0.000456
669 0.000443
670 0.000438
671 0.000432
672 0.000394
673 0.000346
674 0.000314
675 0.000302
676 0.000334
677 0.000360
678 0.000370
679 0.000377
680 0.000428
681 0.000431
682 0.000429
683 0.000456
684 0.000533
685 0.000653
686 0.000728
687 0.000790
688 0.000804
689 0.000834
690 0.000863
691 0.000870
692 0.000856
693 0.000856
694 0.000832
695 0.000777
696 0.000732
697 0.000686
698 0.000621
699 0.000525
700 0.000448
701 0.000383
702 0.000344
703 0.000315
704 0.000272
705 0.000248
706 0.000194
707 0.000169
708 0.000129
709 0.000127
710 0.000126
711 0.000158
712 0.000175
713 0.000153
714 0.000179
715 0.000200
716 0.000233
717 0.000249
718 0.000281
719 0.000316
720 0.000318
721 0.000350
722 0.000357
723 0.000369
724 0.000373
725 0.000389
726 0.000350
727 0.000308
728 0.000278
729 0.000240
730 0.000169
731 0.000080
732 0.000039
733 -0.000028
734 -0.000076
735 -0.000082
736 -0.000072
737 -0.000041
738 0.000001
739 0.000061
740 0.000118
741 0.000145
742 0.000186
743 0.000199
744 0.000229
745 0.000263
746 0.000317
747 0.000342
748 0.000371
749 0.000378
750 0.000377
751 0.000346
752 0.000333
753 0.000347
754 0.000325
755 0.000303
756 0.000280
757 0.000247
758 0.000231
759 0.000204
760 0.000219
761 0.000261
762 0.000304
763 0.000319
764 0.000302
765 0.000275
766 0.000269
767 0.000251
768 0.000205
769 0.000182
770 0.000210
771 0.000265
772 0.000328
773 0.000369
774 0.000417
775 0.000470
776 0.000517
777 0.000547
778 0.000568
779 0.000586
780 0.000633
781 0.000663
782 0.000681
783 0.000693
784 0.000703
785 0.000681
786 0.000640
787 0.000577
788 0.000514
789 0.000464
790 0.000439
791 0.000440
792 0.000435
793 0.000424
794 0.000389
795 0.000364
796 0.000375
797 0.000393
798 0.000416
799 0.000407
800 0.000443
801 0.000468
802 0.000504
803 0.000479
804 0.000484
805 0.000480
806 0.000464
807 0.000448
808 0.000445
809 0.000445
