# i correlation
1 0.004971
2 0.004370
3 0.003994
4 0.003649
5 0.003309
6 0.003085
7 0.002929
8 0.002727
9 0.002652
10 0.002518
11 0.002377
12 0.002187
13 0.002018
14 0.001882
15 0.001815
16 0.001718
17 0.001660
18 0.001656
19 0.001619
20 0.001575
21 0.001492
22 0.001403
23 0.001368
24 0.001335
25 0.001225
26 0.001143
27 0.001066
28 0.001024
29 0.000988
30 0.000923
31 0.000828
32 0.000836
33 0.000936
34 0.000933
35 0.000913
36 0.000957
37 0.000912
38 0.000900
39 0.000900
40 0.000927
41 0.000926
42 0.000960
43 0.001095
44 0.001195
45 0.001160
46 0.001174
47 0.001195
48 0.001192
49 0.001201
50 0.001289
51 0.001344
52 0.001372
53 0.001292
54 0.001226
55 0.001265
56 0.001260
57 0.001240
58 0.001213
59 0.001268
60 0.001183
61 0.001149
62 0.001134
63 0.001020
64 0.000935
65 0.000912
66 0.000893
67 0.000882
68 0.000899
69 0.000920
70 0.000916
71 0.000930
72 0.000952
73 0.000924
74 0.000955
75 0.001004
76 0.000972
77 0.000951
78 0.000935
79 0.000830
80 0.000853
81 0.000887
82 0.000930
83 0.000972
84 0.000999
85 0.001072
86 0.001100
87 0.001127
88 0.001160
89 0.001165
90 0.001193
91 0.001228
92 0.001293
93 0.001378
94 0.001478
95 0.001612
96 0.001625
97 0.001542
98 0.001488
99 0.001499
100 0.001520
101 0.001570
102 0.001584
103 0.001598
104 0.001555
105 0.001549
106 0.001491
107 0.001423
108 0.001374
109 0.001316
110 0.001295
111 0.001341
112 0.001306
113 0.001300
114 0.001322
115 0.001271
116 0.001238
117 0.001178
118 0.001168
119 0.001211
120 0.001159
121 0.001128
122 0.001077
123 0.001062
124 0.001041
125 0.001107
126 0.001119
127 0.001125
128 0.001187
129 0.001216
130 0.001184
131 0.001091
132 0.001038
133 0.000947
134 0.000873
135 0.000781
136 0.000751
137 0.000763
138 0.000775
139 0.000783
140 0.000743
141 0.000657
142 0.000562
143 0.000542
144 0.000471
145 0.000411
146 0.000413
147 0.000417
148 0.000375
149 0.000329
150 0.000308
151 0.000310
152 0.000350
153 0.000355
154 0.000303
155 0.000232
156 0.000144
157 0.000115
158 0.000102
159 0.000108
160 0.000165
161 0.000186
162 0.000183
163 0.000220
164 0.000196
165 0.000145
166 0.000048
167 0.000027
168 0.000047
169 0.000065
170 0.000203
171 0.000329
172 0.000415
173 0.000477
174 0.000454
175 0.000462
176 0.000442
177 0.000415
178 0.000376
179 0.000398
180 0.000495
181 0.000581
182 0.000634
183 0.000703
184 0.000733
185 0.000734
186 0.000806
187 0.000838
188 0.000859
189 0.000861
190 0.000922
191 0.000958
192 0.000956
193 0.000944
194 0.000996
195 0.001034
196 0.001070
197 0.001124
198 0.001163
199 0.001218
200 0.001199
201 0.001124
202 0.001059
203 0.001165
204 0.001209
205 0.001200
206 0.001219
207 0.001235
208 0.001210
209 0.001163
210 0.001135
211 0.001071
212 0.001027
213 0.000983
214 0.001037
215 0.001051
216 0.001051
217 0.000961
218 0.000885
219 0.000880
220 0.000859
221 0.000791
222 0.000731
223 0.000709
224 0.000684
225 0.000642
226 0.000647
227 0.000643
228 0.000612
229 0.000592
230 0.000583
231 0.000586
232 0.000629
233 0.000721
234 0.000729
235 0.000733
236 0.000777
237 0.000799
238 0.000798
239 0.000815
240 0.000856
241 0.000843
242 0.000902
243 0.000970
244 0.000950
245 0.000981
246 0.001032
247 0.001052
248 0.001044
249 0.001084
250 0.001081
251 0.001057
252 0.000943
253 0.000861
254 0.000888
255 0.000972
256 0.001030
257 0.001095
258 0.001159
259 0.001219
260 0.001248
261 0.001252
262 0.001247
263 0.001183
264 0.001147
265 0.001179
266 0.001249
267 0.001201
268 0.001143
269 0.001070
270 0.000991
271 0.000922
272 0.000793
273 0.000638
274 0.000503
275 0.000417
276 0.000402
277 0.000357
278 0.000349
279 0.000445
280 0.000464
281 0.000517
282 0.000512
283 0.000554
284 0.000589
285 0.000584
286 0.000626
287 0.000657
288 0.000676
289 0.000677
290 0.000674
291 0.000724
292 0.000793
293 0.000829
294 0.000852
295 0.000955
296 0.000945
297 0.000955
298 0.000993
299 0.000993
300 0.000976
301 0.001022
302 0.001026
303 0.000998
304 0.000984
305 0.000988
306 0.000985
307 0.001017
308 0.001099
309 0.001142
310 0.001167
311 0.001189
312 0.001168
313 0.001129
314 0.001150
315 0.001133
316 0.001076
317 0.001061
318 0.001053
319 0.000997
320 0.000933
321 0.000893
322 0.000828
323 0.000789
324 0.000717
325 0.000675
326 0.000630
327 0.000562
328 0.000508
329 0.000458
330 0.000401
331 0.000394
332 0.000386
333 0.000386
334 0.000356
335 0.000376
336 0.000427
337 0.000435
338 0.000474
339 0.000417
340 0.000375
341 0.000339
342 0.000352
343 0.000410
344 0.000463
345 0.000461
346 0.000462
347 0.000474
348 0.000450
349 0.000392
350 0.000392
351 0.000423
352 0.000460
353 0.000502
354 0.000599
355 0.000610
356 0.000604
357 0.000673
358 0.000750
359 0.000826
360 0.000844
361 0.000896
362 0.000950
363 0.001000
364 0.001065
365 0.001100
366 0.001101
367 0.001117
368 0.001092
369 0.001069
370 0.001067
371 0.001045
372 0.001025
373 0.001008
374 0.000995
375 0.000925
376 0.000880
377 0.000817
378 0.000769
379 0.000764
380 0.000753
381 0.000713
382 0.000621
383 0.000570
384 0.000542
385 0.000527
386 0.000460
387 0.000467
388 0.000461
389 0.000429
390 0.000447
391 0.000448
392 0.000394
393 0.000318
394 0.000281
395 0.000266
396 0.000239
397 0.000238
398 0.000266
399 0.000225
400 0.000200
401 0.000155
402 0.000137
403 0.000173
404 0.000202
405 0.000224
406 0.000240
407 0.000236
408 0.000297
409 0.000377
410 0.000448
411 0.000462
412 0.000485
413 0.000536
414 0.000580
415 0.000543
416 0.000513
417 0.000523
418 0.000548
419 0.000600
420 0.000670
421 0.000700
422 0.000667
423 0.000669
424 0.000676
425 0.000611
426 0.000575
427 0.000552
428 0.000540
429 0.000554
430 0.000596
431 0.000598
432 0.000589
433 0.000605
434 0.000584
435 0.000536
436 0.000497
437 0.000549
438 0.000584
439 0.000626
440 0.000661
441 0.000716
442 0.000763
443 0.000761
444 0.000755
445 0.000704
446 0.000688
447 0.000696
448 0.000713
449 0.000790
450 0.000794
451 0.000747
452 0.000753
453 0.000799
454 0.000872
455 0.000903
456 0.000938
457 0.000979
458 0.000984
459 0.001009
460 0.001026
461 0.001031
462 0.001034
463 0.001034
464 0.001088
465 0.001154
466 0.001181
467 0.001176
468 0.001133
469 0.001104
470 0.001056
471 0.000998
472 0.000925
473 0.000902
474 0.000919
475 0.000923
476 0.000912
477 0.000858
478 0.000859
479 0.000847
480 0.000847
481 0.000800
482 0.000757
483 0.000706
484 0.000630
485 0.000592
486 0.000582
487 0.000572
488 0.000556
489 0.000581
490 0.000625
491 0.000663
492 0.000693
493 0.000723
494 0.000723
495 0.000727
496 0.000719
497 0.000729
498 0.000810
499 0.000869
500 0.000927
501 0.000963
502 0.000970
503 0.000958
504 0.000976
505 0.000947
506 0.000908
507 0.000889
508 0.000901
509 0.000900
510 0.000847
511 0.000835
512 0.000803
513 0.000758
514 0.000716
515 0.000702
516 0.000682
517 0.000684
518 0.000646
519 0.000592
520 0.000505
521 0.000438
522 0.000417
523 0.000364
524 0.000422
525 0.000417
526 0.000465
527 0.000512
528 0.000518
529 0.000504
530 0.000505
531 0.000535
532 0.000499
533 0.000509
534 0.000501
535 0.000474
536 0.000414
537 0.000415
538 0.000448
539 0.000414
540 0.000416
541 0.000433
542 0.000492
543 0.000507
544 0.000548
545 0.000591
546 0.000599
547 0.000641
548 0.000711
549 0.000802
550 0.000902
551 0.001009
552 0.001133
553 0.001146
554 0.001147
555 0.001156
556 0.001143
557 0.001207
558 0.001273
559 0.001300
560 0.001391
561 0.001436
562 0.001475
563 0.001535
564 0.001553
565 0.001499
566 0.001435
567 0.001383
568 0.001336
569 0.001274
570 0.001242
571 0.001201
572 0.001130
573 0.001069
574 0.001016
575 0.000959
576 0.000926
577 0.000891
578 0.000862
579 0.000836
580 0.000827
581 0.000845
582 0.000821
583 0.000826
584 0.000796
585 0.000771
586 0.000765
587 0.000743
588 0.000683
589 0.000574
590 0.000518
591 0.000456
592 0.000426
593 0.000418
594 0.000440
595 0.000448
596 0.000432
597 0.000389
598 0.000342
599 0.000309
600 0.000266
601 0.000278
602 0.000303
603 0.000324
604 0.000401
605 0.000411
606 0.000396
607 0.000412
608 0.000377
609 0.000381
610 0.000340
611 0.000251
612 0.000193
613 0.000165
614 0.000124
615 0.000046
616 0.000030
617 0.000007
618 0.000001
619 0.000037
620 0.000051
621 0.000052
622 0.000084
623 0.000121
624 0.000157
625 0.000185
626 0.000183
627 0.000196
628 0.000208
629 0.000234
630 0.000251
631 0.000239
632 0.000199
633 0.000165
634 0.000107
635 0.000043
636 0.000015
637 0.000031
638 0.000040
639 0.000025
640 0.000018
641 -0.000007
642 -0.000030
643 -0.000048
644 -0.000062
645 -0.000025
646 0.000060
647 0.000127
648 0.000105
649 0.000078
650 0.000062
651 0.000093
652 0.000132
653 0.000176
654 0.000208
655 0.000238
656 0.000294
657 0.000344
658 0.000352
659 0.000358
660 0.000396
661 0.000436
662 0.000423
663 0.000441
664 0.000430
665 0.000433
666 0.000423
667 0.000377
668 0.000340
669 0.000330
670 0.000352
671 0.000380
672 0.000374
673 0.000339
674 0.000345
675 0.000348
676 0.000372
677 0.000408
678 0.000445
679 0.000530
680 0.000594
681 0.000609
682 0.000571
683 0.000535
684 0.000525
685 0.000473
686 0.000406
687 0.000363
688 0.000309
689 0.000300
690 0.000325
691 0.000269
692 0.000192
693 0.000124
694 0.000080
695 0.000045
696 0.000015
697 0.000049
698 0.000082
699 0.000117
700 0.000105
701 0.000118
702 0.000081
703 0.000091
704 0.000096
705 0.000086
706 0.000073
707 0.000056
708 0.000046
709 0.000021
710 0.000012
711 -0.000030
712 -0.000054
713 -0.000045
714 -0.000058
715 -0.000054
716 -0.000056
717 -0.000075
718 -0.000077
719 -0.000094
720 -0.000100
721 -0.000121
722 -0.000112
723 -0.000076
724 -0.000064
725 -0.000033
726 -0.000049
727 -0.000034
728 -0.000045
729 -0.000060
730 -0.000074
731 -0.000075
732 -0.000063
733 -0.000040
734 -0.000006
735 0.000013
736 -0.000006
737 -0.000001
738 0.000042
739 0.000045
740 0.000039
741 0.000047
742 0.000045
743 0.000038
744 0.000001
745 -0.000014
746 -0.000006
747 0.000016
748 0.000039
749 0.000050
750 0.000054
751 0.000050
752 0.000071
753 0.000068
754 0.000049
755 0.000046
756 0.000074
757 0.000125
758 0.000173
759 0.000219
760 0.000255
761 0.000281
762 0.000332
763 0.000342
764 0.000328
765 0.000320
766 0.000332
767 0.000368
768 0.000390
769 0.000388
770 0.000375
771 0.000390
772 0.000383
773 0.000354
774 0.000325
775 0.000354
776 0.000361
777 0.000377
778 0.000382
779 0.000358
780 0.000334
781 0.000313
782 0.000290
783 0.000262
784 0.000261
785 0.000276
786 0.000275
787 0.000256
788 0.000248
789 0.000246
790 0.000253
791 0.000260
792 0.000268
793 0.000258
794 0.000224
795 0.000249
796 0.000266
797 0.000264
798 0.000260
799 0.000273
800 0.000271
801 0.000254
802 0.000208
803 0.000185
804 0.000188
805 0.000175
806 0.000162
807 0.000173
808 0.000192
809 0.000212
