# i correlation
1 0.004665
2 0.004027
3 0.003511
4 0.003022
5 0.002694
6 0.002480
7 0.002205
8 0.002047
9 0.001921
10 0.001849
11 0.001777
12 0.001727
13 0.001673
14 0.001639
15 0.001649
16 0.001660
17 0.001703
18 0.001650
19 0.001581
20 0.001498
21 0.001478
22 0.001416
23 0.001413
24 0.001377
25 0.001298
26 0.001245
27 0.001276
28 0.001262
29 0.001240
30 0.001164
31 0.001098
32 0.001065
33 0.000978
34 0.000932
35 0.000945
36 0.000934
37 0.000937
38 0.000966
39 0.000998
40 0.001007
41 0.001052
42 0.001114
43 0.001133
44 0.001180
45 0.001250
46 0.001263
47 0.001272
48 0.001343
49 0.001434
50 0.001443
51 0.001352
52 0.001263
53 0.001157
54 0.001083
55 0.001009
56 0.001009
57 0.000956
58 0.000915
59 0.000957
60 0.000984
61 0.000989
62 0.001041
63 0.001014
64 0.000978
65 0.001025
66 0.001049
67 0.001038
68 0.001041
69 0.001042
70 0.001003
71 0.000990
72 0.000994
73 0.000949
74 0.000919
75 0.000912
76 0.000842
77 0.000833
78 0.000802
79 0.000682
80 0.000724
81 0.000793
82 0.000782
83 0.000791
84 0.000807
85 0.000768
86 0.000763
87 0.000844
88 0.000856
89 0.000939
90 0.001020
91 0.001012
92 0.001003
93 0.000948
94 0.000819
95 0.000707
96 0.000617
97 0.000534
98 0.000541
99 0.000511
100 0.000479
101 0.000480
102 0.000428
103 0.000440
104 0.000488
105 0.000513
106 0.000586
107 0.000690
108 0.000730
109 0.000737
110 0.000734
111 0.000726
112 0.000732
113 0.000810
114 0.000820
115 0.000899
116 0.000966
117 0.001030
118 0.001036
119 0.000982
120 0.000867
121 0.000799
122 0.000722
123 0.000725
124 0.000742
125 0.000735
126 0.000730
127 0.000722
128 0.000711
129 0.000715
130 0.000760
131 0.000784
132 0.000781
133 0.000773
134 0.000773
135 0.000795
136 0.000836
137 0.000892
138 0.000961
139 0.000893
140 0.000892
141 0.000853
142 0.000746
143 0.000747
144 0.000697
145 0.000707
146 0.000742
147 0.000735
148 0.000715
149 0.000773
150 0.000707
151 0.000594
152 0.000492
153 0.000443
154 0.000471
155 0.000535
156 0.000621
157 0.000643
158 0.000699
159 0.000686
160 0.000640
161 0.000620
162 0.000617
163 0.000576
164 0.000580
165 0.000537
166 0.000487
167 0.000473
168 0.000482
169 0.000409
170 0.000457
171 0.000398
172 0.000374
173 0.000472
174 0.000510
175 0.000497
176 0.000487
177 0.000443
178 0.000415
179 0.000394
180 0.000339
181 0.000305
182 0.000288
183 0.000289
184 0.000339
185 0.000422
186 0.000444
187 0.000524
188 0.000565
189 0.000568
190 0.000597
191 0.000588
192 0.000527
193 0.000457
194 0.000363
195 0.000322
196 0.000258
197 0.000295
198 0.000342
199 0.000428
200 0.000464
201 0.000492
202 0.000508
203 0.000473
204 0.000466
205 0.000534
206 0.000564
207 0.000548
208 0.000538
209 0.000471
210 0.000461
211 0.000446
212 0.000477
213 0.000470
214 0.000455
215 0.000422
216 0.000404
217 0.000359
218 0.000359
219 0.000318
220 0.000299
221 0.000295
222 0.000288
223 0.000282
224 0.000262
225 0.000190
226 0.000210
227 0.000185
228 0.000185
229 0.000215
230 0.000222
231 0.000232
232 0.000210
233 0.000177
234 0.000202
235 0.000163
236 0.000177
237 0.000224
238 0.000275
239 0.000351
240 0.000376
241 0.000509
242 0.000541
243 0.000552
244 0.000587
245 0.000633
246 0.000656
247 0.000727
248 0.000751
249 0.000687
250 0.000639
251 0.000594
252 0.000514
253 0.000411
254 0.000356
255 0.000290
256 0.000237
257 0.000212
258 0.000188
259 0.000129
260 0.000155
261 0.000207
262 0.000247
263 0.000271
264 0.000304
265 0.000308
266 0.000330
267 0.000302
268 0.000282
269 0.000276
270 0.000302
271 0.000316
272 0.000301
273 0.000305
274 0.000251
275 0.000240
276 0.000202
277 0.000172
278 0.000075
279 0.000003
280 0.000020
281 0.000043
282 0.000053
283 0.000046
284 -0.000007
285 -0.000016
286 0.000034
287 0.000028
288 -0.000020
289 0.000023
290 0.000008
291 0.000015
292 0.000073
293 0.000168
294 0.000248
295 0.000244
296 0.000223
297 0.000225
298 0.000232
299 0.000313
300 0.000375
301 0.000392
302 0.000448
303 0.000477
304 0.000482
305 0.000452
306 0.000440
307 0.000411
308 0.000425
309 0.000401
310 0.000457
311 0.000474
312 0.000440
313 0.000367
314 0.000310
315 0.000222
316 0.000204
317 0.000158
318 0.000176
319 0.000232
320 0.000242
321 0.000219
322 0.000223
323 0.000178
324 0.000111
325 0.000091
326 0.000004
327 -0.000076
328 -0.000085
329 -0.000040
330 -0.000026
331 0.000019
332 0.000013
333 -0.000008
334 -0.000016
335 0.000046
336 0.000079
337 0.000112
338 0.000123
339 0.000092
340 -0.000019
341 -0.000113
342 -0.000194
343 -0.000282
344 -0.000363
345 -0.000418
346 -0.000365
347 -0.000293
348 -0.000175
349 -0.000135
350 -0.000104
351 -0.000072
352 -0.000018
353 0.000058
354 0.000123
355 0.000168
356 0.000180
357 0.000174
358 0.000165
359 0.000196
360 0.000251
361 0.000270
362 0.000292
363 0.000243
364 0.000214
365 0.000172
366 0.000072
367 0.000044
368 -0.000020
369 -0.000029
370 0.000019
371 0.000034
372 0.000051
373 0.000074
374 0.000106
375 0.000153
376 0.000216
377 0.000282
378 0.000319
379 0.000367
380 0.000389
381 0.000396
382 0.000375
383 0.000336
384 0.000322
385 0.000268
386 0.000190
387 0.000142
388 0.000112
389 0.000065
390 0.000093
391 0.000120
392 0.000142
393 0.000127
394 0.000120
395 0.000115
396 0.000119
397 0.000209
398 0.000228
399 0.000264
400 0.000314
401 0.000331
402 0.000356
403 0.000393
404 0.000363
405 0.000293
406 0.000233
407 0.000221
408 0.000157
409 0.000144
410 0.000141
411 0.000223
412 0.000295
413 0.000333
414 0.000358
415 0.000373
416 0.000374
417 0.000374
418 0.000390
419 0.000452
420 0.000490
421 0.000481
422 0.000447
423 0.000382
424 0.000344
425 0.000341
426 0.000352
427 0.000389
428 0.000443
429 0.000537
430 0.000555
431 0.000573
432 0.000559
433 0.000508
434 0.000506
435 0.000514
436 0.000580
437 0.000630
438 0.000653
439 0.000717
440 0.000755
441 0.000730
442 0.000766
443 0.000813
444 0.000889
445 0.000959
446 0.000999
447 0.001014
448 0.001052
449 0.001079
450 0.001057
451 0.001054
452 0.001025
453 0.000961
454 0.000915
455 0.000837
456 0.000762
457 0.000767
458 0.000694
459 0.000683
460 0.000738
461 0.000710
462 0.000702
463 0.000723
464 0.000705
465 0.000702
466 0.000697
467 0.000720
468 0.000783
469 0.000757
470 0.000695
471 0.000602
472 0.000548
473 0.000489
474 0.000455
475 0.000418
476 0.000344
477 0.000325
478 0.000326
479 0.000289
480 0.000252
481 0.000232
482 0.000204
483 0.000186
484 0.000238
485 0.000269
486 0.000354
487 0.000450
488 0.000520
489 0.000602
490 0.000605
491 0.000621
492 0.000633
493 0.000688
494 0.000766
495 0.000838
496 0.000830
497 0.000804
498 0.000737
499 0.000691
500 0.000606
501 0.000557
502 0.000497
503 0.000436
504 0.000405
505 0.000435
506 0.000457
507 0.000516
508 0.000586
509 0.000675
510 0.000761
511 0.000830
512 0.000907
513 0.000907
514 0.000919
515 0.000860
516 0.000807
517 0.000766
518 0.000767
519 0.000722
520 0.000707
521 0.000681
522 0.000681
523 0.000701
524 0.000701
525 0.000641
526 0.000584
527 0.000545
528 0.000492
529 0.000453
530 0.000431
531 0.000377
532 0.000327
533 0.000308
534 0.000291
535 0.000336
536 0.000374
537 0.000452
538 0.000546
539 0.000526
540 0.000530
541 0.000569
542 0.000547
543 0.000563
544 0.000588
545 0.000577
546 0.000567
547 0.000590
548 0.000569
549 0.000553
550 0.000528
551 0.000497
552 0.000505
553 0.000521
554 0.000520
555 0.000538
556 0.000505
557 0.000504
558 0.000538
559 0.000598
560 0.000648
561 0.000680
562 0.000680
563 0.000663
564 0.000662
565 0.000668
566 0.000671
567 0.000680
568 0.000637
569 0.000598
570 0.000590
571 0.000538
572 0.000462
573 0.000384
574 0.000319
575 0.000329
576 0.000378
577 0.000412
578 0.000405
579 0.000423
580 0.000459
581 0.000485
582 0.000465
583 0.000452
584 0.000402
585 0.000398
586 0.000411
587 0.000433
588 0.000400
589 0.000352
590 0.000258
591 0.000155
592 0.000085
593 0.000049
594 0.000052
595 0.000076
596 0.000071
597 0.000088
598 0.000107
599 0.000133
600 0.000165
601 0.000177
602 0.000163
603 0.000171
604 0.000236
605 0.000300
606 0.000313
607 0.000298
608 0.000256
609 0.000205
610 0.000206
611 0.000209
612 0.000247
613 0.000268
614 0.000272
615 0.000291
616 0.000284
617 0.000245
618 0.000266
619 0.000221
620 0.000162
621 0.000147
622 0.000143
623 0.000117
624 0.000155
625 0.000155
626 0.000144
627 0.000164
628 0.000206
629 0.000240
630 0.000291
631 0.000356
632 0.000405
633 0.000434
634 0.000403
635 0.000426
636 0.000453
637 0.000471
638 0.000421
639 0.000359
640 0.000266
641 0.000220
642 0.000202
643 0.000165
644 0.000106
645 0.000133
646 0.000116
647 0.000106
648 0.000135
649 0.000156
650 0.000213
651 0.000260
652 0.000248
653 0.000229
654 0.000216
655 0.000217
656 0.000228
657 0.000238
658 0.000265
659 0.000298
660 0.000331
661 0.000366
662 0.000383
663 0.000386
664 0.000362
665 0.000343
666 0.000332
667 0.000331
668 0.000318
669 0.000278
670 0.000254
671 0.000244
672 0.000284
673 0.000334
674 0.000374
675 0.000367
676 0.000370
677 0.000393
678 0.000400
679 0.000393
680 0.000381
681 0.000353
682 0.000372
683 0.000398
684 0.000427
685 0.000479
686 0.000529
687 0.000508
688 0.000453
689 0.000403
690 0.000339
691 0.000247
692 0.000157
693 0.000094
694 0.000062
695 0.000035
696 0.000038
697 0.000028
698 0.000027
699 0.000036
700 0.000050
701 0.000081
702 0.000095
703 0.000088
704 0.000068
705 0.000050
706 0.000017
707 -0.000023
708 -0.000046
709 -0.000040
710 -0.000039
711 -0.000006
712 0.000006
713 0.000045
714 0.000071
715 0.000073
716 0.000054
717 0.000065
718 0.000045
719 0.000018
720 0.000005
721 -0.000003
722 0.000017
723 0.000021
724 -0.000017
725 -0.000024
726 -0.000044
727 -0.000089
728 -0.000092
729 -0.000130
730 -0.000148
731 -0.000140
732 -0.000136
733 -0.000151
734 -0.000165
735 -0.000152
736 -0.000113
737 -0.000068
738 -0.000011
739 0.000031
740 0.000027
741 0.000012
742 -0.000011
743 -0.000018
744 -0.000027
745 -0.000010
746 -0.000030
747 -0.000090
748 -0.000121
749 -0.000095
750 -0.000049
751 0.000023
752 0.000072
753 0.000110
754 0.000185
755 0.000269
756 0.000321
757 0.000329
758 0.000299
759 0.000290
760 0.000271
761 0.000264
762 0.000258
763 0.000207
764 0.000172
765 0.000135
766 0.000101
767 0.000085
768 0.000051
769 0.000011
770 -0.000007
771 -0.000020
772 -0.000061
773 -0.000089
774 -0.000110
775 -0.000124
776 -0.000130
777 -0.000147
778 -0.000170
779 -0.000201
780 -0.000237
781 -0.000294
782 -0.000332
783 -0.000368
784 -0.000416
785 -0.000459
786 -0.000451
787 -0.000446
788 -0.000388
789 -0.000344
790 -0.000321
791 -0.000313
792 -0.000296
793 -0.000291
794 -0.000271
795 -0.000267
796 -0.000293
797 -0.000348
798 -0.000392
799 -0.000412
800 -0.000417
801 -0.000397
802 -0.000398
803 -0.000388
804 -0.000369
805 -0.000325
806 -0.000293
807 -0.000265
808 -0.000282
809 -0.000277
