# i correlation
1 0.005469
2 0.004779
3 0.004188
4 0.003731
5 0.003342
6 0.002996
7 0.002630
8 0.002338
9 0.002110
10 0.001914
11 0.001668
12 0.001499
13 0.001478
14 0.001436
15 0.001446
16 0.001442
17 0.001496
18 0.001523
19 0.001564
20 0.001619
21 0.001688
22 0.001794
23 0.001948
24 0.002050
25 0.002083
26 0.001972
27 0.001908
28 0.001845
29 0.001745
30 0.001673
31 0.001576
32 0.001502
33 0.001440
34 0.001354
35 0.001324
36 0.001330
37 0.001347
38 0.001338
39 0.001273
40 0.001247
41 0.001368
42 0.001512
43 0.001602
44 0.001531
45 0.001433
46 0.001359
47 0.001409
48 0.001424
49 0.001484
50 0.001533
51 0.001613
52 0.001708
53 0.001694
54 0.001719
55 0.001674
56 0.001665
57 0.001594
58 0.001506
59 0.001454
60 0.001465
61 0.001484
62 0.001481
63 0.001464
64 0.001428
65 0.001413
66 0.001442
67 0.001508
68 0.001570
69 0.001555
70 0.001492
71 0.001412
72 0.001323
73 0.001246
74 0.001238
75 0.001186
76 0.001148
77 0.001229
78 0.001274
79 0.001273
80 0.001254
81 0.001223
82 0.001164
83 0.001176
84 0.001283
85 0.001377
86 0.001411
87 0.001347
88 0.001232
89 0.001064
90 0.000962
91 0.000897
92 0.000833
93 0.000818
94 0.000759
95 0.000706
96 0.000573
97 0.000535
98 0.000459
99 0.000415
100 0.000405
101 0.000423
102 0.000402
103 0.000438
104 0.000518
105 0.000568
106 0.000615
107 0.000673
108 0.000813
109 0.000853
110 0.000909
111 0.000851
112 0.000782
113 0.000702
114 0.000634
115 0.000655
116 0.000607
117 0.000495
118 0.000458
119 0.000459
120 0.000462
121 0.000575
122 0.000692
123 0.000816
124 0.000862
125 0.000878
126 0.000918
127 0.001040
128 0.001189
129 0.001280
130 0.001388
131 0.001433
132 0.001422
133 0.001456
134 0.001357
135 0.001312
136 0.001306
137 0.001275
138 0.001208
139 0.001111
140 0.001014
141 0.000902
142 0.000794
143 0.000749
144 0.000685
145 0.000687
146 0.000775
147 0.000839
148 0.000864
149 0.000878
150 0.000812
151 0.000818
152 0.000851
153 0.000974
154 0.001005
155 0.001094
156 0.001069
157 0.001093
158 0.001130
159 0.001055
160 0.001028
161 0.001013
162 0.001057
163 0.001051
164 0.001149
165 0.001140
166 0.001124
167 0.001024
168 0.000912
169 0.000782
170 0.000791
171 0.000841
172 0.000817
173 0.000728
174 0.000656
175 0.000566
176 0.000514
177 0.000447
178 0.000444
179 0.000457
180 0.000447
181 0.000409
182 0.000400
183 0.000431
184 0.000482
185 0.000596
186 0.000677
187 0.000709
188 0.000694
189 0.000748
190 0.000830
191 0.000849
192 0.000812
193 0.000838
194 0.000813
195 0.000868
196 0.000957
197 0.000951
198 0.000946
199 0.000940
200 0.000988
201 0.000991
202 0.000976
203 0.000982
204 0.000963
205 0.000962
206 0.000973
207 0.001014
208 0.000995
209 0.000998
210 0.000956
211 0.000921
212 0.000855
213 0.000857
214 0.000909
215 0.000982
216 0.001050
217 0.001084
218 0.001107
219 0.001053
220 0.000999
221 0.000998
222 0.000992
223 0.001003
224 0.000926
225 0.000831
226 0.000729
227 0.000650
228 0.000595
229 0.000488
230 0.000415
231 0.000412
232 0.000438
233 0.000438
234 0.000504
235 0.000570
236 0.000636
237 0.000725
238 0.000883
239 0.000955
240 0.000987
241 0.001009
242 0.001051
243 0.001049
244 0.001046
245 0.001020
246 0.001040
247 0.001018
248 0.001003
249 0.000918
250 0.000850
251 0.000760
252 0.000717
253 0.000662
254 0.000656
255 0.000647
256 0.000606
257 0.000635
258 0.000673
259 0.000781
260 0.000790
261 0.000822
262 0.000726
263 0.000720
264 0.000680
265 0.000719
266 0.000680
267 0.000624
268 0.000655
269 0.000669
270 0.000702
271 0.000739
272 0.000762
273 0.000798
274 0.000887
275 0.000912
276 0.000944
277 0.000911
278 0.000849
279 0.000864
280 0.000929
281 0.000906
282 0.000866
283 0.000814
284 0.000749
285 0.000679
286 0.000654
287 0.000611
288 0.000622
289 0.000611
290 0.000618
291 0.000540
292 0.000464
293 0.000433
294 0.000422
295 0.000492
296 0.000486
297 0.000470
298 0.000465
299 0.000518
300 0.000588
301 0.000705
302 0.000801
303 0.000850
304 0.000897
305 0.000901
306 0.000918
307 0.000976
308 0.000960
309 0.000963
310 0.000990
311 0.001008
312 0.000983
313 0.000984
314 0.000899
315 0.000869
316 0.000839
317 0.000820
318 0.000797
319 0.000801
320 0.000800
321 0.000738
322 0.000698
323 0.000713
324 0.000737
325 0.000738
326 0.000851
327 0.000869
328 0.000902
329 0.000876
330 0.000874
331 0.000911
332 0.000905
333 0.000863
334 0.000880
335 0.000838
336 0.000821
337 0.000767
338 0.000718
339 0.000644
340 0.000543
341 0.000425
342 0.000429
343 0.000481
344 0.000595
345 0.000683
346 0.000745
347 0.000803
348 0.000874
349 0.000976
350 0.001059
351 0.001191
352 0.001238
353 0.001278
354 0.001358
355 0.001380
356 0.001414
357 0.001358
358 0.001361
359 0.001333
360 0.001307
361 0.001282
362 0.001281
363 0.001224
364 0.001176
365 0.001112
366 0.001038
367 0.001051
368 0.001059
369 0.001122
370 0.001168
371 0.001200
372 0.001227
373 0.001276
374 0.001326
375 0.001372
376 0.001407
377 0.001407
378 0.001352
379 0.001292
380 0.001221
381 0.001192
382 0.001158
383 0.001140
384 0.001130
385 0.001106
386 0.001096
387 0.001066
388 0.001024
389 0.000946
390 0.000902
391 0.000763
392 0.000720
393 0.000696
394 0.000701
395 0.000741
396 0.000807
397 0.000847
398 0.000920
399 0.000969
400 0.001024
401 0.001058
402 0.001074
403 0.001093
404 0.001111
405 0.001083
406 0.001038
407 0.001028
408 0.001050
409 0.001034
410 0.001016
411 0.001021
412 0.001029
413 0.000981
414 0.000964
415 0.000885
416 0.000826
417 0.000784
418 0.000819
419 0.000813
420 0.000795
421 0.000781
422 0.000683
423 0.000670
424 0.000668
425 0.000688
426 0.000682
427 0.000646
428 0.000680
429 0.000717
430 0.000721
431 0.000773
432 0.000784
433 0.000796
434 0.000758
435 0.000773
436 0.000789
437 0.000852
438 0.000932
439 0.001015
440 0.001010
441 0.001055
442 0.001037
443 0.001076
444 0.001106
445 0.001129
446 0.001139
447 0.001094
448 0.001032
449 0.000982
450 0.000942
451 0.000890
452 0.000819
453 0.000822
454 0.000853
455 0.000816
456 0.000754
457 0.000655
458 0.000529
459 0.000487
460 0.000457
461 0.000467
462 0.000457
463 0.000443
464 0.000405
465 0.000413
466 0.000436
467 0.000468
468 0.000431
469 0.000393
470 0.000372
471 0.000387
472 0.000418
473 0.000479
474 0.000553
475 0.000595
476 0.000595
477 0.000652
478 0.000683
479 0.000713
480 0.000780
481 0.000880
482 0.000962
483 0.001007
484 0.001048
485 0.001055
486 0.001068
487 0.001022
488 0.000971
489 0.000917
490 0.000886
491 0.000822
492 0.000775
493 0.000673
494 0.000604
495 0.000564
496 0.000523
497 0.000578
498 0.000623
499 0.000628
500 0.000633
501 0.000591
502 0.000586
503 0.000613
504 0.000668
505 0.000773
506 0.000804
507 0.000853
508 0.000895
509 0.000971
510 0.001014
511 0.001059
512 0.001050
513 0.001014
514 0.000979
515 0.000928
516 0.000927
517 0.000918
518 0.000891
519 0.000840
520 0.000797
521 0.000729
522 0.000715
523 0.000707
524 0.000706
525 0.000694
526 0.000692
527 0.000695
528 0.000707
529 0.000730
530 0.000740
531 0.000729
532 0.000719
533 0.000727
534 0.000751
535 0.000746
536 0.000687
537 0.000581
538 0.000506
539 0.000494
540 0.000510
541 0.000603
542 0.000632
543 0.000593
544 0.000561
545 0.000528
546 0.000454
547 0.000452
548 0.000492
549 0.000545
550 0.000509
551 0.000539
552 0.000550
553 0.000522
554 0.000564
555 0.000539
556 0.000488
557 0.000462
558 0.000491
559 0.000511
560 0.000532
561 0.000573
562 0.000579
563 0.000511
564 0.000510
565 0.000528
566 0.000585
567 0.000627
568 0.000672
569 0.000729
570 0.000766
571 0.000804
572 0.000841
573 0.000852
574 0.000904
575 0.000946
576 0.000962
577 0.000906
578 0.000863
579 0.000782
580 0.000646
581 0.000563
582 0.000514
583 0.000478
584 0.000446
585 0.000426
586 0.000412
587 0.000357
588 0.000243
589 0.000147
590 0.000140
591 0.000123
592 0.000129
593 0.000112
594 0.000098
595 0.000107
596 0.000183
597 0.000197
598 0.000186
599 0.000183
600 0.000145
601 0.000108
602 0.000118
603 0.000159
604 0.000175
605 0.000181
606 0.000180
607 0.000182
608 0.000227
609 0.000256
610 0.000267
611 0.000298
612 0.000305
613 0.000313
614 0.000304
615 0.000288
616 0.000310
617 0.000324
618 0.000357
619 0.000382
620 0.000386
621 0.000397
622 0.000354
623 0.000274
624 0.000207
625 0.000164
626 0.000190
627 0.000203
628 0.000218
629 0.000241
630 0.000263
631 0.000273
632 0.000285
633 0.000287
634 0.000295
635 0.000365
636 0.000457
637 0.000487
638 0.000507
639 0.000556
640 0.000569
641 0.000557
642 0.000512
643 0.000477
644 0.000447
645 0.000422
646 0.000444
647 0.000418
648 0.000333
649 0.000274
650 0.000183
651 0.000075
652 0.000016
653 0.000010
654 -0.000035
655 -0.000059
656 -0.000036
657 -0.000042
658 -0.000007
659 0.000028
660 0.000047
661 0.000056
662 0.000148
663 0.000212
664 0.000256
665 0.000278
666 0.000264
667 0.000251
668 0.000228
669 0.000228
670 0.000214
671 0.000197
672 0.000204
673 0.000243
674 0.000220
675 0.000150
676 0.000112
677 0.000103
678 0.000101
679 0.000126
680 0.000171
681 0.000224
682 0.000292
683 0.000355
684 0.000401
685 0.000438
686 0.000459
687 0.000491
688 0.000522
689 0.000532
690 0.000564
691 0.000573
692 0.000545
693 0.000489
694 0.000471
695 0.000479
696 0.000484
697 0.000497
698 0.000498
699 0.000498
700 0.000515
701 0.000490
702 0.000439
703 0.000387
704 0.000386
705 0.000444
706 0.000486
707 0.000503
708 0.000484
709 0.000476
710 0.000428
711 0.000397
712 0.000381
713 0.000385
714 0.000413
715 0.000441
716 0.000448
717 0.000411
718 0.000380
719 0.000381
720 0.000400
721 0.000438
722 0.000463
723 0.000494
724 0.000534
725 0.000540
726 0.000556
727 0.000570
728 0.000604
729 0.000620
730 0.000620
731 0.000608
732 0.000608
733 0.000602
734 0.000627
735 0.000607
736 0.000562
737 0.000514
738 0.000457
739 0.000432
740 0.000435
741 0.000431
742 0.000412
743 0.000410
744 0.000427
745 0.000425
746 0.000436
747 0.000456
748 0.000482
749 0.000524
750 0.000556
751 0.000604
752 0.000621
753 0.000616
754 0.000648
755 0.000655
756 0.000663
757 0.000671
758 0.000685
759 0.000680
760 0.000676
761 0.000645
762 0.000625
763 0.000620
764 0.000629
765 0.000640
766 0.000636
767 0.000623
768 0.000628
769 0.000640
770 0.000616
771 0.000577
772 0.000570
773 0.000569
774 0.000580
775 0.000547
776 0.000502
777 0.000500
778 0.000487
779 0.000457
780 0.000438
781 0.000405
782 0.000396
783 0.000425
784 0.000418
785 0.000439
786 0.000463
787 0.000476
788 0.000508
789 0.000541
790 0.000535
791 0.000528
792 0.000539
793 0.000536
794 0.000500
795 0.000446
796 0.000374
797 0.000334
798 0.000269
799 0.000214
800 0.000163
801 0.000161
802 0.000193
803 0.000215
804 0.000209
805 0.000199
806 0.000225
807 0.000248
808 0.000250
809 0.000263
