# i correlation
1 0.005083
2 0.004499
3 0.004024
4 0.003664
5 0.003377
6 0.003190
7 0.003039
8 0.002922
9 0.002754
10 0.002654
11 0.002659
12 0.002620
13 0.002534
14 0.002396
15 0.002314
16 0.002315
17 0.002249
18 0.002276
19 0.002245
20 0.002188
21 0.002244
22 0.002278
23 0.002308
24 0.002328
25 0.002312
26 0.002309
27 0.002227
28 0.002176
29 0.002153
30 0.002179
31 0.002187
32 0.002262
33 0.002321
34 0.002330
35 0.002329
36 0.002383
37 0.002415
38 0.002349
39 0.002265
40 0.002138
41 0.002146
42 0.002136
43 0.002075
44 0.002063
45 0.002067
46 0.002031
47 0.002058
48 0.002030
49 0.002039
50 0.001984
51 0.001991
52 0.001954
53 0.001962
54 0.002024
55 0.002064
56 0.002007
57 0.001889
58 0.001812
59 0.001709
60 0.001657
61 0.001569
62 0.001594
63 0.001634
64 0.001620
65 0.001597
66 0.001609
67 0.001611
68 0.001603
69 0.001546
70 0.001550
71 0.001517
72 0.001431
73 0.001418
74 0.001406
75 0.001361
76 0.001337
77 0.001377
78 0.001450
79 0.001542
80 0.001625
81 0.001730
82 0.001726
83 0.001699
84 0.001739
85 0.001696
86 0.001748
87 0.001752
88 0.001734
89 0.001688
90 0.001638
91 0.001468
92 0.001397
93 0.001322
94 0.001155
95 0.001111
96 0.001097
97 0.001063
98 0.001041
99 0.001110
100 0.001167
101 0.001178
102 0.001165
103 0.001197
104 0.001231
105 0.001278
106 0.001253
107 0.001312
108 0.001370
109 0.001421
110 0.001488
111 0.001569
112 0.001581
113 0.001500
114 0.001428
115 0.001357
116 0.001293
117 0.001280
118 0.001195
119 0.001087
120 0.001024
121 0.000991
122 0.001019
123 0.001070
124 0.001026
125 0.000990
126 0.000929
127 0.000902
128 0.000900
129 0.000877
130 0.000875
131 0.000864
132 0.000911
133 0.000942
134 0.000947
135 0.000987
136 0.001020
137 0.001060
138 0.001141
139 0.001166
140 0.001099
141 0.001067
142 0.001056
143 0.001054
144 0.001115
145 0.001098
146 0.001096
147 0.001048
148 0.000995
149 0.000950
150 0.000977
151 0.000954
152 0.000931
153 0.000874
154 0.000879
155 0.000938
156 0.000969
157 0.000945
158 0.000920
159 0.000915
160 0.000910
161 0.000903
162 0.000971
163 0.001131
164 0.001158
165 0.001205
166 0.001229
167 0.001251
168 0.001196
169 0.001152
170 0.001085
171 0.001061
172 0.001023
173 0.000971
174 0.000979
175 0.000922
176 0.000884
177 0.000884
178 0.000885
179 0.000889
180 0.000914
181 0.000938
182 0.000940
183 0.000922
184 0.000926
185 0.001009
186 0.001048
187 0.001103
188 0.001117
189 0.001134
190 0.001054
191 0.001078
192 0.001092
193 0.001126
194 0.001098
195 0.001103
196 0.001105
197 0.001075
198 0.001098
199 0.001062
200 0.001009
201 0.000942
202 0.000804
203 0.000682
204 0.000604
205 0.000580
206 0.000541
207 0.000527
208 0.000571
209 0.000607
210 0.000681
211 0.000685
212 0.000708
213 0.000710
214 0.000711
215 0.000684
216 0.000658
217 0.000686
218 0.000742
219 0.000834
220 0.000901
221 0.001017
222 0.001034
223 0.001006
224 0.000892
225 0.000845
226 0.000851
227 0.000862
228 0.000786
229 0.000750
230 0.000704
231 0.000674
232 0.000659
233 0.000678
234 0.000727
235 0.000728
236 0.000693
237 0.000671
238 0.000573
239 0.000469
240 0.000415
241 0.000319
242 0.000286
243 0.000256
244 0.000281
245 0.000324
246 0.000316
247 0.000338
248 0.000328
249 0.000324
250 0.000302
251 0.000310
252 0.000384
253 0.000468
254 0.000435
255 0.000451
256 0.000444
257 0.000375
258 0.000322
259 0.000331
260 0.000352
261 0.000396
262 0.000432
263 0.000471
264 0.000478
265 0.000443
266 0.000424
267 0.000443
268 0.000537
269 0.000630
270 0.000682
271 0.000730
272 0.000741
273 0.000755
274 0.000786
275 0.000832
276 0.000840
277 0.000875
278 0.000821
279 0.000723
280 0.000622
281 0.000508
282 0.000421
283 0.000303
284 0.000235
285 0.000208
286 0.000198
287 0.000165
288 0.000150
289 0.000117
290 0.000054
291 0.000019
292 -0.000051
293 -0.000081
294 -0.000109
295 -0.000082
296 -0.000075
297 -0.000069
298 -0.000012
299 0.000010
300 0.000103
301 0.000164
302 0.000228
303 0.000250
304 0.000215
305 0.000236
306 0.000287
307 0.000344
308 0.000345
309 0.000347
310 0.000354
311 0.000326
312 0.000236
313 0.000178
314 0.000022
315 -0.000084
316 -0.000183
317 -0.000288
318 -0.000335
319 -0.000332
320 -0.000347
321 -0.000348
322 -0.000339
323 -0.000280
324 -0.000174
325 -0.000084
326 -0.000013
327 -0.000010
328 0.000013
329 0.000029
330 0.000021
331 0.000105
332 0.000170
333 0.000231
334 0.000281
335 0.000280
336 0.000280
337 0.000315
338 0.000311
339 0.000334
340 0.000340
341 0.000329
342 0.000396
343 0.000425
344 0.000466
345 0.000453
346 0.000382
347 0.000363
348 0.000324
349 0.000394
350 0.000420
351 0.000373
352 0.000320
353 0.000279
354 0.000266
355 0.000298
356 0.000385
357 0.000494
358 0.000541
359 0.000533
360 0.000531
361 0.000555
362 0.000514
363 0.000460
364 0.000388
365 0.000369
366 0.000353
367 0.000291
368 0.000247
369 0.000198
370 0.000198
371 0.000181
372 0.000222
373 0.000332
374 0.000344
375 0.000344
376 0.000329
377 0.000319
378 0.000355
379 0.000370
380 0.000427
381 0.000481
382 0.000511
383 0.000501
384 0.000532
385 0.000532
386 0.000609
387 0.000659
388 0.000714
389 0.000744
390 0.000784
391 0.000872
392 0.000967
393 0.000973
394 0.001000
395 0.000954
396 0.000888
397 0.000827
398 0.000813
399 0.000795
400 0.000771
401 0.000688
402 0.000631
403 0.000571
404 0.000525
405 0.000519
406 0.000532
407 0.000497
408 0.000532
409 0.000569
410 0.000633
411 0.000659
412 0.000728
413 0.000723
414 0.000751
415 0.000759
416 0.000769
417 0.000774
418 0.000812
419 0.000808
420 0.000853
421 0.000833
422 0.000832
423 0.000887
424 0.000959
425 0.000961
426 0.000971
427 0.001008
428 0.001065
429 0.001102
430 0.001120
431 0.001102
432 0.001024
433 0.000981
434 0.000920
435 0.000897
436 0.000890
437 0.000865
438 0.000863
439 0.000924
440 0.001016
441 0.001154
442 0.001260
443 0.001317
444 0.001349
445 0.001323
446 0.001280
447 0.001261
448 0.001230
449 0.001220
450 0.001192
451 0.001154
452 0.001158
453 0.001189
454 0.001193
455 0.001162
456 0.001125
457 0.001137
458 0.001073
459 0.001055
460 0.001063
461 0.001114
462 0.001110
463 0.001076
464 0.001063
465 0.001102
466 0.001104
467 0.001079
468 0.001059
469 0.001034
470 0.000986
471 0.000990
472 0.001021
473 0.001031
474 0.000980
475 0.000923
476 0.000861
477 0.000809
478 0.000796
479 0.000775
480 0.000780
481 0.000749
482 0.000770
483 0.000767
484 0.000743
485 0.000679
486 0.000609
487 0.000577
488 0.000549
489 0.000550
490 0.000549
491 0.000564
492 0.000543
493 0.000544
494 0.000591
495 0.000619
496 0.000669
497 0.000714
498 0.000786
499 0.000799
500 0.000750
501 0.000688
502 0.000600
503 0.000512
504 0.000475
505 0.000486
506 0.000482
507 0.000488
508 0.000502
509 0.000523
510 0.000524
511 0.000475
512 0.000446
513 0.000397
514 0.000307
515 0.000252
516 0.000275
517 0.000296
518 0.000255
519 0.000273
520 0.000288
521 0.000300
522 0.000325
523 0.000379
524 0.000403
525 0.000401
526 0.000325
527 0.000294
528 0.000274
529 0.000280
530 0.000294
531 0.000305
532 0.000281
533 0.000287
534 0.000294
535 0.000341
536 0.000350
537 0.000354
538 0.000355
539 0.000324
540 0.000302
541 0.000295
542 0.000330
543 0.000339
544 0.000294
545 0.000292
546 0.000287
547 0.000298
548 0.000280
549 0.000242
550 0.000231
551 0.000166
552 0.000172
553 0.000201
554 0.000243
555 0.000297
556 0.000318
557 0.000312
558 0.000323
559 0.000321
560 0.000303
561 0.000365
562 0.000379
563 0.000332
564 0.000303
565 0.000314
566 0.000338
567 0.000312
568 0.000333
569 0.000350
570 0.000320
571 0.000335
572 0.000369
573 0.000373
574 0.000364
575 0.000334
576 0.000314
577 0.000296
578 0.000312
579 0.000350
580 0.000382
581 0.000356
582 0.000342
583 0.000337
584 0.000351
585 0.000277
586 0.000234
587 0.000214
588 0.000167
589 0.000133
590 0.000070
591 0.000057
592 -0.000024
593 -0.000042
594 -0.000028
595 -0.000014
596 -0.000010
597 0.000019
598 0.000002
599 0.000004
600 0.000005
601 -0.000020
602 0.000006
603 0.000061
604 0.000074
605 0.000134
606 0.000204
607 0.000277
608 0.000321
609 0.000363
610 0.000402
611 0.000449
612 0.000457
613 0.000426
614 0.000383
615 0.000395
616 0.000388
617 0.000391
618 0.000399
619 0.000397
620 0.000395
621 0.000414
622 0.000377
623 0.000326
624 0.000258
625 0.000185
626 0.000169
627 0.000163
628 0.000172
629 0.000177
630 0.000140
631 0.000087
632 0.000039
633 0.000006
634 0.000012
635 0.000059
636 0.000070
637 0.000033
638 0.000013
639 -0.000013
640 -0.000022
641 -0.000023
642 0.000008
643 0.000014
644 0.000023
645 0.000046
646 0.000039
647 0.000047
648 0.000030
649 0.000032
650 0.000018
651 0.000008
652 0.000038
653 0.000073
654 0.000103
655 0.000108
656 0.000056
657 0.000039
658 0.000033
659 0.000005
660 0.000035
661 0.000084
662 0.000147
663 0.000188
664 0.000216
665 0.000228
666 0.000220
667 0.000196
668 0.000198
669 0.000172
670 0.000146
671 0.000111
672 0.000053
673 0.000055
674 0.000007
675 -0.000035
676 -0.000059
677 -0.000088
678 -0.000156
679 -0.000159
680 -0.000164
681 -0.000161
682 -0.000196
683 -0.000214
684 -0.000243
685 -0.000282
686 -0.000277
687 -0.000303
688 -0.000315
689 -0.000290
690 -0.000272
691 -0.000251
692 -0.000217
693 -0.000193
694 -0.000140
695 -0.000151
696 -0.000161
697 -0.000158
698 -0.000134
699 -0.000091
700 -0.000081
701 -0.000063
702 -0.000059
703 -0.000097
704 -0.000097
705 -0.000048
706 -0.000019
707 0.000009
708 -0.000007
709 -0.000050
710 -0.000089
711 -0.000121
712 -0.000157
713 -0.000211
714 -0.000262
715 -0.000307
716 -0.000314
717 -0.000305
718 -0.000270
719 -0.000262
720 -0.000249
721 -0.000253
722 -0.000236
723 -0.000237
724 -0.000226
725 -0.000265
726 -0.000303
727 -0.000330
728 -0.000305
729 -0.000290
730 -0.000267
731 -0.000229
732 -0.000249
733 -0.000273
734 -0.000266
735 -0.000229
736 -0.000219
737 -0.000227
738 -0.000257
739 -0.000282
740 -0.000309
741 -0.000302
742 -0.000313
743 -0.000309
744 -0.000316
745 -0.000329
746 -0.000329
747 -0.000308
748 -0.000324
749 -0.000333
750 -0.000324
751 -0.000353
752 -0.000380
753 -0.000345
754 -0.000314
755 -0.000319
756 -0.000324
757 -0.000307
758 -0.000336
759 -0.000389
760 -0.000388
761 -0.000384
762 -0.000387
763 -0.000409
764 -0.000434
765 -0.000431
766 -0.000418
767 -0.000404
768 -0.000418
769 -0.000392
770 -0.000386
771 -0.000388
772 -0.000371
773 -0.000341
774 -0.000337
775 -0.000320
776 -0.000318
777 -0.000338
778 -0.000355
779 -0.000371
780 -0.000355
781 -0.000376
782 -0.000376
783 -0.000377
784 -0.000352
785 -0.000328
786 -0.000279
787 -0.000272
788 -0.000266
789 -0.000291
790 -0.000310
791 -0.000311
792 -0.000266
793 -0.000243
794 -0.000230
795 -0.000252
796 -0.000267
797 -0.000293
798 -0.000274
799 -0.000269
800 -0.000258
801 -0.000246
802 -0.000226
803 -0.000220
804 -0.000201
805 -0.000178
806 -0.000149
807 -0.000147
808 -0.000154
809 -0.000143
