# i correlation
1 0.006467
2 0.005731
3 0.005112
4 0.004643
5 0.004220
6 0.003896
7 0.003594
8 0.003402
9 0.003312
10 0.003232
11 0.003057
12 0.002962
13 0.002810
14 0.002675
15 0.002529
16 0.002397
17 0.002319
18 0.002224
19 0.002173
20 0.002184
21 0.002199
22 0.002161
23 0.002075
24 0.001863
25 0.001701
26 0.001558
27 0.001529
28 0.001527
29 0.001566
30 0.001595
31 0.001642
32 0.001590
33 0.001566
34 0.001475
35 0.001403
36 0.001409
37 0.001504
38 0.001584
39 0.001657
40 0.001730
41 0.001820
42 0.001968
43 0.002096
44 0.002125
45 0.002125
46 0.002069
47 0.002021
48 0.002072
49 0.002147
50 0.002177
51 0.002217
52 0.002225
53 0.002214
54 0.002219
55 0.002092
56 0.001980
57 0.001862
58 0.001793
59 0.001741
60 0.001804
61 0.001847
62 0.001870
63 0.001882
64 0.001880
65 0.001793
66 0.001794
67 0.001734
68 0.001680
69 0.001612
70 0.001579
71 0.001559
72 0.001592
73 0.001689
74 0.001736
75 0.001713
76 0.001796
77 0.001759
78 0.001783
79 0.001800
80 0.001884
81 0.001970
82 0.002078
83 0.002146
84 0.002137
85 0.002138
86 0.002160
87 0.002137
88 0.002059
89 0.002083
90 0.002115
91 0.002129
92 0.002100
93 0.002148
94 0.002153
95 0.002123
96 0.002090
97 0.002099
98 0.002082
99 0.002033
100 0.001953
101 0.001872
102 0.001787
103 0.001779
104 0.001812
105 0.001829
106 0.001860
107 0.001832
108 0.001666
109 0.001578
110 0.001496
111 0.001432
112 0.001420
113 0.001395
114 0.001317
115 0.001289
116 0.001234
117 0.001088
118 0.000939
119 0.000841
120 0.000711
121 0.000639
122 0.000580
123 0.000536
124 0.000572
125 0.000736
126 0.000944
127 0.001173
128 0.001388
129 0.001540
130 0.001707
131 0.001875
132 0.001991
133 0.002087
134 0.002192
135 0.002236
136 0.002315
137 0.002353
138 0.002311
139 0.002207
140 0.002089
141 0.002003
142 0.001981
143 0.002027
144 0.001990
145 0.001923
146 0.001898
147 0.001980
148 0.002042
149 0.001998
150 0.001985
151 0.001956
152 0.001944
153 0.001872
154 0.001872
155 0.001887
156 0.001930
157 0.002036
158 0.002140
159 0.002195
160 0.002164
161 0.002056
162 0.001871
163 0.001730
164 0.001637
165 0.001549
166 0.001449
167 0.001371
168 0.001408
169 0.001480
170 0.001507
171 0.001560
172 0.001592
173 0.001571
174 0.001506
175 0.001482
176 0.001509
177 0.001460
178 0.001460
179 0.001553
180 0.001666
181 0.001778
182 0.001805
183 0.001814
184 0.001781
185 0.001789
186 0.001830
187 0.001825
188 0.001851
189 0.001834
190 0.001851
191 0.001821
192 0.001715
193 0.001575
194 0.001483
195 0.001408
196 0.001347
197 0.001337
198 0.001324
199 0.001298
200 0.001266
201 0.001264
202 0.001297
203 0.001254
204 0.001228
205 0.001140
206 0.001082
207 0.001017
208 0.000989
209 0.000974
210 0.001012
211 0.001099
212 0.001196
213 0.001265
214 0.001235
215 0.001169
216 0.001058
217 0.001053
218 0.001079
219 0.001123
220 0.001158
221 0.001141
222 0.001051
223 0.000974
224 0.000980
225 0.001024
226 0.001084
227 0.001119
228 0.001145
229 0.001206
230 0.001247
231 0.001249
232 0.001275
233 0.001282
234 0.001377
235 0.001434
236 0.001437
237 0.001517
238 0.001579
239 0.001612
240 0.001618
241 0.001679
242 0.001666
243 0.001599
244 0.001615
245 0.001599
246 0.001572
247 0.001600
248 0.001613
249 0.001648
250 0.001598
251 0.001469
252 0.001339
253 0.001182
254 0.001117
255 0.001052
256 0.000971
257 0.000955
258 0.000995
259 0.001020
260 0.001051
261 0.001141
262 0.001299
263 0.001387
264 0.001495
265 0.001475
266 0.001492
267 0.001529
268 0.001556
269 0.001586
270 0.001614
271 0.001643
272 0.001625
273 0.001589
274 0.001571
275 0.001535
276 0.001444
277 0.001408
278 0.001363
279 0.001314
280 0.001302
281 0.001305
282 0.001298
283 0.001349
284 0.001413
285 0.001500
286 0.001586
287 0.001649
288 0.001676
289 0.001662
290 0.001631
291 0.001624
292 0.001570
293 0.001517
294 0.001437
295 0.001470
296 0.001439
297 0.001406
298 0.001387
299 0.001361
300 0.001350
301 0.001346
302 0.001370
303 0.001294
304 0.001152
305 0.001050
306 0.000979
307 0.000981
308 0.000999
309 0.000984
310 0.001033
311 0.001057
312 0.001083
313 0.001133
314 0.001174
315 0.001261
316 0.001345
317 0.001404
318 0.001462
319 0.001518
320 0.001539
321 0.001464
322 0.001443
323 0.001435
324 0.001483
325 0.001472
326 0.001442
327 0.001431
328 0.001468
329 0.001499
330 0.001512
331 0.001463
332 0.001418
333 0.001392
334 0.001348
335 0.001281
336 0.001199
337 0.001156
338 0.001164
339 0.001155
340 0.001164
341 0.001176
342 0.001083
343 0.001008
344 0.001041
345 0.001130
346 0.001183
347 0.001308
348 0.001367
349 0.001402
350 0.001375
351 0.001334
352 0.001230
353 0.001143
354 0.001055
355 0.000946
356 0.000875
357 0.000794
358 0.000706
359 0.000649
360 0.000643
361 0.000673
362 0.000713
363 0.000749
364 0.000773
365 0.000729
366 0.000747
367 0.000790
368 0.000861
369 0.000938
370 0.000968
371 0.000997
372 0.000988
373 0.000981
374 0.000920
375 0.000862
376 0.000890
377 0.000922
378 0.000959
379 0.000921
380 0.000903
381 0.000895
382 0.000912
383 0.000868
384 0.000836
385 0.000730
386 0.000687
387 0.000604
388 0.000530
389 0.000553
390 0.000593
391 0.000611
392 0.000704
393 0.000771
394 0.000759
395 0.000713
396 0.000717
397 0.000668
398 0.000680
399 0.000743
400 0.000815
401 0.000916
402 0.000996
403 0.001004
404 0.000973
405 0.000976
406 0.000946
407 0.000907
408 0.000836
409 0.000831
410 0.000866
411 0.000925
412 0.000975
413 0.001010
414 0.001109
415 0.001219
416 0.001255
417 0.001310
418 0.001352
419 0.001374
420 0.001434
421 0.001473
422 0.001463
423 0.001493
424 0.001500
425 0.001430
426 0.001406
427 0.001365
428 0.001292
429 0.001259
430 0.001309
431 0.001364
432 0.001402
433 0.001433
434 0.001424
435 0.001357
436 0.001327
437 0.001234
438 0.001172
439 0.001120
440 0.001076
441 0.001017
442 0.000936
443 0.000895
444 0.000885
445 0.000934
446 0.000981
447 0.001024
448 0.001020
449 0.001063
450 0.001151
451 0.001162
452 0.001148
453 0.001224
454 0.001282
455 0.001349
456 0.001403
457 0.001441
458 0.001447
459 0.001470
460 0.001493
461 0.001465
462 0.001426
463 0.001385
464 0.001324
465 0.001254
466 0.001253
467 0.001266
468 0.001244
469 0.001204
470 0.001094
471 0.001012
472 0.000932
473 0.000917
474 0.000918
475 0.000940
476 0.000975
477 0.000974
478 0.000991
479 0.001018
480 0.000984
481 0.001028
482 0.001045
483 0.001086
484 0.001064
485 0.001044
486 0.001041
487 0.001069
488 0.001120
489 0.001113
490 0.001112
491 0.001093
492 0.001044
493 0.001011
494 0.000969
495 0.000953
496 0.000984
497 0.001029
498 0.001116
499 0.001231
500 0.001325
501 0.001376
502 0.001391
503 0.001373
504 0.001361
505 0.001379
506 0.001385
507 0.001388
508 0.001407
509 0.001469
510 0.001529
511 0.001553
512 0.001575
513 0.001545
514 0.001452
515 0.001343
516 0.001252
517 0.001222
518 0.001176
519 0.001162
520 0.001160
521 0.001199
522 0.001165
523 0.001148
524 0.001120
525 0.001037
526 0.000931
527 0.000875
528 0.000863
529 0.000890
530 0.000933
531 0.000887
532 0.000851
533 0.000858
534 0.000803
535 0.000769
536 0.000720
537 0.000695
538 0.000636
539 0.000610
540 0.000601
541 0.000554
542 0.000513
543 0.000504
544 0.000445
545 0.000418
546 0.000425
547 0.000516
548 0.000575
549 0.000692
550 0.000771
551 0.000857
552 0.000941
553 0.000953
554 0.000952
555 0.000950
556 0.000909
557 0.000898
558 0.000901
559 0.000932
560 0.000964
561 0.000991
562 0.001036
563 0.001079
564 0.001117
565 0.001146
566 0.001168
567 0.001148
568 0.001105
569 0.001055
570 0.001036
571 0.001001
572 0.001029
573 0.001042
574 0.001057
575 0.001018
576 0.000940
577 0.000842
578 0.000790
579 0.000744
580 0.000737
581 0.000755
582 0.000798
583 0.000853
584 0.000914
585 0.000904
586 0.000911
587 0.000887
588 0.000879
589 0.000852
590 0.000843
591 0.000863
592 0.000902
593 0.000964
594 0.001002
595 0.001009
596 0.000985
597 0.001012
598 0.000982
599 0.000933
600 0.000841
601 0.000782
602 0.000743
603 0.000758
604 0.000784
605 0.000800
606 0.000769
607 0.000747
608 0.000687
609 0.000669
610 0.000666
611 0.000726
612 0.000759
613 0.000817
614 0.000858
615 0.000915
616 0.000967
617 0.001001
618 0.001017
619 0.000988
620 0.000917
621 0.000854
622 0.000764
623 0.000693
624 0.000628
625 0.000640
626 0.000664
627 0.000658
628 0.000645
629 0.000625
630 0.000649
631 0.000678
632 0.000652
633 0.000643
634 0.000640
635 0.000664
636 0.000706
637 0.000703
638 0.000709
639 0.000720
640 0.000783
641 0.000837
642 0.000864
643 0.000905
644 0.000926
645 0.000902
646 0.000896
647 0.000856
648 0.000853
649 0.000826
650 0.000804
651 0.000739
652 0.000698
653 0.000682
654 0.000707
655 0.000722
656 0.000777
657 0.000823
658 0.000855
659 0.000888
660 0.000931
661 0.000949
662 0.000950
663 0.000934
664 0.000968
665 0.000987
666 0.000968
667 0.000953
668 0.000929
669 0.000880
670 0.000843
671 0.000860
672 0.000824
673 0.000799
674 0.000739
675 0.000706
676 0.000693
677 0.000704
678 0.000705
679 0.000757
680 0.000815
681 0.000889
682 0.000898
683 0.000881
684 0.000864
685 0.000907
686 0.000893
687 0.000857
688 0.000830
689 0.000791
690 0.000739
691 0.000707
692 0.000682
693 0.000679
694 0.000704
695 0.000725
696 0.000727
697 0.000770
698 0.000829
699 0.000866
700 0.000872
701 0.000864
702 0.000859
703 0.000889
704 0.000918
705 0.000925
706 0.000927
707 0.000949
708 0.000979
709 0.000992
710 0.000965
711 0.000903
712 0.000829
713 0.000768
714 0.000734
715 0.000688
716 0.000686
717 0.000701
718 0.000704
719 0.000740
720 0.000793
721 0.000790
722 0.000773
723 0.000756
724 0.000765
725 0.000790
726 0.000794
727 0.000777
728 0.000779
729 0.000775
730 0.000797
731 0.000816
732 0.000795
733 0.000746
734 0.000709
735 0.000638
736 0.000582
737 0.000582
738 0.000582
739 0.000584
740 0.000593
741 0.000606
742 0.000619
743 0.000650
744 0.000636
745 0.000630
746 0.000621
747 0.000641
748 0.000677
749 0.000739
750 0.000787
751 0.000822
752 0.000838
753 0.000846
754 0.000828
755 0.000804
756 0.000744
757 0.000680
758 0.000624
759 0.000617
760 0.000612
761 0.000623
762 0.000634
763 0.000624
764 0.000623
765 0.000675
766 0.000692
767 0.000647
768 0.000613
769 0.000619
770 0.000674
771 0.000740
772 0.000770
773 0.000762
774 0.000776
775 0.000760
776 0.000721
777 0.000686
778 0.000661
779 0.000648
780 0.000639
781 0.000588
782 0.000546
783 0.000535
784 0.000494
785 0.000469
786 0.000453
787 0.000477
788 0.000508
789 0.000500
790 0.000479
791 0.000455
792 0.000452
793 0.000450
794 0.000443
795 0.000427
796 0.000413
797 0.000404
798 0.000383
799 0.000357
800 0.000343
801 0.000378
802 0.000404
803 0.000430
804 0.000444
805 0.000427
806 0.000377
807 0.000344
808 0.000307
809 0.000285
