# i correlation
1 0.005848
2 0.005275
3 0.004808
4 0.004295
5 0.003821
6 0.003306
7 0.002843
8 0.002465
9 0.002104
10 0.001912
11 0.001786
12 0.001764
13 0.001693
14 0.001612
15 0.001566
16 0.001608
17 0.001675
18 0.001594
19 0.001540
20 0.001520
21 0.001508
22 0.001432
23 0.001367
24 0.001268
25 0.001162
26 0.001014
27 0.000920
28 0.000824
29 0.000738
30 0.000657
31 0.000625
32 0.000655
33 0.000769
34 0.000843
35 0.000889
36 0.000979
37 0.001036
38 0.001041
39 0.001075
40 0.001085
41 0.001109
42 0.001051
43 0.001044
44 0.000967
45 0.000939
46 0.000983
47 0.001018
48 0.001133
49 0.001258
50 0.001374
51 0.001569
52 0.001667
53 0.001790
54 0.001867
55 0.001892
56 0.001844
57 0.001758
58 0.001684
59 0.001530
60 0.001420
61 0.001354
62 0.001187
63 0.001043
64 0.000893
65 0.000692
66 0.000574
67 0.000508
68 0.000431
69 0.000419
70 0.000529
71 0.000683
72 0.000804
73 0.000982
74 0.001131
75 0.001210
76 0.001228
77 0.001198
78 0.001098
79 0.001009
80 0.000912
81 0.000851
82 0.000701
83 0.000608
84 0.000624
85 0.000659
86 0.000701
87 0.000746
88 0.000774
89 0.000869
90 0.000934
91 0.000998
92 0.001086
93 0.001100
94 0.001150
95 0.001136
96 0.001145
97 0.001184
98 0.001217
99 0.001124
100 0.001092
101 0.001020
102 0.000933
103 0.000845
104 0.000846
105 0.000874
106 0.000941
107 0.001066
108 0.001241
109 0.001376
110 0.001539
111 0.001657
112 0.001776
113 0.001851
114 0.001888
115 0.001845
116 0.001754
117 0.001664
118 0.001544
119 0.001375
120 0.001199
121 0.001074
122 0.001003
123 0.000949
124 0.000877
125 0.000895
126 0.000884
127 0.000840
128 0.000883
129 0.000940
130 0.001030
131 0.001061
132 0.000994
133 0.000953
134 0.000942
135 0.001039
136 0.001048
137 0.001033
138 0.000980
139 0.000931
140 0.000852
141 0.000835
142 0.000797
143 0.000793
144 0.000744
145 0.000723
146 0.000755
147 0.000901
148 0.000990
149 0.001083
150 0.001159
151 0.001259
152 0.001301
153 0.001344
154 0.001353
155 0.001350
156 0.001350
157 0.001308
158 0.001311
159 0.001328
160 0.001309
161 0.001329
162 0.001354
163 0.001357
164 0.001456
165 0.001507
166 0.001550
167 0.001563
168 0.001642
169 0.001685
170 0.001715
171 0.001795
172 0.001789
173 0.001740
174 0.001656
175 0.001521
176 0.001418
177 0.001284
178 0.001186
179 0.001108
180 0.000984
181 0.001001
182 0.001019
183 0.001080
184 0.001122
185 0.001198
186 0.001290
187 0.001372
188 0.001442
189 0.001497
190 0.001496
191 0.001463
192 0.001426
193 0.001362
194 0.001267
195 0.001183
196 0.001073
197 0.000963
198 0.000920
199 0.000951
200 0.001007
201 0.001041
202 0.001079
203 0.001070
204 0.001087
205 0.001052
206 0.001051
207 0.001033
208 0.000982
209 0.000948
210 0.000937
211 0.000945
212 0.000992
213 0.000907
214 0.000829
215 0.000790
216 0.000770
217 0.000697
218 0.000589
219 0.000556
220 0.000523
221 0.000466
222 0.000523
223 0.000554
224 0.000596
225 0.000620
226 0.000656
227 0.000664
228 0.000760
229 0.000868
230 0.000885
231 0.000834
232 0.000820
233 0.000875
234 0.000828
235 0.000798
236 0.000852
237 0.000898
238 0.000867
239 0.000935
240 0.000992
241 0.001031
242 0.001109
243 0.001248
244 0.001326
245 0.001371
246 0.001332
247 0.001254
248 0.001159
249 0.001089
250 0.000927
251 0.000772
252 0.000583
253 0.000462
254 0.000338
255 0.000233
256 0.000112
257 0.000023
258 -0.000080
259 -0.000112
260 -0.000112
261 -0.000096
262 -0.000024
263 0.000009
264 0.000076
265 0.000197
266 0.000229
267 0.000263
268 0.000199
269 0.000092
270 0.000085
271 0.000033
272 0.000024
273 0.000021
274 0.000031
275 0.000010
276 0.000078
277 0.000173
278 0.000264
279 0.000398
280 0.000497
281 0.000540
282 0.000650
283 0.000741
284 0.000826
285 0.000914
286 0.001007
287 0.001093
288 0.001117
289 0.001115
290 0.001154
291 0.001166
292 0.001123
293 0.001136
294 0.001125
295 0.001078
296 0.001069
297 0.001079
298 0.001085
299 0.001120
300 0.001177
301 0.001195
302 0.001171
303 0.001091
304 0.001076
305 0.001013
306 0.000934
307 0.000902
308 0.000830
309 0.000778
310 0.000781
311 0.000772
312 0.000765
313 0.000815
314 0.000849
315 0.000921
316 0.001010
317 0.001094
318 0.001208
319 0.001224
320 0.001292
321 0.001248
322 0.001205
323 0.001197
324 0.001142
325 0.001074
326 0.001057
327 0.000960
328 0.000934
329 0.000936
330 0.000940
331 0.000906
332 0.000863
333 0.000783
334 0.000779
335 0.000759
336 0.000714
337 0.000756
338 0.000753
339 0.000756
340 0.000799
341 0.000842
342 0.000821
343 0.000805
344 0.000655
345 0.000565
346 0.000463
347 0.000393
348 0.000305
349 0.000253
350 0.000179
351 0.000237
352 0.000289
353 0.000419
354 0.000552
355 0.000661
356 0.000726
357 0.000851
358 0.000942
359 0.001024
360 0.001084
361 0.001076
362 0.001018
363 0.000993
364 0.000950
365 0.000906
366 0.000825
367 0.000679
368 0.000616
369 0.000538
370 0.000473
371 0.000495
372 0.000549
373 0.000602
374 0.000656
375 0.000754
376 0.000794
377 0.000835
378 0.000831
379 0.000748
380 0.000726
381 0.000694
382 0.000606
383 0.000511
384 0.000439
385 0.000377
386 0.000344
387 0.000293
388 0.000246
389 0.000191
390 0.000196
391 0.000187
392 0.000178
393 0.000184
394 0.000184
395 0.000127
396 0.000082
397 0.000036
398 0.000027
399 -0.000006
400 -0.000050
401 -0.000027
402 0.000074
403 0.000143
404 0.000217
405 0.000252
406 0.000252
407 0.000315
408 0.000329
409 0.000385
410 0.000454
411 0.000507
412 0.000542
413 0.000549
414 0.000627
415 0.000697
416 0.000776
417 0.000781
418 0.000762
419 0.000686
420 0.000615
421 0.000559
422 0.000474
423 0.000412
424 0.000358
425 0.000285
426 0.000285
427 0.000324
428 0.000411
429 0.000492
430 0.000586
431 0.000615
432 0.000663
433 0.000668
434 0.000685
435 0.000753
436 0.000776
437 0.000766
438 0.000756
439 0.000733
440 0.000691
441 0.000660
442 0.000604
443 0.000585
444 0.000549
445 0.000518
446 0.000487
447 0.000440
448 0.000463
449 0.000475
450 0.000484
451 0.000473
452 0.000470
453 0.000453
454 0.000409
455 0.000415
456 0.000385
457 0.000362
458 0.000314
459 0.000250
460 0.000205
461 0.000147
462 0.000136
463 0.000086
464 0.000033
465 0.000093
466 0.000149
467 0.000214
468 0.000290
469 0.000426
470 0.000498
471 0.000611
472 0.000712
473 0.000800
474 0.000802
475 0.000811
476 0.000785
477 0.000758
478 0.000733
479 0.000727
480 0.000662
481 0.000567
482 0.000555
483 0.000603
484 0.000651
485 0.000643
486 0.000623
487 0.000627
488 0.000708
489 0.000729
490 0.000794
491 0.000782
492 0.000752
493 0.000684
494 0.000630
495 0.000565
496 0.000505
497 0.000383
498 0.000279
499 0.000183
500 0.000145
501 0.000129
502 0.000119
503 0.000134
504 0.000135
505 0.000130
506 0.000191
507 0.000232
508 0.000288
509 0.000285
510 0.000270
511 0.000332
512 0.000398
513 0.000441
514 0.000391
515 0.000349
516 0.000371
517 0.000330
518 0.000237
519 0.000230
520 0.000275
521 0.000267
522 0.000277
523 0.000348
524 0.000469
525 0.000549
526 0.000655
527 0.000784
528 0.000890
529 0.000994
530 0.001068
531 0.001070
532 0.001075
533 0.001061
534 0.001006
535 0.000928
536 0.000851
537 0.000785
538 0.000640
539 0.000525
540 0.000431
541 0.000363
542 0.000351
543 0.000336
544 0.000352
545 0.000369
546 0.000402
547 0.000434
548 0.000407
549 0.000412
550 0.000355
551 0.000249
552 0.000191
553 0.000125
554 0.000040
555 -0.000083
556 -0.000181
557 -0.000243
558 -0.000285
559 -0.000266
560 -0.000252
561 -0.000226
562 -0.000191
563 -0.000142
564 -0.000084
565 -0.000034
566 -0.000035
567 -0.000036
568 -0.000081
569 -0.000102
570 -0.000148
571 -0.000175
572 -0.000244
573 -0.000268
574 -0.000283
575 -0.000274
576 -0.000280
577 -0.000250
578 -0.000193
579 -0.000155
580 -0.000104
581 -0.000089
582 -0.000059
583 0.000018
584 0.000082
585 0.000152
586 0.000220
587 0.000279
588 0.000297
589 0.000224
590 0.000220
591 0.000180
592 0.000103
593 0.000034
594 -0.000045
595 -0.000105
596 -0.000149
597 -0.000126
598 -0.000099
599 -0.000117
600 -0.000049
601 0.000035
602 0.000125
603 0.000242
604 0.000318
605 0.000397
606 0.000469
607 0.000491
608 0.000545
609 0.000549
610 0.000551
611 0.000563
612 0.000547
613 0.000522
614 0.000508
615 0.000453
616 0.000425
617 0.000405
618 0.000419
619 0.000479
620 0.000526
621 0.000548
622 0.000551
623 0.000554
624 0.000546
625 0.000553
626 0.000530
627 0.000505
628 0.000445
629 0.000367
630 0.000291
631 0.000196
632 0.000082
633 0.000021
634 -0.000051
635 -0.000108
636 -0.000114
637 -0.000115
638 -0.000101
639 -0.000014
640 0.000028
641 0.000076
642 0.000118
643 0.000174
644 0.000222
645 0.000208
646 0.000199
647 0.000217
648 0.000186
649 0.000157
650 0.000133
651 0.000138
652 0.000125
653 0.000102
654 0.000084
655 0.000042
656 0.000030
657 0.000041
658 0.000056
659 0.000090
660 0.000134
661 0.000144
662 0.000106
663 0.000111
664 0.000107
665 0.000085
666 0.000049
667 0.000022
668 -0.000024
669 -0.000057
670 -0.000111
671 -0.000109
672 -0.000067
673 -0.000018
674 0.000030
675 0.000085
676 0.000122
677 0.000168
678 0.000184
679 0.000222
680 0.000229
681 0.000214
682 0.000208
683 0.000205
684 0.000191
685 0.000161
686 0.000095
687 -0.000003
688 -0.000078
689 -0.000168
690 -0.000199
691 -0.000242
692 -0.000258
693 -0.000296
694 -0.000274
695 -0.000194
696 -0.000135
697 -0.000117
698 -0.000074
699 -0.000032
700 0.000035
701 0.000067
702 0.000115
703 0.000116
704 0.000088
705 0.000046
706 0.000006
707 -0.000058
708 -0.000119
709 -0.000162
710 -0.000233
711 -0.000302
712 -0.000325
713 -0.000338
714 -0.000325
715 -0.000300
716 -0.000263
717 -0.000217
718 -0.000148
719 -0.000098
720 -0.000014
721 0.000029
722 0.000037
723 0.000056
724 0.000052
725 0.000054
726 0.000049
727 0.000034
728 0.000040
729 -0.000009
730 -0.000031
731 -0.000049
732 -0.000047
733 -0.000032
734 -0.000018
735 -0.000006
736 0.000011
737 0.000032
738 0.000025
739 0.000022
740 -0.000031
741 -0.000103
742 -0.000174
743 -0.000262
744 -0.000300
745 -0.000326
746 -0.000377
747 -0.000396
748 -0.000406
749 -0.000371
750 -0.000336
751 -0.000316
752 -0.000280
753 -0.000260
754 -0.000280
755 -0.000292
756 -0.000259
757 -0.000223
758 -0.000187
759 -0.000172
760 -0.000165
761 -0.000126
762 -0.000101
763 -0.000113
764 -0.000095
765 -0.000085
766 -0.000066
767 -0.000070
768 -0.000071
769 -0.000047
770 -0.000024
771 -0.000011
772 0.000006
773 0.000060
774 0.000110
775 0.000135
776 0.000165
777 0.000197
778 0.000197
779 0.000180
780 0.000154
781 0.000123
782 0.000087
783 0.000031
784 -0.000046
785 -0.000117
786 -0.000149
787 -0.000173
788 -0.000177
789 -0.000160
790 -0.000116
791 -0.000044
792 -0.000013
793 0.000033
794 0.000088
795 0.000123
796 0.000126
797 0.000128
798 0.000129
799 0.000107
800 0.000087
801 0.000059
802 -0.000005
803 -0.000034
804 -0.000074
805 -0.000128
806 -0.000152
807 -0.000157
808 -0.000171
809 -0.000191
