# i correlation
1 0.005782
2 0.005204
3 0.004816
4 0.004408
5 0.004021
6 0.003768
7 0.003587
8 0.003334
9 0.003041
10 0.002835
11 0.002697
12 0.002508
13 0.002289
14 0.002146
15 0.002039
16 0.001947
17 0.001846
18 0.001779
19 0.001745
20 0.001725
21 0.001743
22 0.001810
23 0.001886
24 0.001896
25 0.001827
26 0.001816
27 0.001678
28 0.001625
29 0.001505
30 0.001458
31 0.001394
32 0.001321
33 0.001295
34 0.001313
35 0.001290
36 0.001286
37 0.001348
38 0.001415
39 0.001441
40 0.001374
41 0.001296
42 0.001282
43 0.001244
44 0.001276
45 0.001243
46 0.001239
47 0.001218
48 0.001250
49 0.001272
50 0.001261
51 0.001199
52 0.001146
53 0.001158
54 0.001148
55 0.001117
56 0.001122
57 0.001081
58 0.001035
59 0.001009
60 0.001052
61 0.001090
62 0.001002
63 0.000982
64 0.000974
65 0.000983
66 0.000902
67 0.000901
68 0.000903
69 0.000873
70 0.000865
71 0.000905
72 0.000957
73 0.000940
74 0.000899
75 0.000917
76 0.000984
77 0.001008
78 0.000998
79 0.001002
80 0.001095
81 0.001178
82 0.001164
83 0.001138
84 0.001139
85 0.001092
86 0.001078
87 0.001180
88 0.001179
89 0.001042
90 0.000944
91 0.000967
92 0.000925
93 0.000848
94 0.000814
95 0.000835
96 0.000782
97 0.000714
98 0.000691
99 0.000681
100 0.000596
101 0.000477
102 0.000387
103 0.000338
104 0.000257
105 0.000191
106 0.000170
107 0.000133
108 0.000118
109 0.000188
110 0.000211
111 0.000233
112 0.000221
113 0.000251
114 0.000270
115 0.000317
116 0.000292
117 0.000297
118 0.000274
119 0.000237
120 0.000277
121 0.000401
122 0.000455
123 0.000471
124 0.000513
125 0.000647
126 0.000664
127 0.000574
128 0.000518
129 0.000523
130 0.000447
131 0.000466
132 0.000517
133 0.000501
134 0.000454
135 0.000473
136 0.000536
137 0.000601
138 0.000597
139 0.000637
140 0.000655
141 0.000658
142 0.000596
143 0.000585
144 0.000558
145 0.000542
146 0.000528
147 0.000562
148 0.000622
149 0.000622
150 0.000475
151 0.000438
152 0.000499
153 0.000527
154 0.000554
155 0.000678
156 0.000763
157 0.000769
158 0.000780
159 0.000909
160 0.000998
161 0.001107
162 0.001217
163 0.001325
164 0.001380
165 0.001362
166 0.001333
167 0.001336
168 0.001276
169 0.001202
170 0.001142
171 0.001091
172 0.000989
173 0.000931
174 0.000931
175 0.000896
176 0.000811
177 0.000723
178 0.000654
179 0.000589
180 0.000539
181 0.000548
182 0.000584
183 0.000606
184 0.000567
185 0.000576
186 0.000637
187 0.000701
188 0.000666
189 0.000642
190 0.000650
191 0.000649
192 0.000644
193 0.000722
194 0.000788
195 0.000775
196 0.000748
197 0.000768
198 0.000811
199 0.000826
200 0.000798
201 0.000826
202 0.000918
203 0.000920
204 0.000916
205 0.001007
206 0.001012
207 0.001004
208 0.001010
209 0.001025
210 0.001014
211 0.001010
212 0.001051
213 0.001119
214 0.001133
215 0.001056
216 0.000988
217 0.000956
218 0.000864
219 0.000846
220 0.000884
221 0.000913
222 0.000884
223 0.000900
224 0.000954
225 0.000932
226 0.000914
227 0.000883
228 0.000886
229 0.000910
230 0.000936
231 0.001019
232 0.001029
233 0.001031
234 0.001043
235 0.001091
236 0.001139
237 0.001171
238 0.001219
239 0.001224
240 0.001238
241 0.001165
242 0.001163
243 0.001168
244 0.001162
245 0.001071
246 0.001108
247 0.001186
248 0.001225
249 0.001320
250 0.001380
251 0.001419
252 0.001441
253 0.001422
254 0.001496
255 0.001582
256 0.001574
257 0.001635
258 0.001708
259 0.001753
260 0.001733
261 0.001801
262 0.001806
263 0.001768
264 0.001739
265 0.001680
266 0.001619
267 0.001509
268 0.001443
269 0.001316
270 0.001287
271 0.001232
272 0.001215
273 0.001172
274 0.001194
275 0.001168
276 0.001120
277 0.001123
278 0.001175
279 0.001164
280 0.001232
281 0.001305
282 0.001338
283 0.001352
284 0.001458
285 0.001518
286 0.001567
287 0.001599
288 0.001581
289 0.001553
290 0.001486
291 0.001383
292 0.001325
293 0.001243
294 0.001101
295 0.001022
296 0.001034
297 0.000978
298 0.000847
299 0.000809
300 0.000785
301 0.000717
302 0.000700
303 0.000726
304 0.000722
305 0.000685
306 0.000634
307 0.000608
308 0.000592
309 0.000550
310 0.000579
311 0.000642
312 0.000704
313 0.000726
314 0.000727
315 0.000751
316 0.000733
317 0.000668
318 0.000657
319 0.000663
320 0.000704
321 0.000683
322 0.000698
323 0.000732
324 0.000760
325 0.000779
326 0.000781
327 0.000717
328 0.000655
329 0.000627
330 0.000636
331 0.000628
332 0.000548
333 0.000478
334 0.000444
335 0.000492
336 0.000516
337 0.000520
338 0.000522
339 0.000518
340 0.000435
341 0.000380
342 0.000368
343 0.000377
344 0.000351
345 0.000342
346 0.000389
347 0.000373
348 0.000318
349 0.000311
350 0.000312
351 0.000262
352 0.000204
353 0.000172
354 0.000154
355 0.000144
356 0.000148
357 0.000145
358 0.000134
359 0.000167
360 0.000229
361 0.000281
362 0.000295
363 0.000359
364 0.000398
365 0.000457
366 0.000465
367 0.000495
368 0.000574
369 0.000640
370 0.000665
371 0.000683
372 0.000723
373 0.000727
374 0.000714
375 0.000678
376 0.000647
377 0.000592
378 0.000478
379 0.000431
380 0.000381
381 0.000333
382 0.000256
383 0.000227
384 0.000210
385 0.000128
386 0.000083
387 0.000100
388 0.000106
389 0.000068
390 0.000010
391 0.000038
392 0.000008
393 0.000021
394 0.000035
395 0.000080
396 0.000110
397 0.000082
398 0.000118
399 0.000152
400 0.000158
401 0.000182
402 0.000200
403 0.000183
404 0.000192
405 0.000195
406 0.000248
407 0.000338
408 0.000346
409 0.000312
410 0.000301
411 0.000327
412 0.000376
413 0.000406
414 0.000372
415 0.000311
416 0.000311
417 0.000318
418 0.000373
419 0.000437
420 0.000528
421 0.000649
422 0.000706
423 0.000737
424 0.000802
425 0.000860
426 0.000916
427 0.000968
428 0.000991
429 0.000963
430 0.000901
431 0.000849
432 0.000809
433 0.000822
434 0.000764
435 0.000725
436 0.000712
437 0.000684
438 0.000612
439 0.000526
440 0.000537
441 0.000548
442 0.000608
443 0.000649
444 0.000736
445 0.000839
446 0.000918
447 0.000958
448 0.000996
449 0.001052
450 0.001042
451 0.001090
452 0.001150
453 0.001086
454 0.001040
455 0.001074
456 0.001044
457 0.000980
458 0.000933
459 0.000922
460 0.000926
461 0.000929
462 0.000920
463 0.000924
464 0.000923
465 0.000873
466 0.000890
467 0.000921
468 0.000967
469 0.001014
470 0.001013
471 0.001036
472 0.001039
473 0.001031
474 0.001009
475 0.001059
476 0.001058
477 0.001045
478 0.001017
479 0.001022
480 0.000979
481 0.000918
482 0.000875
483 0.000810
484 0.000752
485 0.000719
486 0.000783
487 0.000813
488 0.000875
489 0.000928
490 0.000935
491 0.000952
492 0.000909
493 0.000875
494 0.000858
495 0.000832
496 0.000771
497 0.000769
498 0.000828
499 0.000893
500 0.000880
501 0.000882
502 0.000892
503 0.000841
504 0.000782
505 0.000785
506 0.000725
507 0.000677
508 0.000657
509 0.000608
510 0.000649
511 0.000617
512 0.000626
513 0.000660
514 0.000626
515 0.000585
516 0.000589
517 0.000573
518 0.000546
519 0.000520
520 0.000541
521 0.000516
522 0.000505
523 0.000497
524 0.000523
525 0.000555
526 0.000555
527 0.000607
528 0.000622
529 0.000629
530 0.000642
531 0.000629
532 0.000645
533 0.000728
534 0.000785
535 0.000802
536 0.000855
537 0.000905
538 0.000910
539 0.000929
540 0.000912
541 0.000882
542 0.000890
543 0.000870
544 0.000830
545 0.000748
546 0.000674
547 0.000619
548 0.000596
549 0.000557
550 0.000536
551 0.000531
552 0.000471
553 0.000426
554 0.000384
555 0.000366
556 0.000337
557 0.000310
558 0.000327
559 0.000354
560 0.000336
561 0.000324
562 0.000320
563 0.000298
564 0.000295
565 0.000297
566 0.000301
567 0.000367
568 0.000436
569 0.000510
570 0.000553
571 0.000577
572 0.000573
573 0.000600
574 0.000650
575 0.000687
576 0.000698
577 0.000674
578 0.000570
579 0.000482
580 0.000444
581 0.000435
582 0.000426
583 0.000388
584 0.000334
585 0.000292
586 0.000279
587 0.000281
588 0.000289
589 0.000293
590 0.000305
591 0.000284
592 0.000280
593 0.000292
594 0.000289
595 0.000247
596 0.000226
597 0.000238
598 0.000263
599 0.000273
600 0.000299
601 0.000300
602 0.000239
603 0.000224
604 0.000249
605 0.000231
606 0.000210
607 0.000216
608 0.000209
609 0.000182
610 0.000199
611 0.000218
612 0.000222
613 0.000236
614 0.000275
615 0.000325
616 0.000308
617 0.000273
618 0.000241
619 0.000217
620 0.000236
621 0.000210
622 0.000213
623 0.000231
624 0.000227
625 0.000212
626 0.000216
627 0.000210
628 0.000212
629 0.000193
630 0.000197
631 0.000231
632 0.000185
633 0.000145
634 0.000143
635 0.000167
636 0.000187
637 0.000166
638 0.000179
639 0.000143
640 0.000077
641 0.000023
642 0.000017
643 -0.000003
644 -0.000057
645 -0.000075
646 -0.000110
647 -0.000123
648 -0.000131
649 -0.000116
650 -0.000074
651 -0.000065
652 -0.000046
653 -0.000035
654 0.000007
655 0.000044
656 0.000049
657 0.000088
658 0.000082
659 0.000128
660 0.000178
661 0.000246
662 0.000344
663 0.000401
664 0.000458
665 0.000481
666 0.000466
667 0.000425
668 0.000415
669 0.000421
670 0.000384
671 0.000340
672 0.000297
673 0.000253
674 0.000223
675 0.000200
676 0.000175
677 0.000120
678 0.000092
679 0.000068
680 0.000069
681 0.000076
682 0.000082
683 0.000107
684 0.000134
685 0.000191
686 0.000225
687 0.000267
688 0.000308
689 0.000290
690 0.000306
691 0.000343
692 0.000367
693 0.000376
694 0.000415
695 0.000441
696 0.000470
697 0.000491
698 0.000517
699 0.000539
700 0.000558
701 0.000598
702 0.000612
703 0.000630
704 0.000640
705 0.000636
706 0.000616
707 0.000615
708 0.000641
709 0.000636
710 0.000621
711 0.000611
712 0.000622
713 0.000631
714 0.000611
715 0.000600
716 0.000563
717 0.000520
718 0.000479
719 0.000463
720 0.000433
721 0.000392
722 0.000380
723 0.000393
724 0.000422
725 0.000424
726 0.000447
727 0.000457
728 0.000450
729 0.000488
730 0.000527
731 0.000539
732 0.000575
733 0.000625
734 0.000647
735 0.000673
736 0.000739
737 0.000812
738 0.000851
739 0.000898
740 0.000929
741 0.000984
742 0.001008
743 0.001035
744 0.001041
745 0.001040
746 0.001065
747 0.001084
748 0.001111
749 0.001091
750 0.001099
751 0.001125
752 0.001115
753 0.001098
754 0.001057
755 0.000996
756 0.000952
757 0.000925
758 0.000873
759 0.000844
760 0.000820
761 0.000767
762 0.000751
763 0.000765
764 0.000747
765 0.000722
766 0.000670
767 0.000635
768 0.000601
769 0.000552
770 0.000504
771 0.000479
772 0.000455
773 0.000418
774 0.000412
775 0.000419
776 0.000440
777 0.000430
778 0.000415
779 0.000431
780 0.000415
781 0.000438
782 0.000478
783 0.000500
784 0.000540
785 0.000558
786 0.000564
787 0.000607
788 0.000657
789 0.000669
790 0.000727
791 0.000777
792 0.000786
793 0.000801
794 0.000814
795 0.000818
796 0.000826
797 0.000823
798 0.000801
799 0.000774
800 0.000736
801 0.000710
802 0.000706
803 0.000658
804 0.000620
805 0.000606
806 0.000574
807 0.000544
808 0.000500
809 0.000457
