# i correlation
1 0.005023
2 0.004392
3 0.003813
4 0.003393
5 0.002985
6 0.002613
7 0.002323
8 0.002075
9 0.001953
10 0.001848
11 0.001772
12 0.001685
13 0.001574
14 0.001499
15 0.001442
16 0.001454
17 0.001522
18 0.001585
19 0.001626
20 0.001644
21 0.001656
22 0.001679
23 0.001719
24 0.001694
25 0.001646
26 0.001640
27 0.001646
28 0.001681
29 0.001658
30 0.001623
31 0.001543
32 0.001528
33 0.001566
34 0.001526
35 0.001491
36 0.001403
37 0.001343
38 0.001325
39 0.001386
40 0.001386
41 0.001389
42 0.001349
43 0.001285
44 0.001353
45 0.001353
46 0.001376
47 0.001295
48 0.001173
49 0.001068
50 0.001068
51 0.001069
52 0.001054
53 0.001010
54 0.000986
55 0.000988
56 0.000983
57 0.000951
58 0.000873
59 0.000843
60 0.000832
61 0.000823
62 0.000800
63 0.000810
64 0.000813
65 0.000837
66 0.000856
67 0.000864
68 0.000857
69 0.000842
70 0.000843
71 0.000781
72 0.000747
73 0.000720
74 0.000705
75 0.000707
76 0.000728
77 0.000819
78 0.000875
79 0.001020
80 0.001123
81 0.001187
82 0.001111
83 0.001038
84 0.000985
85 0.000972
86 0.000904
87 0.000829
88 0.000761
89 0.000685
90 0.000582
91 0.000464
92 0.000362
93 0.000366
94 0.000399
95 0.000448
96 0.000458
97 0.000462
98 0.000466
99 0.000481
100 0.000519
101 0.000527
102 0.000460
103 0.000362
104 0.000356
105 0.000424
106 0.000415
107 0.000426
108 0.000382
109 0.000410
110 0.000354
111 0.000392
112 0.000395
113 0.000456
114 0.000475
115 0.000495
116 0.000593
117 0.000667
118 0.000726
119 0.000698
120 0.000674
121 0.000637
122 0.000615
123 0.000646
124 0.000692
125 0.000742
126 0.000860
127 0.000968
128 0.001040
129 0.001130
130 0.001180
131 0.001192
132 0.001098
133 0.001027
134 0.000949
135 0.000892
136 0.000809
137 0.000756
138 0.000745
139 0.000757
140 0.000765
141 0.000724
142 0.000666
143 0.000646
144 0.000625
145 0.000670
146 0.000701
147 0.000817
148 0.000908
149 0.001063
150 0.001206
151 0.001271
152 0.001318
153 0.001318
154 0.001244
155 0.001138
156 0.001021
157 0.001001
158 0.000966
159 0.000877
160 0.000804
161 0.000774
162 0.000734
163 0.000629
164 0.000590
165 0.000559
166 0.000560
167 0.000619
168 0.000700
169 0.000757
170 0.000789
171 0.000873
172 0.000926
173 0.000953
174 0.000917
175 0.000876
176 0.000840
177 0.000872
178 0.000824
179 0.000750
180 0.000692
181 0.000699
182 0.000722
183 0.000680
184 0.000678
185 0.000679
186 0.000706
187 0.000622
188 0.000564
189 0.000456
190 0.000428
191 0.000347
192 0.000311
193 0.000281
194 0.000354
195 0.000439
196 0.000520
197 0.000621
198 0.000663
199 0.000725
200 0.000752
201 0.000779
202 0.000766
203 0.000726
204 0.000744
205 0.000755
206 0.000833
207 0.000891
208 0.000969
209 0.000973
210 0.000997
211 0.001024
212 0.001087
213 0.001122
214 0.001148
215 0.001122
216 0.001075
217 0.001026
218 0.000980
219 0.000955
220 0.000875
221 0.000830
222 0.000844
223 0.000889
224 0.000929
225 0.000926
226 0.000874
227 0.000867
228 0.000886
229 0.000936
230 0.001022
231 0.001070
232 0.001133
233 0.001154
234 0.001149
235 0.001116
236 0.001023
237 0.000964
238 0.000959
239 0.000961
240 0.000937
241 0.000877
242 0.000792
243 0.000674
244 0.000588
245 0.000549
246 0.000595
247 0.000741
248 0.000838
249 0.000909
250 0.000970
251 0.001063
252 0.001167
253 0.001239
254 0.001291
255 0.001266
256 0.001286
257 0.001290
258 0.001352
259 0.001330
260 0.001255
261 0.001218
262 0.001177
263 0.001189
264 0.001161
265 0.001203
266 0.001243
267 0.001316
268 0.001391
269 0.001444
270 0.001409
271 0.001353
272 0.001273
273 0.001191
274 0.001158
275 0.001135
276 0.001126
277 0.001101
278 0.001069
279 0.001079
280 0.001044
281 0.000961
282 0.000832
283 0.000732
284 0.000682
285 0.000672
286 0.000685
287 0.000737
288 0.000715
289 0.000671
290 0.000635
291 0.000671
292 0.000708
293 0.000748
294 0.000772
295 0.000804
296 0.000783
297 0.000828
298 0.000839
299 0.000850
300 0.000815
301 0.000858
302 0.000901
303 0.000896
304 0.000843
305 0.000739
306 0.000614
307 0.000538
308 0.000486
309 0.000422
310 0.000351
311 0.000276
312 0.000264
313 0.000319
314 0.000413
315 0.000494
316 0.000535
317 0.000563
318 0.000591
319 0.000625
320 0.000679
321 0.000684
322 0.000606
323 0.000530
324 0.000491
325 0.000452
326 0.000479
327 0.000499
328 0.000487
329 0.000472
330 0.000517
331 0.000593
332 0.000641
333 0.000717
334 0.000750
335 0.000869
336 0.000921
337 0.000984
338 0.000955
339 0.000908
340 0.000806
341 0.000663
342 0.000575
343 0.000495
344 0.000430
345 0.000362
346 0.000387
347 0.000450
348 0.000541
349 0.000601
350 0.000636
351 0.000663
352 0.000651
353 0.000700
354 0.000720
355 0.000701
356 0.000700
357 0.000689
358 0.000744
359 0.000838
360 0.000875
361 0.000892
362 0.000852
363 0.000844
364 0.000821
365 0.000783
366 0.000661
367 0.000543
368 0.000491
369 0.000435
370 0.000436
371 0.000402
372 0.000428
373 0.000409
374 0.000393
375 0.000308
376 0.000280
377 0.000330
378 0.000371
379 0.000461
380 0.000566
381 0.000744
382 0.000926
383 0.001053
384 0.001188
385 0.001220
386 0.001227
387 0.001241
388 0.001234
389 0.001193
390 0.001107
391 0.001037
392 0.000994
393 0.000872
394 0.000809
395 0.000736
396 0.000726
397 0.000710
398 0.000727
399 0.000746
400 0.000792
401 0.000822
402 0.000812
403 0.000851
404 0.000858
405 0.000893
406 0.000843
407 0.000813
408 0.000806
409 0.000823
410 0.000845
411 0.000835
412 0.000834
413 0.000757
414 0.000728
415 0.000716
416 0.000758
417 0.000771
418 0.000774
419 0.000808
420 0.000809
421 0.000759
422 0.000714
423 0.000662
424 0.000625
425 0.000665
426 0.000736
427 0.000790
428 0.000842
429 0.000871
430 0.000875
431 0.000860
432 0.000817
433 0.000790
434 0.000725
435 0.000638
436 0.000627
437 0.000576
438 0.000539
439 0.000481
440 0.000423
441 0.000339
442 0.000301
443 0.000229
444 0.000231
445 0.000231
446 0.000255
447 0.000318
448 0.000346
449 0.000370
450 0.000327
451 0.000343
452 0.000336
453 0.000308
454 0.000267
455 0.000225
456 0.000129
457 0.000077
458 0.000058
459 0.000066
460 0.000045
461 0.000017
462 0.000056
463 0.000102
464 0.000207
465 0.000276
466 0.000354
467 0.000357
468 0.000352
469 0.000394
470 0.000438
471 0.000435
472 0.000432
473 0.000413
474 0.000385
475 0.000336
476 0.000295
477 0.000312
478 0.000338
479 0.000352
480 0.000352
481 0.000383
482 0.000435
483 0.000419
484 0.000393
485 0.000412
486 0.000465
487 0.000537
488 0.000583
489 0.000632
490 0.000644
491 0.000663
492 0.000676
493 0.000684
494 0.000642
495 0.000522
496 0.000447
497 0.000398
498 0.000401
499 0.000428
500 0.000460
501 0.000512
502 0.000509
503 0.000546
504 0.000571
505 0.000626
506 0.000667
507 0.000658
508 0.000679
509 0.000722
510 0.000777
511 0.000796
512 0.000790
513 0.000730
514 0.000674
515 0.000660
516 0.000645
517 0.000636
518 0.000651
519 0.000608
520 0.000551
521 0.000540
522 0.000505
523 0.000476
524 0.000466
525 0.000437
526 0.000426
527 0.000470
528 0.000506
529 0.000502
530 0.000483
531 0.000492
532 0.000558
533 0.000637
534 0.000682
535 0.000696
536 0.000743
537 0.000726
538 0.000734
539 0.000720
540 0.000662
541 0.000618
542 0.000568
543 0.000526
544 0.000498
545 0.000556
546 0.000573
547 0.000570
548 0.000530
549 0.000534
550 0.000553
551 0.000568
552 0.000596
553 0.000641
554 0.000674
555 0.000707
556 0.000766
557 0.000790
558 0.000791
559 0.000840
560 0.000883
561 0.000857
562 0.000863
563 0.000820
564 0.000767
565 0.000688
566 0.000644
567 0.000638
568 0.000625
569 0.000624
570 0.000567
571 0.000533
572 0.000492
573 0.000459
574 0.000426
575 0.000376
576 0.000309
577 0.000282
578 0.000290
579 0.000277
580 0.000308
581 0.000324
582 0.000366
583 0.000391
584 0.000425
585 0.000464
586 0.000554
587 0.000604
588 0.000640
589 0.000672
590 0.000631
591 0.000606
592 0.000584
593 0.000558
594 0.000550
595 0.000536
596 0.000564
597 0.000572
598 0.000605
599 0.000605
600 0.000612
601 0.000609
602 0.000590
603 0.000571
604 0.000554
605 0.000547
606 0.000547
607 0.000536
608 0.000476
609 0.000433
610 0.000393
611 0.000368
612 0.000358
613 0.000336
614 0.000298
615 0.000267
616 0.000251
617 0.000243
618 0.000204
619 0.000203
620 0.000171
621 0.000173
622 0.000182
623 0.000165
624 0.000232
625 0.000251
626 0.000298
627 0.000350
628 0.000397
629 0.000413
630 0.000388
631 0.000392
632 0.000399
633 0.000449
634 0.000509
635 0.000568
636 0.000611
637 0.000620
638 0.000630
639 0.000658
640 0.000696
641 0.000715
642 0.000669
643 0.000596
644 0.000522
645 0.000467
646 0.000419
647 0.000389
648 0.000337
649 0.000293
650 0.000297
651 0.000330
652 0.000349
653 0.000362
654 0.000377
655 0.000385
656 0.000404
657 0.000421
658 0.000475
659 0.000507
660 0.000495
661 0.000501
662 0.000478
663 0.000488
664 0.000453
665 0.000417
666 0.000425
667 0.000429
668 0.000438
669 0.000413
670 0.000378
671 0.000325
672 0.000258
673 0.000209
674 0.000161
675 0.000139
676 0.000114
677 0.000120
678 0.000130
679 0.000156
680 0.000210
681 0.000238
682 0.000256
683 0.000265
684 0.000266
685 0.000312
686 0.000413
687 0.000458
688 0.000441
689 0.000415
690 0.000382
691 0.000375
692 0.000354
693 0.000342
694 0.000317
695 0.000300
696 0.000251
697 0.000232
698 0.000243
699 0.000228
700 0.000211
701 0.000155
702 0.000115
703 0.000082
704 0.000045
705 0.000094
706 0.000136
707 0.000159
708 0.000139
709 0.000110
710 0.000098
711 0.000092
712 0.000127
713 0.000162
714 0.000191
715 0.000207
716 0.000214
717 0.000271
718 0.000315
719 0.000338
720 0.000367
721 0.000370
722 0.000379
723 0.000382
724 0.000352
725 0.000324
726 0.000293
727 0.000265
728 0.000236
729 0.000170
730 0.000100
731 0.000074
732 0.000063
733 0.000067
734 0.000060
735 0.000098
736 0.000126
737 0.000136
738 0.000155
739 0.000156
740 0.000169
741 0.000209
742 0.000251
743 0.000252
744 0.000216
745 0.000207
746 0.000232
747 0.000239
748 0.000212
749 0.000168
750 0.000171
751 0.000178
752 0.000182
753 0.000172
754 0.000175
755 0.000162
756 0.000162
757 0.000173
758 0.000185
759 0.000190
760 0.000163
761 0.000156
762 0.000163
763 0.000185
764 0.000206
765 0.000229
766 0.000256
767 0.000276
768 0.000321
769 0.000321
770 0.000307
771 0.000299
772 0.000284
773 0.000273
774 0.000247
775 0.000224
776 0.000187
777 0.000165
778 0.000155
779 0.000168
780 0.000177
781 0.000175
782 0.000173
783 0.000159
784 0.000168
785 0.000191
786 0.000227
787 0.000254
788 0.000246
789 0.000233
790 0.000218
791 0.000209
792 0.000221
793 0.000246
794 0.000260
795 0.000250
796 0.000256
797 0.000262
798 0.000289
799 0.000300
800 0.000294
801 0.000289
802 0.000266
803 0.000242
804 0.000207
805 0.000189
806 0.000183
807 0.000187
808 0.000200
809 0.000208
