# i correlation
1 0.006459
2 0.005723
3 0.005158
4 0.004608
5 0.004244
6 0.003953
7 0.003749
8 0.003604
9 0.003526
10 0.003348
11 0.003237
12 0.003053
13 0.002903
14 0.002879
15 0.002929
16 0.002983
17 0.003003
18 0.003071
19 0.003072
20 0.003000
21 0.002901
22 0.002781
23 0.002660
24 0.002490
25 0.002380
26 0.002347
27 0.002295
28 0.002280
29 0.002228
30 0.002178
31 0.002137
32 0.002084
33 0.002048
34 0.001979
35 0.001923
36 0.001841
37 0.001816
38 0.001798
39 0.001753
40 0.001719
41 0.001735
42 0.001696
43 0.001642
44 0.001625
45 0.001647
46 0.001656
47 0.001618
48 0.001611
49 0.001667
50 0.001683
51 0.001733
52 0.001768
53 0.001870
54 0.002079
55 0.002192
56 0.002275
57 0.002278
58 0.002127
59 0.002020
60 0.001966
61 0.001852
62 0.001869
63 0.001883
64 0.001830
65 0.001920
66 0.001910
67 0.001816
68 0.001791
69 0.001791
70 0.001821
71 0.001807
72 0.001774
73 0.001744
74 0.001698
75 0.001661
76 0.001696
77 0.001726
78 0.001732
79 0.001679
80 0.001606
81 0.001603
82 0.001605
83 0.001636
84 0.001544
85 0.001476
86 0.001441
87 0.001359
88 0.001386
89 0.001386
90 0.001332
91 0.001292
92 0.001373
93 0.001376
94 0.001475
95 0.001532
96 0.001558
97 0.001677
98 0.001759
99 0.001750
100 0.001734
101 0.001802
102 0.001726
103 0.001686
104 0.001641
105 0.001589
106 0.001581
107 0.001581
108 0.001666
109 0.001762
110 0.001812
111 0.001934
112 0.001939
113 0.001874
114 0.001868
115 0.001799
116 0.001756
117 0.001720
118 0.001644
119 0.001613
120 0.001645
121 0.001570
122 0.001464
123 0.001374
124 0.001299
125 0.001288
126 0.001257
127 0.001318
128 0.001371
129 0.001415
130 0.001536
131 0.001659
132 0.001736
133 0.001734
134 0.001695
135 0.001670
136 0.001616
137 0.001520
138 0.001486
139 0.001546
140 0.001484
141 0.001350
142 0.001283
143 0.001242
144 0.001186
145 0.001164
146 0.001178
147 0.001184
148 0.001244
149 0.001226
150 0.001167
151 0.001198
152 0.001222
153 0.001254
154 0.001315
155 0.001328
156 0.001296
157 0.001331
158 0.001306
159 0.001296
160 0.001288
161 0.001255
162 0.001234
163 0.001243
164 0.001273
165 0.001352
166 0.001489
167 0.001575
168 0.001640
169 0.001670
170 0.001624
171 0.001613
172 0.001551
173 0.001446
174 0.001436
175 0.001399
176 0.001368
177 0.001295
178 0.001160
179 0.000993
180 0.000860
181 0.000793
182 0.000764
183 0.000728
184 0.000723
185 0.000753
186 0.000860
187 0.001041
188 0.001189
189 0.001297
190 0.001357
191 0.001320
192 0.001371
193 0.001377
194 0.001338
195 0.001323
196 0.001321
197 0.001381
198 0.001372
199 0.001276
200 0.001245
201 0.001213
202 0.001187
203 0.001182
204 0.001147
205 0.001110
206 0.001051
207 0.001002
208 0.001055
209 0.001098
210 0.001115
211 0.001148
212 0.001190
213 0.001220
214 0.001215
215 0.001153
216 0.001154
217 0.001198
218 0.001191
219 0.001210
220 0.001252
221 0.001359
222 0.001522
223 0.001555
224 0.001584
225 0.001620
226 0.001636
227 0.001625
228 0.001644
229 0.001650
230 0.001627
231 0.001658
232 0.001618
233 0.001532
234 0.001410
235 0.001294
236 0.001213
237 0.001178
238 0.001139
239 0.001069
240 0.001061
241 0.001056
242 0.001048
243 0.001062
244 0.001070
245 0.001043
246 0.001058
247 0.001121
248 0.001162
249 0.001152
250 0.001120
251 0.001078
252 0.001018
253 0.000966
254 0.000892
255 0.000804
256 0.000688
257 0.000678
258 0.000668
259 0.000638
260 0.000635
261 0.000583
262 0.000640
263 0.000714
264 0.000773
265 0.000857
266 0.000945
267 0.000980
268 0.001056
269 0.001096
270 0.001105
271 0.001093
272 0.001007
273 0.000973
274 0.000910
275 0.000874
276 0.000863
277 0.000762
278 0.000707
279 0.000744
280 0.000778
281 0.000821
282 0.000887
283 0.000946
284 0.001025
285 0.001069
286 0.001106
287 0.001158
288 0.001211
289 0.001176
290 0.001178
291 0.001224
292 0.001195
293 0.001156
294 0.001107
295 0.001104
296 0.001045
297 0.001000
298 0.000977
299 0.000990
300 0.000986
301 0.000974
302 0.001025
303 0.001173
304 0.001266
305 0.001284
306 0.001311
307 0.001288
308 0.001246
309 0.001216
310 0.001171
311 0.001156
312 0.001111
313 0.001141
314 0.001265
315 0.001280
316 0.001260
317 0.001171
318 0.001050
319 0.000975
320 0.000988
321 0.000976
322 0.000971
323 0.001011
324 0.000968
325 0.000988
326 0.000956
327 0.000854
328 0.000830
329 0.000854
330 0.000909
331 0.000935
332 0.001006
333 0.001075
334 0.001120
335 0.001131
336 0.001214
337 0.001209
338 0.001171
339 0.001177
340 0.001174
341 0.001236
342 0.001260
343 0.001242
344 0.001243
345 0.001289
346 0.001265
347 0.001245
348 0.001221
349 0.001166
350 0.001052
351 0.000985
352 0.000986
353 0.000936
354 0.000944
355 0.000934
356 0.000976
357 0.001074
358 0.001172
359 0.001262
360 0.001364
361 0.001425
362 0.001443
363 0.001514
364 0.001523
365 0.001506
366 0.001493
367 0.001462
368 0.001418
369 0.001374
370 0.001295
371 0.001253
372 0.001171
373 0.001051
374 0.000979
375 0.000871
376 0.000817
377 0.000805
378 0.000787
379 0.000863
380 0.000944
381 0.000918
382 0.000897
383 0.000866
384 0.000792
385 0.000828
386 0.000820
387 0.000780
388 0.000776
389 0.000797
390 0.000856
391 0.000859
392 0.000829
393 0.000795
394 0.000740
395 0.000653
396 0.000629
397 0.000593
398 0.000593
399 0.000619
400 0.000642
401 0.000682
402 0.000641
403 0.000536
404 0.000468
405 0.000409
406 0.000388
407 0.000346
408 0.000335
409 0.000308
410 0.000277
411 0.000293
412 0.000300
413 0.000268
414 0.000317
415 0.000395
416 0.000397
417 0.000461
418 0.000528
419 0.000599
420 0.000646
421 0.000585
422 0.000558
423 0.000568
424 0.000600
425 0.000603
426 0.000595
427 0.000602
428 0.000555
429 0.000494
430 0.000521
431 0.000488
432 0.000353
433 0.000297
434 0.000355
435 0.000426
436 0.000533
437 0.000637
438 0.000678
439 0.000747
440 0.000804
441 0.000808
442 0.000812
443 0.000797
444 0.000796
445 0.000896
446 0.000980
447 0.001019
448 0.001076
449 0.001065
450 0.001091
451 0.001044
452 0.000974
453 0.000948
454 0.000911
455 0.000996
456 0.001090
457 0.001167
458 0.001177
459 0.001161
460 0.001183
461 0.001216
462 0.001281
463 0.001355
464 0.001421
465 0.001448
466 0.001440
467 0.001389
468 0.001382
469 0.001351
470 0.001261
471 0.001253
472 0.001252
473 0.001220
474 0.001226
475 0.001199
476 0.001126
477 0.001122
478 0.001107
479 0.001115
480 0.001161
481 0.001149
482 0.001079
483 0.000989
484 0.000877
485 0.000720
486 0.000599
487 0.000520
488 0.000484
489 0.000481
490 0.000497
491 0.000569
492 0.000627
493 0.000651
494 0.000634
495 0.000638
496 0.000656
497 0.000687
498 0.000687
499 0.000662
500 0.000669
501 0.000688
502 0.000732
503 0.000735
504 0.000693
505 0.000649
506 0.000639
507 0.000655
508 0.000684
509 0.000691
510 0.000741
511 0.000801
512 0.000851
513 0.000886
514 0.000864
515 0.000813
516 0.000804
517 0.000836
518 0.000876
519 0.000927
520 0.000975
521 0.000950
522 0.000915
523 0.000829
524 0.000754
525 0.000749
526 0.000732
527 0.000694
528 0.000746
529 0.000761
530 0.000745
531 0.000764
532 0.000751
533 0.000792
534 0.000860
535 0.000886
536 0.000908
537 0.000945
538 0.000926
539 0.000849
540 0.000750
541 0.000624
542 0.000497
543 0.000389
544 0.000294
545 0.000272
546 0.000278
547 0.000300
548 0.000334
549 0.000380
550 0.000391
551 0.000384
552 0.000372
553 0.000337
554 0.000349
555 0.000370
556 0.000421
557 0.000497
558 0.000555
559 0.000551
560 0.000468
561 0.000442
562 0.000376
563 0.000344
564 0.000311
565 0.000266
566 0.000289
567 0.000364
568 0.000432
569 0.000465
570 0.000455
571 0.000417
572 0.000425
573 0.000445
574 0.000450
575 0.000475
576 0.000550
577 0.000584
578 0.000625
579 0.000650
580 0.000659
581 0.000638
582 0.000629
583 0.000621
584 0.000571
585 0.000536
586 0.000505
587 0.000512
588 0.000528
589 0.000570
590 0.000642
591 0.000688
592 0.000650
593 0.000603
594 0.000563
595 0.000539
596 0.000564
597 0.000528
598 0.000517
599 0.000520
600 0.000502
601 0.000459
602 0.000462
603 0.000451
604 0.000477
605 0.000485
606 0.000476
607 0.000495
608 0.000509
609 0.000524
610 0.000534
611 0.000550
612 0.000566
613 0.000565
614 0.000565
615 0.000536
616 0.000494
617 0.000482
618 0.000479
619 0.000491
620 0.000490
621 0.000430
622 0.000392
623 0.000369
624 0.000337
625 0.000329
626 0.000293
627 0.000289
628 0.000348
629 0.000425
630 0.000433
631 0.000471
632 0.000514
633 0.000541
634 0.000547
635 0.000551
636 0.000561
637 0.000569
638 0.000554
639 0.000569
640 0.000607
641 0.000575
642 0.000519
643 0.000429
644 0.000345
645 0.000322
646 0.000295
647 0.000299
648 0.000324
649 0.000342
650 0.000402
651 0.000450
652 0.000479
653 0.000499
654 0.000440
655 0.000433
656 0.000434
657 0.000389
658 0.000377
659 0.000384
660 0.000349
661 0.000365
662 0.000379
663 0.000354
664 0.000365
665 0.000353
666 0.000330
667 0.000345
668 0.000366
669 0.000370
670 0.000367
671 0.000359
672 0.000326
673 0.000310
674 0.000316
675 0.000312
676 0.000306
677 0.000336
678 0.000375
679 0.000400
680 0.000392
681 0.000370
682 0.000332
683 0.000269
684 0.000244
685 0.000273
686 0.000269
687 0.000257
688 0.000312
689 0.000325
690 0.000306
691 0.000276
692 0.000219
693 0.000190
694 0.000206
695 0.000189
696 0.000205
697 0.000214
698 0.000188
699 0.000169
700 0.000136
701 0.000080
702 0.000038
703 0.000047
704 0.000071
705 0.000100
706 0.000120
707 0.000125
708 0.000111
709 0.000057
710 0.000034
711 -0.000011
712 -0.000061
713 -0.000084
714 -0.000116
715 -0.000111
716 -0.000133
717 -0.000171
718 -0.000205
719 -0.000260
720 -0.000287
721 -0.000261
722 -0.000243
723 -0.000242
724 -0.000235
725 -0.000256
726 -0.000268
727 -0.000271
728 -0.000285
729 -0.000270
730 -0.000224
731 -0.000163
732 -0.000159
733 -0.000136
734 -0.000104
735 -0.000115
736 -0.000123
737 -0.000126
738 -0.000119
739 -0.000111
740 -0.000126
741 -0.000143
742 -0.000185
743 -0.000224
744 -0.000235
745 -0.000220
746 -0.000221
747 -0.000240
748 -0.000252
749 -0.000269
750 -0.000249
751 -0.000251
752 -0.000288
753 -0.000286
754 -0.000286
755 -0.000341
756 -0.000343
757 -0.000365
758 -0.000387
759 -0.000349
760 -0.000318
761 -0.000301
762 -0.000290
763 -0.000312
764 -0.000309
765 -0.000298
766 -0.000333
767 -0.000355
768 -0.000374
769 -0.000392
770 -0.000358
771 -0.000333
772 -0.000308
773 -0.000297
774 -0.000311
775 -0.000322
776 -0.000309
777 -0.000302
778 -0.000296
779 -0.000243
780 -0.000205
781 -0.000196
782 -0.000181
783 -0.000192
784 -0.000213
785 -0.000206
786 -0.000160
787 -0.000115
788 -0.000069
789 -0.000059
790 -0.000068
791 -0.000068
792 -0.000085
793 -0.000077
794 -0.000042
795 -0.000021
796 -0.000019
797 -0.000012
798 -0.000023
799 -0.000048
800 -0.000035
801 -0.000027
802 0.000028
803 0.000083
804 0.000111
805 0.000139
806 0.000104
807 0.000089
808 0.000079
809 0.000110
