# i correlation
1 0.004908
2 0.004256
3 0.003645
4 0.003158
5 0.002785
6 0.002397
7 0.002107
8 0.001920
9 0.001799
10 0.001624
11 0.001478
12 0.001255
13 0.001084
14 0.000988
15 0.000942
16 0.000867
17 0.000791
18 0.000789
19 0.000745
20 0.000804
21 0.000739
22 0.000740
23 0.000720
24 0.000701
25 0.000646
26 0.000657
27 0.000711
28 0.000643
29 0.000609
30 0.000615
31 0.000620
32 0.000586
33 0.000590
34 0.000561
35 0.000598
36 0.000619
37 0.000589
38 0.000590
39 0.000533
40 0.000603
41 0.000656
42 0.000661
43 0.000668
44 0.000710
45 0.000702
46 0.000640
47 0.000578
48 0.000532
49 0.000562
50 0.000574
51 0.000624
52 0.000631
53 0.000651
54 0.000699
55 0.000744
56 0.000875
57 0.000918
58 0.000975
59 0.000957
60 0.000973
61 0.000963
62 0.000891
63 0.000825
64 0.000717
65 0.000659
66 0.000554
67 0.000557
68 0.000544
69 0.000545
70 0.000556
71 0.000644
72 0.000633
73 0.000626
74 0.000580
75 0.000493
76 0.000576
77 0.000539
78 0.000527
79 0.000443
80 0.000412
81 0.000450
82 0.000455
83 0.000525
84 0.000557
85 0.000574
86 0.000545
87 0.000511
88 0.000408
89 0.000338
90 0.000211
91 0.000227
92 0.000201
93 0.000130
94 0.000083
95 0.000011
96 0.000014
97 0.000026
98 -0.000017
99 -0.000009
100 0.000026
101 0.000126
102 0.000166
103 0.000191
104 0.000207
105 0.000278
106 0.000313
107 0.000323
108 0.000258
109 0.000211
110 0.000133
111 0.000057
112 -0.000011
113 -0.000037
114 -0.000015
115 0.000023
116 0.000059
117 0.000042
118 0.000027
119 -0.000006
120 -0.000017
121 -0.000062
122 -0.000111
123 -0.000155
124 -0.000190
125 -0.000221
126 -0.000317
127 -0.000342
128 -0.000336
129 -0.000280
130 -0.000237
131 -0.000255
132 -0.000242
133 -0.000176
134 -0.000070
135 0.000044
136 0.000158
137 0.000287
138 0.000334
139 0.000336
140 0.000356
141 0.000384
142 0.000395
143 0.000376
144 0.000322
145 0.000339
146 0.000317
147 0.000252
148 0.000204
149 0.000183
150 0.000231
151 0.000266
152 0.000334
153 0.000337
154 0.000379
155 0.000332
156 0.000303
157 0.000264
158 0.000216
159 0.000168
160 0.000221
161 0.000216
162 0.000241
163 0.000276
164 0.000337
165 0.000426
166 0.000389
167 0.000281
168 0.000247
169 0.000245
170 0.000298
171 0.000284
172 0.000294
173 0.000275
174 0.000245
175 0.000235
176 0.000252
177 0.000276
178 0.000275
179 0.000249
180 0.000213
181 0.000192
182 0.000099
183 0.000020
184 -0.000057
185 -0.000049
186 -0.000007
187 0.000046
188 0.000026
189 -0.000027
190 -0.000109
191 -0.000204
192 -0.000287
193 -0.000384
194 -0.000513
195 -0.000628
196 -0.000684
197 -0.000819
198 -0.000900
199 -0.000986
200 -0.000987
201 -0.000965
202 -0.000978
203 -0.000991
204 -0.000992
205 -0.000891
206 -0.000786
207 -0.000673
208 -0.000653
209 -0.000665
210 -0.000621
211 -0.000598
212 -0.000533
213 -0.000535
214 -0.000482
215 -0.000432
216 -0.000353
217 -0.000312
218 -0.000244
219 -0.000128
220 -0.000032
221 0.000060
222 0.000163
223 0.000314
224 0.000404
225 0.000494
226 0.000559
227 0.000580
228 0.000561
229 0.000536
230 0.000542
231 0.000491
232 0.000454
233 0.000328
234 0.000237
235 0.000056
236 -0.000087
237 -0.000163
238 -0.000206
239 -0.000265
240 -0.000328
241 -0.000332
242 -0.000321
243 -0.000233
244 -0.000198
245 -0.000133
246 -0.000072
247 0.000044
248 0.000053
249 0.000123
250 0.000112
251 0.000102
252 0.000179
253 0.000189
254 0.000160
255 0.000124
256 0.000128
257 0.000153
258 0.000110
259 0.000119
260 0.000034
261 0.000062
262 0.000062
263 0.000076
264 0.000015
265 -0.000049
266 -0.000101
267 -0.000050
268 -0.000002
269 0.000053
270 0.000131
271 0.000201
272 0.000285
273 0.000267
274 0.000300
275 0.000237
276 0.000171
277 0.000093
278 0.000047
279 0.000057
280 0.000037
281 0.000047
282 0.000083
283 0.000216
284 0.000229
285 0.000207
286 0.000139
287 0.000086
288 0.000111
289 0.000120
290 0.000171
291 0.000239
292 0.000267
293 0.000333
294 0.000423
295 0.000457
296 0.000465
297 0.000479
298 0.000424
299 0.000407
300 0.000388
301 0.000365
302 0.000370
303 0.000406
304 0.000376
305 0.000379
306 0.000381
307 0.000359
308 0.000322
309 0.000292
310 0.000298
311 0.000279
312 0.000269
313 0.000222
314 0.000170
315 0.000152
316 0.000131
317 0.000089
318 0.000097
319 0.000060
320 0.000043
321 0.000060
322 0.000038
323 0.000090
324 0.000129
325 0.000185
326 0.000240
327 0.000281
328 0.000304
329 0.000357
330 0.000425
331 0.000416
332 0.000387
333 0.000297
334 0.000203
335 0.000146
336 0.000065
337 -0.000030
338 -0.000099
339 -0.000130
340 -0.000120
341 -0.000045
342 -0.000034
343 0.000037
344 0.000090
345 0.000178
346 0.000256
347 0.000287
348 0.000256
349 0.000202
350 0.000200
351 0.000185
352 0.000183
353 0.000170
354 0.000202
355 0.000242
356 0.000283
357 0.000279
358 0.000341
359 0.000304
360 0.000245
361 0.000233
362 0.000237
363 0.000213
364 0.000212
365 0.000224
366 0.000267
367 0.000371
368 0.000415
369 0.000381
370 0.000392
371 0.000374
372 0.000349
373 0.000279
374 0.000212
375 0.000126
376 0.000129
377 0.000117
378 0.000107
379 0.000117
380 0.000115
381 0.000144
382 0.000164
383 0.000155
384 0.000166
385 0.000187
386 0.000254
387 0.000287
388 0.000392
389 0.000421
390 0.000448
391 0.000468
392 0.000531
393 0.000494
394 0.000504
395 0.000450
396 0.000418
397 0.000380
398 0.000329
399 0.000339
400 0.000342
401 0.000346
402 0.000388
403 0.000506
404 0.000555
405 0.000527
406 0.000522
407 0.000528
408 0.000539
409 0.000559
410 0.000575
411 0.000612
412 0.000698
413 0.000745
414 0.000801
415 0.000804
416 0.000675
417 0.000596
418 0.000524
419 0.000518
420 0.000505
421 0.000481
422 0.000442
423 0.000371
424 0.000328
425 0.000268
426 0.000236
427 0.000216
428 0.000223
429 0.000250
430 0.000315
431 0.000350
432 0.000423
433 0.000504
434 0.000575
435 0.000613
436 0.000610
437 0.000598
438 0.000625
439 0.000668
440 0.000676
441 0.000674
442 0.000638
443 0.000571
444 0.000533
445 0.000482
446 0.000514
447 0.000529
448 0.000606
449 0.000630
450 0.000606
451 0.000544
452 0.000467
453 0.000335
454 0.000175
455 0.000100
456 -0.000000
457 0.000009
458 -0.000025
459 0.000093
460 0.000130
461 0.000192
462 0.000247
463 0.000313
464 0.000418
465 0.000412
466 0.000372
467 0.000310
468 0.000300
469 0.000274
470 0.000247
471 0.000233
472 0.000238
473 0.000269
474 0.000262
475 0.000287
476 0.000291
477 0.000309
478 0.000310
479 0.000365
480 0.000362
481 0.000387
482 0.000397
483 0.000404
484 0.000424
485 0.000377
486 0.000349
487 0.000320
488 0.000276
489 0.000265
490 0.000249
491 0.000265
492 0.000288
493 0.000307
494 0.000248
495 0.000257
496 0.000236
497 0.000202
498 0.000190
499 0.000190
500 0.000200
501 0.000196
502 0.000169
503 0.000114
504 0.000102
505 0.000083
506 0.000136
507 0.000120
508 0.000134
509 0.000137
510 0.000144
511 0.000162
512 0.000127
513 0.000086
514 -0.000010
515 -0.000028
516 0.000018
517 0.000110
518 0.000189
519 0.000259
520 0.000356
521 0.000434
522 0.000539
523 0.000607
524 0.000636
525 0.000606
526 0.000620
527 0.000586
528 0.000537
529 0.000468
530 0.000451
531 0.000450
532 0.000460
533 0.000493
534 0.000500
535 0.000557
536 0.000573
537 0.000651
538 0.000669
539 0.000621
540 0.000610
541 0.000573
542 0.000544
543 0.000531
544 0.000553
545 0.000538
546 0.000513
547 0.000416
548 0.000369
549 0.000407
550 0.000407
551 0.000404
552 0.000392
553 0.000380
554 0.000352
555 0.000305
556 0.000269
557 0.000240
558 0.000224
559 0.000147
560 0.000066
561 -0.000026
562 -0.000102
563 -0.000103
564 -0.000064
565 0.000023
566 0.000077
567 0.000149
568 0.000211
569 0.000260
570 0.000236
571 0.000220
572 0.000249
573 0.000307
574 0.000399
575 0.000506
576 0.000572
577 0.000606
578 0.000652
579 0.000673
580 0.000620
581 0.000571
582 0.000505
583 0.000460
584 0.000497
585 0.000495
586 0.000461
587 0.000426
588 0.000368
589 0.000346
590 0.000277
591 0.000170
592 0.000142
593 0.000141
594 0.000175
595 0.000193
596 0.000174
597 0.000156
598 0.000185
599 0.000224
600 0.000253
601 0.000276
602 0.000309
603 0.000306
604 0.000313
605 0.000264
606 0.000214
607 0.000184
608 0.000155
609 0.000166
610 0.000104
611 0.000091
612 0.000016
613 -0.000022
614 -0.000006
615 0.000005
616 -0.000008
617 -0.000017
618 -0.000018
619 0.000005
620 0.000018
621 0.000008
622 -0.000018
623 -0.000055
624 -0.000099
625 -0.000093
626 -0.000088
627 -0.000100
628 -0.000115
629 -0.000063
630 -0.000030
631 -0.000074
632 -0.000150
633 -0.000193
634 -0.000192
635 -0.000146
636 -0.000120
637 -0.000054
638 -0.000011
639 0.000027
640 0.000014
641 0.000027
642 0.000021
643 -0.000002
644 -0.000041
645 -0.000068
646 -0.000091
647 -0.000128
648 -0.000190
649 -0.000232
650 -0.000241
651 -0.000250
652 -0.000238
653 -0.000232
654 -0.000287
655 -0.000283
656 -0.000267
657 -0.000245
658 -0.000215
659 -0.000162
660 -0.000102
661 -0.000045
662 0.000004
663 0.000016
664 0.000046
665 0.000107
666 0.000135
667 0.000118
668 0.000050
669 -0.000025
670 -0.000003
671 0.000034
672 0.000034
673 0.000012
674 0.000009
675 -0.000024
676 -0.000056
677 -0.000128
678 -0.000204
679 -0.000208
680 -0.000229
681 -0.000258
682 -0.000269
683 -0.000282
684 -0.000357
685 -0.000392
686 -0.000397
687 -0.000376
688 -0.000343
689 -0.000293
690 -0.000247
691 -0.000157
692 -0.000102
693 -0.000023
694 0.000086
695 0.000169
696 0.000227
697 0.000271
698 0.000301
699 0.000301
700 0.000301
701 0.000276
702 0.000274
703 0.000275
704 0.000244
705 0.000233
706 0.000230
707 0.000178
708 0.000163
709 0.000209
710 0.000255
711 0.000291
712 0.000297
713 0.000310
714 0.000329
715 0.000339
716 0.000357
717 0.000364
718 0.000372
719 0.000370
720 0.000367
721 0.000347
722 0.000354
723 0.000359
724 0.000338
725 0.000280
726 0.000231
727 0.000164
728 0.000107
729 0.000080
730 0.000056
731 0.000051
732 0.000019
733 0.000007
734 -0.000030
735 -0.000038
736 -0.000032
737 -0.000051
738 -0.000057
739 -0.000064
740 -0.000076
741 -0.000080
742 -0.000079
743 -0.000049
744 -0.000001
745 0.000035
746 0.000084
747 0.000121
748 0.000113
749 0.000130
750 0.000195
751 0.000244
752 0.000268
753 0.000287
754 0.000313
755 0.000366
756 0.000401
757 0.000429
758 0.000462
759 0.000471
760 0.000457
761 0.000451
762 0.000413
763 0.000391
764 0.000405
765 0.000424
766 0.000419
767 0.000425
768 0.000403
769 0.000356
770 0.000335
771 0.000323
772 0.000331
773 0.000333
774 0.000342
775 0.000329
776 0.000322
777 0.000294
778 0.000265
779 0.000260
780 0.000276
781 0.000292
782 0.000290
783 0.000260
784 0.000221
785 0.000177
786 0.000148
787 0.000135
788 0.000119
789 0.000108
790 0.000085
791 0.000091
792 0.000061
793 0.000027
794 0.000027
795 0.000071
796 0.000130
797 0.000144
798 0.000136
799 0.000127
800 0.000149
801 0.000177
802 0.000234
803 0.000265
804 0.000289
805 0.000312
806 0.000361
807 0.000419
808 0.000457
809 0.000488
