# i correlation
1 0.005623
2 0.005026
3 0.004487
4 0.004021
5 0.003678
6 0.003317
7 0.003009
8 0.002772
9 0.002582
10 0.002388
11 0.002185
12 0.002033
13 0.001826
14 0.001671
15 0.001567
16 0.001520
17 0.001550
18 0.001553
19 0.001577
20 0.001598
21 0.001597
22 0.001574
23 0.001529
24 0.001534
25 0.001490
26 0.001426
27 0.001306
28 0.001193
29 0.001030
30 0.000893
31 0.000798
32 0.000740
33 0.000756
34 0.000773
35 0.000801
36 0.000820
37 0.000780
38 0.000766
39 0.000831
40 0.000911
41 0.001041
42 0.001202
43 0.001333
44 0.001444
45 0.001567
46 0.001639
47 0.001627
48 0.001595
49 0.001510
50 0.001533
51 0.001551
52 0.001525
53 0.001499
54 0.001515
55 0.001535
56 0.001524
57 0.001471
58 0.001502
59 0.001418
60 0.001403
61 0.001385
62 0.001373
63 0.001437
64 0.001499
65 0.001531
66 0.001562
67 0.001699
68 0.001824
69 0.001936
70 0.002044
71 0.002092
72 0.002074
73 0.002021
74 0.001959
75 0.001931
76 0.001978
77 0.001987
78 0.002056
79 0.002092
80 0.002147
81 0.002120
82 0.002021
83 0.001956
84 0.001901
85 0.001894
86 0.001859
87 0.001811
88 0.001779
89 0.001725
90 0.001717
91 0.001691
92 0.001676
93 0.001628
94 0.001537
95 0.001436
96 0.001390
97 0.001344
98 0.001244
99 0.001196
100 0.001073
101 0.000971
102 0.000841
103 0.000715
104 0.000689
105 0.000713
106 0.000765
107 0.000814
108 0.000781
109 0.000754
110 0.000783
111 0.000818
112 0.000809
113 0.000854
114 0.000885
115 0.000869
116 0.000865
117 0.000840
118 0.000827
119 0.000824
120 0.000709
121 0.000663
122 0.000641
123 0.000675
124 0.000661
125 0.000684
126 0.000724
127 0.000783
128 0.000853
129 0.000870
130 0.000913
131 0.001016
132 0.001182
133 0.001296
134 0.001352
135 0.001395
136 0.001422
137 0.001383
138 0.001373
139 0.001336
140 0.001350
141 0.001348
142 0.001325
143 0.001226
144 0.001093
145 0.000995
146 0.001024
147 0.001017
148 0.001015
149 0.001018
150 0.000989
151 0.000969
152 0.000976
153 0.000971
154 0.000934
155 0.000919
156 0.000935
157 0.000951
158 0.000958
159 0.000956
160 0.000920
161 0.000908
162 0.000843
163 0.000770
164 0.000727
165 0.000662
166 0.000584
167 0.000498
168 0.000491
169 0.000393
170 0.000260
171 0.000204
172 0.000158
173 0.000178
174 0.000220
175 0.000262
176 0.000321
177 0.000396
178 0.000470
179 0.000488
180 0.000509
181 0.000497
182 0.000470
183 0.000504
184 0.000541
185 0.000594
186 0.000678
187 0.000753
188 0.000757
189 0.000717
190 0.000662
191 0.000595
192 0.000638
193 0.000634
194 0.000645
195 0.000672
196 0.000677
197 0.000726
198 0.000761
199 0.000776
200 0.000843
201 0.000833
202 0.000896
203 0.000929
204 0.001034
205 0.001064
206 0.001072
207 0.001060
208 0.001060
209 0.001114
210 0.001242
211 0.001334
212 0.001417
213 0.001403
214 0.001332
215 0.001213
216 0.001134
217 0.001041
218 0.000941
219 0.000895
220 0.000862
221 0.000861
222 0.000816
223 0.000727
224 0.000652
225 0.000534
226 0.000476
227 0.000434
228 0.000435
229 0.000437
230 0.000440
231 0.000463
232 0.000503
233 0.000516
234 0.000518
235 0.000454
236 0.000417
237 0.000367
238 0.000376
239 0.000334
240 0.000281
241 0.000205
242 0.000101
243 -0.000007
244 -0.000044
245 -0.000014
246 -0.000024
247 -0.000083
248 -0.000151
249 -0.000197
250 -0.000218
251 -0.000310
252 -0.000364
253 -0.000388
254 -0.000310
255 -0.000213
256 -0.000096
257 0.000019
258 0.000102
259 0.000180
260 0.000183
261 0.000187
262 0.000187
263 0.000175
264 0.000238
265 0.000339
266 0.000356
267 0.000404
268 0.000394
269 0.000333
270 0.000296
271 0.000248
272 0.000199
273 0.000178
274 0.000152
275 0.000186
276 0.000159
277 0.000108
278 0.000122
279 0.000100
280 0.000166
281 0.000206
282 0.000253
283 0.000294
284 0.000331
285 0.000357
286 0.000409
287 0.000419
288 0.000406
289 0.000427
290 0.000428
291 0.000453
292 0.000485
293 0.000431
294 0.000401
295 0.000296
296 0.000202
297 0.000160
298 0.000091
299 0.000084
300 0.000023
301 -0.000012
302 -0.000049
303 -0.000086
304 -0.000098
305 -0.000155
306 -0.000163
307 -0.000153
308 -0.000177
309 -0.000144
310 -0.000104
311 -0.000004
312 -0.000010
313 -0.000061
314 -0.000123
315 -0.000160
316 -0.000208
317 -0.000213
318 -0.000273
319 -0.000337
320 -0.000390
321 -0.000382
322 -0.000409
323 -0.000452
324 -0.000550
325 -0.000576
326 -0.000543
327 -0.000505
328 -0.000448
329 -0.000425
330 -0.000413
331 -0.000472
332 -0.000530
333 -0.000578
334 -0.000638
335 -0.000630
336 -0.000641
337 -0.000625
338 -0.000608
339 -0.000606
340 -0.000611
341 -0.000618
342 -0.000633
343 -0.000681
344 -0.000626
345 -0.000539
346 -0.000442
347 -0.000316
348 -0.000213
349 -0.000137
350 -0.000072
351 0.000035
352 0.000106
353 0.000148
354 0.000215
355 0.000231
356 0.000229
357 0.000162
358 0.000058
359 -0.000004
360 -0.000060
361 -0.000089
362 -0.000119
363 -0.000157
364 -0.000225
365 -0.000261
366 -0.000290
367 -0.000298
368 -0.000274
369 -0.000274
370 -0.000290
371 -0.000264
372 -0.000199
373 -0.000144
374 -0.000117
375 -0.000127
376 -0.000191
377 -0.000230
378 -0.000247
379 -0.000313
380 -0.000331
381 -0.000391
382 -0.000449
383 -0.000546
384 -0.000617
385 -0.000708
386 -0.000765
387 -0.000760
388 -0.000797
389 -0.000857
390 -0.000845
391 -0.000821
392 -0.000797
393 -0.000795
394 -0.000813
395 -0.000800
396 -0.000725
397 -0.000643
398 -0.000560
399 -0.000449
400 -0.000424
401 -0.000434
402 -0.000441
403 -0.000482
404 -0.000497
405 -0.000490
406 -0.000443
407 -0.000407
408 -0.000352
409 -0.000336
410 -0.000338
411 -0.000308
412 -0.000305
413 -0.000288
414 -0.000270
415 -0.000302
416 -0.000256
417 -0.000205
418 -0.000081
419 -0.000011
420 0.000062
421 0.000125
422 0.000205
423 0.000301
424 0.000328
425 0.000342
426 0.000367
427 0.000340
428 0.000275
429 0.000191
430 0.000068
431 -0.000025
432 -0.000061
433 -0.000073
434 -0.000050
435 -0.000086
436 -0.000132
437 -0.000225
438 -0.000235
439 -0.000291
440 -0.000327
441 -0.000359
442 -0.000399
443 -0.000351
444 -0.000280
445 -0.000179
446 -0.000114
447 -0.000122
448 -0.000087
449 -0.000070
450 -0.000120
451 -0.000148
452 -0.000210
453 -0.000251
454 -0.000256
455 -0.000289
456 -0.000335
457 -0.000407
458 -0.000426
459 -0.000463
460 -0.000509
461 -0.000557
462 -0.000566
463 -0.000574
464 -0.000604
465 -0.000653
466 -0.000632
467 -0.000569
468 -0.000515
469 -0.000463
470 -0.000388
471 -0.000396
472 -0.000387
473 -0.000365
474 -0.000385
475 -0.000396
476 -0.000405
477 -0.000423
478 -0.000428
479 -0.000393
480 -0.000349
481 -0.000366
482 -0.000391
483 -0.000413
484 -0.000370
485 -0.000353
486 -0.000266
487 -0.000178
488 -0.000108
489 -0.000058
490 -0.000005
491 0.000063
492 0.000101
493 0.000112
494 0.000206
495 0.000257
496 0.000323
497 0.000357
498 0.000377
499 0.000409
500 0.000359
501 0.000328
502 0.000295
503 0.000333
504 0.000369
505 0.000358
506 0.000335
507 0.000274
508 0.000233
509 0.000227
510 0.000184
511 0.000134
512 0.000105
513 0.000100
514 0.000113
515 0.000114
516 0.000068
517 -0.000010
518 -0.000098
519 -0.000160
520 -0.000242
521 -0.000334
522 -0.000411
523 -0.000445
524 -0.000475
525 -0.000520
526 -0.000531
527 -0.000539
528 -0.000513
529 -0.000538
530 -0.000502
531 -0.000478
532 -0.000454
533 -0.000421
534 -0.000360
535 -0.000339
536 -0.000358
537 -0.000355
538 -0.000378
539 -0.000313
540 -0.000275
541 -0.000304
542 -0.000267
543 -0.000279
544 -0.000263
545 -0.000201
546 -0.000187
547 -0.000182
548 -0.000188
549 -0.000179
550 -0.000167
551 -0.000131
552 -0.000115
553 -0.000097
554 -0.000044
555 -0.000003
556 0.000079
557 0.000165
558 0.000218
559 0.000286
560 0.000336
561 0.000374
562 0.000399
563 0.000403
564 0.000397
565 0.000396
566 0.000409
567 0.000415
568 0.000394
569 0.000332
570 0.000244
571 0.000146
572 0.000079
573 0.000033
574 0.000006
575 -0.000021
576 -0.000053
577 -0.000063
578 -0.000079
579 -0.000104
580 -0.000116
581 -0.000125
582 -0.000079
583 -0.000040
584 0.000025
585 0.000099
586 0.000210
587 0.000297
588 0.000321
589 0.000307
590 0.000268
591 0.000267
592 0.000230
593 0.000181
594 0.000141
595 0.000109
596 0.000073
597 0.000067
598 0.000045
599 -0.000011
600 -0.000030
601 -0.000059
602 -0.000079
603 -0.000074
604 -0.000081
605 -0.000105
606 -0.000100
607 -0.000130
608 -0.000125
609 -0.000076
610 -0.000067
611 -0.000053
612 -0.000035
613 -0.000004
614 -0.000011
615 -0.000030
616 -0.000020
617 -0.000023
618 -0.000048
619 -0.000065
620 -0.000066
621 -0.000041
622 -0.000017
623 -0.000038
624 -0.000072
625 -0.000154
626 -0.000185
627 -0.000187
628 -0.000171
629 -0.000134
630 -0.000059
631 -0.000001
632 0.000100
633 0.000218
634 0.000297
635 0.000349
636 0.000423
637 0.000490
638 0.000559
639 0.000596
640 0.000616
641 0.000664
642 0.000679
643 0.000644
644 0.000631
645 0.000618
646 0.000617
647 0.000614
648 0.000602
649 0.000565
650 0.000532
651 0.000482
652 0.000422
653 0.000366
654 0.000305
655 0.000296
656 0.000294
657 0.000268
658 0.000305
659 0.000341
660 0.000339
661 0.000316
662 0.000276
663 0.000239
664 0.000228
665 0.000218
666 0.000211
667 0.000230
668 0.000246
669 0.000201
670 0.000159
671 0.000098
672 0.000107
673 0.000090
674 0.000060
675 0.000052
676 0.000074
677 0.000118
678 0.000165
679 0.000202
680 0.000229
681 0.000263
682 0.000279
683 0.000308
684 0.000351
685 0.000379
686 0.000360
687 0.000339
688 0.000314
689 0.000282
690 0.000271
691 0.000275
692 0.000271
693 0.000252
694 0.000236
695 0.000223
696 0.000218
697 0.000190
698 0.000162
699 0.000135
700 0.000132
701 0.000142
702 0.000148
703 0.000153
704 0.000137
705 0.000130
706 0.000136
707 0.000141
708 0.000155
709 0.000199
710 0.000244
711 0.000272
712 0.000295
713 0.000351
714 0.000403
715 0.000443
716 0.000454
717 0.000456
718 0.000456
719 0.000481
720 0.000496
721 0.000468
722 0.000450
723 0.000460
724 0.000463
725 0.000454
726 0.000473
727 0.000503
728 0.000537
729 0.000567
730 0.000557
731 0.000530
732 0.000537
733 0.000492
734 0.000482
735 0.000498
736 0.000487
737 0.000478
738 0.000469
739 0.000455
740 0.000438
741 0.000418
742 0.000371
743 0.000350
744 0.000368
745 0.000389
746 0.000396
747 0.000404
748 0.000400
749 0.000410
750 0.000407
751 0.000394
752 0.000389
753 0.000385
754 0.000394
755 0.000434
756 0.000452
757 0.000434
758 0.000420
759 0.000420
760 0.000427
761 0.000432
762 0.000440
763 0.000432
764 0.000441
765 0.000473
766 0.000489
767 0.000468
768 0.000447
769 0.000464
770 0.000468
771 0.000460
772 0.000440
773 0.000419
774 0.000436
775 0.000410
776 0.000341
777 0.000315
778 0.000301
779 0.000275
780 0.000261
781 0.000249
782 0.000218
783 0.000222
784 0.000224
785 0.000202
786 0.000204
787 0.000197
788 0.000187
789 0.000203
790 0.000224
791 0.000266
792 0.000286
793 0.000285
794 0.000305
795 0.000348
796 0.000351
797 0.000361
798 0.000374
799 0.000364
800 0.000354
801 0.000346
802 0.000333
803 0.000317
804 0.000280
805 0.000265
806 0.000264
807 0.000282
808 0.000296
809 0.000299
