# i correlation
1 0.004768
2 0.004071
3 0.003472
4 0.002948
5 0.002606
6 0.002290
7 0.002108
8 0.001975
9 0.001897
10 0.001820
11 0.001673
12 0.001532
13 0.001463
14 0.001358
15 0.001289
16 0.001180
17 0.001106
18 0.000989
19 0.000981
20 0.000971
21 0.000946
22 0.000916
23 0.000906
24 0.000914
25 0.000956
26 0.000966
27 0.000931
28 0.000889
29 0.000907
30 0.000950
31 0.001013
32 0.001052
33 0.001086
34 0.001121
35 0.001043
36 0.000887
37 0.000688
38 0.000501
39 0.000426
40 0.000320
41 0.000208
42 0.000164
43 0.000114
44 0.000084
45 0.000097
46 0.000117
47 0.000121
48 0.000132
49 0.000122
50 0.000074
51 0.000102
52 0.000179
53 0.000285
54 0.000298
55 0.000222
56 0.000228
57 0.000205
58 0.000175
59 0.000160
60 0.000049
61 -0.000087
62 -0.000178
63 -0.000222
64 -0.000295
65 -0.000389
66 -0.000372
67 -0.000341
68 -0.000288
69 -0.000243
70 -0.000159
71 -0.000120
72 -0.000068
73 -0.000126
74 -0.000199
75 -0.000335
76 -0.000476
77 -0.000475
78 -0.000479
79 -0.000308
80 -0.000122
81 -0.000019
82 0.000052
83 0.000167
84 0.000234
85 0.000259
86 0.000278
87 0.000333
88 0.000335
89 0.000262
90 0.000182
91 0.000209
92 0.000237
93 0.000169
94 0.000126
95 0.000102
96 0.000152
97 0.000172
98 0.000219
99 0.000203
100 0.000185
101 0.000171
102 0.000188
103 0.000217
104 0.000247
105 0.000288
106 0.000358
107 0.000398
108 0.000395
109 0.000393
110 0.000294
111 0.000320
112 0.000352
113 0.000388
114 0.000387
115 0.000383
116 0.000468
117 0.000464
118 0.000375
119 0.000330
120 0.000367
121 0.000371
122 0.000412
123 0.000414
124 0.000362
125 0.000324
126 0.000243
127 0.000163
128 0.000126
129 0.000095
130 0.000165
131 0.000264
132 0.000273
133 0.000348
134 0.000347
135 0.000360
136 0.000417
137 0.000494
138 0.000628
139 0.000714
140 0.000745
141 0.000746
142 0.000642
143 0.000526
144 0.000397
145 0.000304
146 0.000307
147 0.000366
148 0.000400
149 0.000391
150 0.000393
151 0.000420
152 0.000336
153 0.000284
154 0.000257
155 0.000197
156 0.000170
157 0.000148
158 0.000188
159 0.000218
160 0.000240
161 0.000232
162 0.000273
163 0.000364
164 0.000406
165 0.000505
166 0.000544
167 0.000583
168 0.000626
169 0.000665
170 0.000717
171 0.000738
172 0.000814
173 0.000866
174 0.000812
175 0.000784
176 0.000701
177 0.000550
178 0.000386
179 0.000263
180 0.000223
181 0.000163
182 0.000156
183 0.000168
184 0.000223
185 0.000241
186 0.000181
187 0.000087
188 0.000028
189 -0.000043
190 -0.000013
191 0.000055
192 0.000173
193 0.000297
194 0.000366
195 0.000433
196 0.000478
197 0.000442
198 0.000334
199 0.000268
200 0.000248
201 0.000201
202 0.000155
203 0.000105
204 0.000074
205 0.000094
206 0.000041
207 0.000093
208 0.000157
209 0.000118
210 0.000092
211 0.000037
212 -0.000102
213 -0.000171
214 -0.000208
215 -0.000230
216 -0.000198
217 -0.000180
218 -0.000178
219 -0.000177
220 -0.000168
221 -0.000112
222 -0.000056
223 -0.000051
224 -0.000048
225 -0.000070
226 -0.000005
227 0.000088
228 0.000163
229 0.000241
230 0.000285
231 0.000309
232 0.000239
233 0.000153
234 0.000062
235 -0.000030
236 -0.000115
237 -0.000181
238 -0.000295
239 -0.000370
240 -0.000444
241 -0.000540
242 -0.000565
243 -0.000569
244 -0.000506
245 -0.000383
246 -0.000309
247 -0.000171
248 -0.000138
249 -0.000123
250 -0.000094
251 -0.000151
252 -0.000158
253 -0.000162
254 -0.000089
255 -0.000021
256 0.000091
257 0.000108
258 0.000039
259 -0.000073
260 -0.000152
261 -0.000144
262 -0.000138
263 -0.000140
264 -0.000065
265 -0.000026
266 -0.000079
267 -0.000060
268 -0.000139
269 -0.000258
270 -0.000353
271 -0.000363
272 -0.000343
273 -0.000380
274 -0.000347
275 -0.000287
276 -0.000194
277 -0.000070
278 0.000005
279 0.000125
280 0.000225
281 0.000272
282 0.000272
283 0.000246
284 0.000235
285 0.000188
286 0.000136
287 0.000216
288 0.000355
289 0.000401
290 0.000415
291 0.000403
292 0.000309
293 0.000244
294 0.000164
295 0.000076
296 0.000088
297 0.000118
298 0.000168
299 0.000173
300 0.000210
301 0.000286
302 0.000257
303 0.000257
304 0.000253
305 0.000204
306 0.000248
307 0.000319
308 0.000377
309 0.000426
310 0.000492
311 0.000465
312 0.000402
313 0.000448
314 0.000479
315 0.000456
316 0.000466
317 0.000476
318 0.000481
319 0.000459
320 0.000442
321 0.000365
322 0.000258
323 0.000184
324 0.000174
325 0.000121
326 0.000115
327 0.000138
328 0.000146
329 0.000151
330 0.000185
331 0.000303
332 0.000405
333 0.000523
334 0.000564
335 0.000629
336 0.000641
337 0.000583
338 0.000499
339 0.000443
340 0.000354
341 0.000325
342 0.000293
343 0.000363
344 0.000456
345 0.000527
346 0.000599
347 0.000600
348 0.000557
349 0.000527
350 0.000425
351 0.000308
352 0.000187
353 0.000080
354 0.000074
355 0.000032
356 0.000023
357 -0.000023
358 -0.000020
359 0.000009
360 0.000062
361 0.000132
362 0.000232
363 0.000309
364 0.000401
365 0.000473
366 0.000543
367 0.000665
368 0.000744
369 0.000795
370 0.000770
371 0.000691
372 0.000622
373 0.000585
374 0.000526
375 0.000503
376 0.000538
377 0.000575
378 0.000636
379 0.000639
380 0.000701
381 0.000682
382 0.000573
383 0.000471
384 0.000397
385 0.000340
386 0.000284
387 0.000256
388 0.000205
389 0.000182
390 0.000178
391 0.000200
392 0.000236
393 0.000241
394 0.000249
395 0.000244
396 0.000211
397 0.000237
398 0.000261
399 0.000308
400 0.000404
401 0.000505
402 0.000588
403 0.000623
404 0.000640
405 0.000610
406 0.000519
407 0.000450
408 0.000373
409 0.000262
410 0.000148
411 0.000027
412 -0.000035
413 -0.000047
414 -0.000041
415 0.000014
416 0.000062
417 0.000089
418 0.000151
419 0.000203
420 0.000208
421 0.000166
422 0.000111
423 0.000032
424 -0.000058
425 -0.000131
426 -0.000136
427 -0.000113
428 -0.000155
429 -0.000152
430 -0.000123
431 -0.000083
432 -0.000049
433 -0.000071
434 -0.000124
435 -0.000180
436 -0.000236
437 -0.000252
438 -0.000243
439 -0.000209
440 -0.000157
441 -0.000118
442 -0.000162
443 -0.000236
444 -0.000305
445 -0.000378
446 -0.000407
447 -0.000335
448 -0.000178
449 -0.000072
450 0.000028
451 0.000015
452 0.000024
453 0.000045
454 0.000046
455 0.000040
456 -0.000005
457 -0.000023
458 -0.000062
459 -0.000082
460 -0.000071
461 -0.000041
462 -0.000096
463 -0.000074
464 -0.000021
465 0.000001
466 0.000045
467 0.000083
468 0.000025
469 0.000002
470 -0.000033
471 -0.000036
472 0.000003
473 0.000034
474 0.000114
475 0.000130
476 0.000133
477 0.000036
478 -0.000014
479 -0.000050
480 -0.000083
481 -0.000069
482 -0.000043
483 0.000008
484 0.000085
485 0.000168
486 0.000208
487 0.000239
488 0.000229
489 0.000242
490 0.000245
491 0.000195
492 0.000140
493 0.000119
494 0.000094
495 0.000089
496 0.000069
497 0.000083
498 0.000130
499 0.000132
500 0.000197
501 0.000264
502 0.000307
503 0.000342
504 0.000306
505 0.000268
506 0.000277
507 0.000261
508 0.000250
509 0.000224
510 0.000177
511 0.000209
512 0.000239
513 0.000203
514 0.000159
515 0.000105
516 0.000059
517 0.000092
518 0.000114
519 0.000143
520 0.000174
521 0.000216
522 0.000240
523 0.000257
524 0.000275
525 0.000287
526 0.000259
527 0.000283
528 0.000300
529 0.000333
530 0.000324
531 0.000330
532 0.000350
533 0.000396
534 0.000452
535 0.000476
536 0.000514
537 0.000570
538 0.000636
539 0.000734
540 0.000844
541 0.000881
542 0.000921
543 0.000908
544 0.000924
545 0.000900
546 0.000905
547 0.000877
548 0.000839
549 0.000785
550 0.000721
551 0.000678
552 0.000642
553 0.000646
554 0.000680
555 0.000755
556 0.000803
557 0.000839
558 0.000814
559 0.000794
560 0.000745
561 0.000715
562 0.000670
563 0.000659
564 0.000665
565 0.000701
566 0.000703
567 0.000672
568 0.000626
569 0.000540
570 0.000538
571 0.000549
572 0.000587
573 0.000596
574 0.000548
575 0.000514
576 0.000440
577 0.000367
578 0.000301
579 0.000190
580 0.000149
581 0.000130
582 0.000076
583 0.000021
584 -0.000070
585 -0.000089
586 -0.000103
587 -0.000127
588 -0.000151
589 -0.000180
590 -0.000198
591 -0.000170
592 -0.000134
593 -0.000080
594 -0.000035
595 -0.000008
596 0.000019
597 0.000044
598 0.000070
599 0.000106
600 0.000114
601 0.000095
602 0.000036
603 -0.000019
604 -0.000056
605 -0.000101
606 -0.000129
607 -0.000133
608 -0.000134
609 -0.000179
610 -0.000229
611 -0.000240
612 -0.000229
613 -0.000224
614 -0.000184
615 -0.000186
616 -0.000235
617 -0.000273
618 -0.000315
619 -0.000354
620 -0.000330
621 -0.000326
622 -0.000319
623 -0.000288
624 -0.000277
625 -0.000251
626 -0.000250
627 -0.000245
628 -0.000207
629 -0.000185
630 -0.000175
631 -0.000181
632 -0.000183
633 -0.000161
634 -0.000089
635 -0.000050
636 -0.000040
637 -0.000040
638 -0.000062
639 -0.000078
640 -0.000106
641 -0.000119
642 -0.000112
643 -0.000074
644 -0.000024
645 0.000030
646 0.000094
647 0.000148
648 0.000200
649 0.000256
650 0.000282
651 0.000306
652 0.000304
653 0.000313
654 0.000300
655 0.000290
656 0.000316
657 0.000343
658 0.000376
659 0.000414
660 0.000457
661 0.000431
662 0.000414
663 0.000428
664 0.000451
665 0.000479
666 0.000515
667 0.000554
668 0.000580
669 0.000579
670 0.000573
671 0.000563
672 0.000542
673 0.000496
674 0.000439
675 0.000392
676 0.000360
677 0.000369
678 0.000370
679 0.000365
680 0.000401
681 0.000436
682 0.000465
683 0.000452
684 0.000405
685 0.000336
686 0.000298
687 0.000295
688 0.000319
689 0.000288
690 0.000275
691 0.000268
692 0.000278
693 0.000290
694 0.000312
695 0.000337
696 0.000345
697 0.000388
698 0.000400
699 0.000349
700 0.000289
701 0.000233
702 0.000214
703 0.000215
704 0.000205
705 0.000190
706 0.000195
707 0.000167
708 0.000123
709 0.000087
710 0.000045
711 0.000050
712 0.000054
713 0.000056
714 0.000054
715 0.000045
716 0.000018
717 -0.000019
718 -0.000051
719 -0.000060
720 -0.000072
721 -0.000070
722 -0.000066
723 -0.000067
724 -0.000074
725 -0.000114
726 -0.000126
727 -0.000163
728 -0.000164
729 -0.000168
730 -0.000154
731 -0.000120
732 -0.000128
733 -0.000129
734 -0.000128
735 -0.000113
736 -0.000108
737 -0.000115
738 -0.000139
739 -0.000139
740 -0.000112
741 -0.000096
742 -0.000116
743 -0.000155
744 -0.000195
745 -0.000208
746 -0.000198
747 -0.000192
748 -0.000181
749 -0.000187
750 -0.000166
751 -0.000119
752 -0.000102
753 -0.000124
754 -0.000106
755 -0.000087
756 -0.000088
757 -0.000099
758 -0.000086
759 -0.000113
760 -0.000145
761 -0.000190
762 -0.000213
763 -0.000253
764 -0.000312
765 -0.000338
766 -0.000351
767 -0.000334
768 -0.000320
769 -0.000296
770 -0.000285
771 -0.000271
772 -0.000267
773 -0.000252
774 -0.000230
775 -0.000212
776 -0.000203
777 -0.000198
778 -0.000205
779 -0.000168
780 -0.000157
781 -0.000130
782 -0.000123
783 -0.000113
784 -0.000089
785 -0.000047
786 -0.000005
787 0.000008
788 0.000009
789 0.000025
790 0.000013
791 -0.000040
792 -0.000077
793 -0.000133
794 -0.000140
795 -0.000159
796 -0.000174
797 -0.000216
798 -0.000240
799 -0.000259
800 -0.000285
801 -0.000308
802 -0.000339
803 -0.000361
804 -0.000379
805 -0.000390
806 -0.000405
807 -0.000412
808 -0.000424
809 -0.000425
