# i correlation
1 0.001343
2 0.001285
3 0.001250
4 0.001218
5 0.001191
6 0.001170
7 0.001149
8 0.001132
9 0.001121
10 0.001116
11 0.001105
12 0.001093
13 0.001085
14 0.001071
15 0.001055
16 0.001048
17 0.001044
18 0.001036
19 0.001024
20 0.001017
21 0.001012
22 0.001007
23 0.000998
24 0.000986
25 0.000969
26 0.000958
27 0.000956
28 0.000953
29 0.000944
30 0.000933
31 0.000922
32 0.000913
33 0.000909
34 0.000904
35 0.000897
36 0.000891
37 0.000890
38 0.000891
39 0.000889
40 0.000884
41 0.000881
42 0.000879
43 0.000874
44 0.000869
45 0.000863
46 0.000856
47 0.000850
48 0.000842
49 0.000833
50 0.000836
51 0.000838
52 0.000833
53 0.000820
54 0.000811
55 0.000811
56 0.000806
57 0.000795
58 0.000786
59 0.000786
60 0.000795
61 0.000804
62 0.000805
63 0.000807
64 0.000808
65 0.000806
66 0.000807
67 0.000806
68 0.000805
69 0.000799
70 0.000791
71 0.000785
72 0.000784
73 0.000783
74 0.000783
75 0.000780
76 0.000779
77 0.000782
78 0.000790
79 0.000792
80 0.000789
81 0.000783
82 0.000776
83 0.000773
84 0.000765
85 0.000760
86 0.000756
87 0.000750
88 0.000751
89 0.000750
90 0.000750
91 0.000744
92 0.000738
93 0.000734
94 0.000731
95 0.000725
96 0.000717
97 0.000708
98 0.000704
99 0.000698
100 0.000691
101 0.000692
102 0.000689
103 0.000686
104 0.000683
105 0.000685
106 0.000683
107 0.000680
108 0.000672
109 0.000663
110 0.000652
111 0.000645
112 0.000640
113 0.000638
114 0.000640
115 0.000642
116 0.000646
117 0.000647
118 0.000649
119 0.000645
120 0.000641
121 0.000638
122 0.000636
123 0.000631
124 0.000632
125 0.000631
126 0.000624
127 0.000616
128 0.000615
129 0.000618
130 0.000617
131 0.000618
132 0.000621
133 0.000621
134 0.000621
135 0.000625
136 0.000629
137 0.000628
138 0.000625
139 0.000618
140 0.000612
141 0.000613
142 0.000619
143 0.000619
144 0.000615
145 0.000615
146 0.000615
147 0.000612
148 0.000611
149 0.000610
150 0.000606
151 0.000612
152 0.000614
153 0.000614
154 0.000608
155 0.000604
156 0.000604
157 0.000609
158 0.000611
159 0.000609
160 0.000605
161 0.000599
162 0.000594
163 0.000585
164 0.000579
165 0.000573
166 0.000569
167 0.000571
168 0.000574
169 0.000580
170 0.000593
171 0.000598
172 0.000600
173 0.000606
174 0.000607
175 0.000609
176 0.000609
177 0.000603
178 0.000593
179 0.000594
180 0.000602
181 0.000613
182 0.000615
183 0.000615
184 0.000620
185 0.000620
186 0.000618
187 0.000618
188 0.000613
189 0.000606
190 0.000598
191 0.000594
192 0.000590
193 0.000594
194 0.000593
195 0.000590
196 0.000591
197 0.000588
198 0.000589
199 0.000593
200 0.000597
201 0.000598
202 0.000599
203 0.000600
204 0.000606
205 0.000606
206 0.000604
207 0.000604
208 0.000605
209 0.000604
210 0.000600
211 0.000600
212 0.000598
213 0.000595
214 0.000593
215 0.000591
216 0.000588
217 0.000594
218 0.000598
219 0.000597
220 0.000600
221 0.000605
222 0.000605
223 0.000604
224 0.000602
225 0.000599
226 0.000590
227 0.000581
228 0.000575
229 0.000567
230 0.000565
231 0.000568
232 0.000564
233 0.000557
234 0.000551
235 0.000548
236 0.000546
237 0.000546
238 0.000546
239 0.000546
240 0.000548
241 0.000552
242 0.000552
243 0.000551
244 0.000548
245 0.000548
246 0.000551
247 0.000553
248 0.000553
249 0.000555
250 0.000556
251 0.000555
252 0.000558
253 0.000562
254 0.000564
255 0.000563
256 0.000558
257 0.000554
258 0.000551
259 0.000558
260 0.000567
261 0.000569
262 0.000568
263 0.000572
264 0.000571
265 0.000566
266 0.000563
267 0.000564
268 0.000561
269 0.000558
270 0.000555
271 0.000550
272 0.000545
273 0.000543
274 0.000540
275 0.000538
276 0.000532
277 0.000528
278 0.000523
279 0.000515
280 0.000503
281 0.000493
282 0.000487
283 0.000481
284 0.000474
285 0.000467
286 0.000458
287 0.000454
288 0.000449
289 0.000447
290 0.000442
291 0.000440
292 0.000438
293 0.000435
294 0.000433
295 0.000429
296 0.000424
297 0.000419
298 0.000418
299 0.000414
300 0.000414
301 0.000417
302 0.000421
303 0.000419
304 0.000417
305 0.000422
306 0.000424
307 0.000423
308 0.000421
309 0.000424
310 0.000426
311 0.000429
312 0.000430
313 0.000424
314 0.000417
315 0.000410
316 0.000407
317 0.000404
318 0.000408
319 0.000410
320 0.000415
321 0.000421
322 0.000429
323 0.000432
324 0.000433
325 0.000438
326 0.000442
327 0.000442
328 0.000443
329 0.000447
330 0.000450
331 0.000448
332 0.000450
333 0.000448
334 0.000446
335 0.000445
336 0.000446
337 0.000445
338 0.000452
339 0.000459
340 0.000458
341 0.000455
342 0.000455
343 0.000455
344 0.000455
345 0.000458
346 0.000458
347 0.000455
348 0.000452
349 0.000450
350 0.000446
351 0.000442
352 0.000438
353 0.000440
354 0.000443
355 0.000445
356 0.000450
357 0.000458
358 0.000459
359 0.000452
360 0.000444
361 0.000439
362 0.000437
363 0.000436
364 0.000434
365 0.000431
366 0.000429
367 0.000425
368 0.000420
369 0.000414
370 0.000406
371 0.000396
372 0.000393
373 0.000392
374 0.000385
375 0.000384
376 0.000385
377 0.000384
378 0.000381
379 0.000381
380 0.000377
381 0.000374
382 0.000372
383 0.000369
384 0.000368
385 0.000370
386 0.000371
387 0.000367
388 0.000371
389 0.000377
390 0.000383
391 0.000388
392 0.000397
393 0.000400
394 0.000400
395 0.000408
396 0.000410
397 0.000407
398 0.000408
399 0.000409
400 0.000409
401 0.000411
402 0.000413
403 0.000410
404 0.000413
405 0.000418
406 0.000424
407 0.000429
408 0.000433
409 0.000433
410 0.000435
411 0.000434
412 0.000434
413 0.000434
414 0.000431
415 0.000425
416 0.000425
417 0.000427
418 0.000431
419 0.000432
420 0.000430
421 0.000424
422 0.000413
423 0.000409
424 0.000412
425 0.000411
426 0.000412
427 0.000412
428 0.000409
429 0.000404
430 0.000402
431 0.000400
432 0.000394
433 0.000388
434 0.000387
435 0.000384
436 0.000388
437 0.000392
438 0.000389
439 0.000390
440 0.000389
441 0.000385
442 0.000383
443 0.000382
444 0.000379
445 0.000378
446 0.000380
447 0.000383
448 0.000382
449 0.000377
450 0.000368
451 0.000362
452 0.000356
453 0.000357
454 0.000358
455 0.000355
456 0.000351
457 0.000346
458 0.000342
459 0.000344
460 0.000346
461 0.000343
462 0.000340
463 0.000340
464 0.000340
465 0.000338
466 0.000332
467 0.000326
468 0.000324
469 0.000323
470 0.000325
471 0.000330
472 0.000329
473 0.000332
474 0.000336
475 0.000340
476 0.000340
477 0.000336
478 0.000336
479 0.000335
480 0.000333
481 0.000333
482 0.000334
483 0.000336
484 0.000335
485 0.000331
486 0.000330
487 0.000330
488 0.000323
489 0.000317
490 0.000307
491 0.000300
492 0.000293
493 0.000288
494 0.000284
495 0.000280
496 0.000278
497 0.000277
498 0.000277
499 0.000276
500 0.000277
501 0.000276
502 0.000277
503 0.000274
504 0.000267
505 0.000265
506 0.000260
507 0.000257
508 0.000256
509 0.000257
510 0.000260
511 0.000259
512 0.000256
513 0.000254
514 0.000258
515 0.000259
516 0.000261
517 0.000261
518 0.000255
519 0.000253
520 0.000256
521 0.000255
522 0.000253
523 0.000251
524 0.000250
525 0.000253
526 0.000259
527 0.000266
528 0.000265
529 0.000262
530 0.000267
531 0.000270
532 0.000269
533 0.000268
534 0.000267
535 0.000265
536 0.000256
537 0.000254
538 0.000259
539 0.000265
540 0.000265
541 0.000269
542 0.000274
543 0.000283
544 0.000293
545 0.000296
546 0.000294
547 0.000298
548 0.000304
549 0.000306
550 0.000309
551 0.000308
552 0.000308
553 0.000308
554 0.000305
555 0.000303
556 0.000299
557 0.000291
558 0.000286
559 0.000281
560 0.000277
561 0.000278
562 0.000282
563 0.000284
564 0.000286
565 0.000289
566 0.000290
567 0.000291
568 0.000289
569 0.000288
570 0.000283
571 0.000277
572 0.000277
573 0.000270
574 0.000263
575 0.000260
576 0.000257
577 0.000258
578 0.000256
579 0.000255
580 0.000253
581 0.000252
582 0.000250
583 0.000247
584 0.000242
585 0.000243
586 0.000245
587 0.000241
588 0.000243
589 0.000246
590 0.000249
591 0.000250
592 0.000247
593 0.000246
594 0.000245
595 0.000245
596 0.000243
597 0.000239
598 0.000238
599 0.000237
600 0.000239
601 0.000239
602 0.000235
603 0.000236
604 0.000231
605 0.000231
606 0.000237
607 0.000244
608 0.000247
609 0.000244
610 0.000241
611 0.000239
612 0.000238
613 0.000236
614 0.000231
615 0.000224
616 0.000222
617 0.000224
618 0.000226
619 0.000227
620 0.000227
621 0.000227
622 0.000227
623 0.000225
624 0.000223
625 0.000219
626 0.000215
627 0.000216
628 0.000217
629 0.000220
630 0.000227
631 0.000233
632 0.000238
633 0.000238
634 0.000233
635 0.000229
636 0.000227
637 0.000221
638 0.000216
639 0.000210
640 0.000208
641 0.000210
642 0.000208
643 0.000204
644 0.000201
645 0.000200
646 0.000201
647 0.000201
648 0.000200
649 0.000200
650 0.000201
651 0.000204
652 0.000205
653 0.000205
654 0.000207
655 0.000208
656 0.000209
657 0.000212
658 0.000214
659 0.000218
660 0.000217
661 0.000215
662 0.000216
663 0.000218
664 0.000217
665 0.000212
666 0.000207
667 0.000209
668 0.000213
669 0.000215
670 0.000217
671 0.000219
672 0.000220
673 0.000220
674 0.000217
675 0.000214
676 0.000209
677 0.000206
678 0.000203
679 0.000200
680 0.000198
681 0.000199
682 0.000198
683 0.000199
684 0.000203
685 0.000203
686 0.000204
687 0.000202
688 0.000200
689 0.000197
690 0.000196
691 0.000198
692 0.000196
693 0.000196
694 0.000193
695 0.000192
696 0.000191
697 0.000190
698 0.000190
699 0.000188
700 0.000187
701 0.000190
702 0.000194
703 0.000195
704 0.000194
705 0.000192
706 0.000192
707 0.000195
708 0.000196
709 0.000193
710 0.000190
711 0.000189
712 0.000189
713 0.000185
714 0.000186
715 0.000186
716 0.000180
717 0.000174
718 0.000172
719 0.000170
720 0.000170
721 0.000169
722 0.000169
723 0.000172
724 0.000177
725 0.000179
726 0.000179
727 0.000177
728 0.000180
729 0.000183
730 0.000184
731 0.000187
732 0.000188
733 0.000183
734 0.000178
735 0.000177
736 0.000176
737 0.000175
738 0.000173
739 0.000169
740 0.000167
741 0.000165
742 0.000162
743 0.000158
744 0.000153
745 0.000151
746 0.000150
747 0.000150
748 0.000154
749 0.000160
750 0.000163
751 0.000167
752 0.000169
753 0.000168
754 0.000165
755 0.000162
756 0.000160
757 0.000156
758 0.000156
759 0.000155
760 0.000151
761 0.000148
762 0.000145
763 0.000142
764 0.000139
765 0.000137
766 0.000135
767 0.000132
768 0.000131
769 0.000130
770 0.000127
771 0.000128
772 0.000126
773 0.000125
774 0.000124
775 0.000121
776 0.000121
777 0.000119
778 0.000115
779 0.000115
780 0.000112
781 0.000111
782 0.000110
783 0.000110
784 0.000110
785 0.000107
786 0.000104
787 0.000103
788 0.000101
789 0.000101
790 0.000103
791 0.000105
792 0.000108
793 0.000112
794 0.000112
795 0.000107
796 0.000104
797 0.000103
798 0.000100
799 0.000096
800 0.000095
801 0.000095
802 0.000094
803 0.000098
804 0.000101
805 0.000101
806 0.000102
807 0.000104
808 0.000104
809 0.000104
