# i correlation
1 0.001663
2 0.001605
3 0.001555
4 0.001517
5 0.001482
6 0.001453
7 0.001422
8 0.001394
9 0.001374
10 0.001355
11 0.001342
12 0.001332
13 0.001322
14 0.001313
15 0.001300
16 0.001285
17 0.001271
18 0.001259
19 0.001250
20 0.001238
21 0.001230
22 0.001215
23 0.001201
24 0.001190
25 0.001185
26 0.001170
27 0.001160
28 0.001154
29 0.001154
30 0.001143
31 0.001135
32 0.001130
33 0.001123
34 0.001124
35 0.001124
36 0.001128
37 0.001127
38 0.001123
39 0.001120
40 0.001113
41 0.001108
42 0.001100
43 0.001091
44 0.001085
45 0.001080
46 0.001083
47 0.001085
48 0.001086
49 0.001089
50 0.001091
51 0.001092
52 0.001080
53 0.001066
54 0.001053
55 0.001037
56 0.001014
57 0.000993
58 0.000973
59 0.000957
60 0.000945
61 0.000932
62 0.000925
63 0.000922
64 0.000922
65 0.000924
66 0.000918
67 0.000909
68 0.000912
69 0.000910
70 0.000909
71 0.000901
72 0.000895
73 0.000891
74 0.000897
75 0.000901
76 0.000896
77 0.000888
78 0.000882
79 0.000878
80 0.000877
81 0.000871
82 0.000867
83 0.000867
84 0.000868
85 0.000878
86 0.000880
87 0.000878
88 0.000877
89 0.000877
90 0.000874
91 0.000873
92 0.000866
93 0.000864
94 0.000854
95 0.000844
96 0.000829
97 0.000820
98 0.000814
99 0.000818
100 0.000818
101 0.000813
102 0.000812
103 0.000809
104 0.000810
105 0.000813
106 0.000810
107 0.000807
108 0.000802
109 0.000795
110 0.000799
111 0.000804
112 0.000799
113 0.000795
114 0.000798
115 0.000802
116 0.000813
117 0.000826
118 0.000830
119 0.000829
120 0.000829
121 0.000829
122 0.000829
123 0.000832
124 0.000838
125 0.000837
126 0.000830
127 0.000823
128 0.000815
129 0.000811
130 0.000807
131 0.000803
132 0.000802
133 0.000797
134 0.000799
135 0.000801
136 0.000795
137 0.000787
138 0.000782
139 0.000778
140 0.000774
141 0.000765
142 0.000758
143 0.000760
144 0.000763
145 0.000759
146 0.000755
147 0.000745
148 0.000737
149 0.000737
150 0.000731
151 0.000724
152 0.000718
153 0.000715
154 0.000712
155 0.000708
156 0.000705
157 0.000701
158 0.000701
159 0.000701
160 0.000696
161 0.000688
162 0.000682
163 0.000680
164 0.000679
165 0.000680
166 0.000677
167 0.000677
168 0.000681
169 0.000681
170 0.000680
171 0.000676
172 0.000673
173 0.000667
174 0.000659
175 0.000648
176 0.000634
177 0.000625
178 0.000615
179 0.000604
180 0.000587
181 0.000574
182 0.000558
183 0.000547
184 0.000538
185 0.000527
186 0.000525
187 0.000522
188 0.000518
189 0.000509
190 0.000508
191 0.000500
192 0.000495
193 0.000494
194 0.000490
195 0.000486
196 0.000485
197 0.000479
198 0.000476
199 0.000476
200 0.000476
201 0.000476
202 0.000476
203 0.000483
204 0.000487
205 0.000488
206 0.000492
207 0.000498
208 0.000503
209 0.000510
210 0.000508
211 0.000501
212 0.000497
213 0.000493
214 0.000490
215 0.000493
216 0.000498
217 0.000496
218 0.000494
219 0.000492
220 0.000491
221 0.000487
222 0.000487
223 0.000491
224 0.000496
225 0.000501
226 0.000503
227 0.000502
228 0.000501
229 0.000502
230 0.000499
231 0.000493
232 0.000489
233 0.000486
234 0.000489
235 0.000492
236 0.000488
237 0.000489
238 0.000493
239 0.000494
240 0.000490
241 0.000490
242 0.000490
243 0.000495
244 0.000500
245 0.000506
246 0.000508
247 0.000509
248 0.000510
249 0.000510
250 0.000507
251 0.000505
252 0.000503
253 0.000502
254 0.000504
255 0.000503
256 0.000508
257 0.000511
258 0.000515
259 0.000519
260 0.000522
261 0.000524
262 0.000522
263 0.000527
264 0.000530
265 0.000525
266 0.000521
267 0.000520
268 0.000518
269 0.000520
270 0.000522
271 0.000518
272 0.000514
273 0.000510
274 0.000499
275 0.000489
276 0.000480
277 0.000472
278 0.000474
279 0.000475
280 0.000472
281 0.000474
282 0.000473
283 0.000478
284 0.000484
285 0.000490
286 0.000492
287 0.000493
288 0.000495
289 0.000498
290 0.000502
291 0.000504
292 0.000509
293 0.000513
294 0.000519
295 0.000520
296 0.000516
297 0.000510
298 0.000509
299 0.000505
300 0.000504
301 0.000502
302 0.000495
303 0.000495
304 0.000494
305 0.000487
306 0.000478
307 0.000476
308 0.000478
309 0.000474
310 0.000469
311 0.000466
312 0.000461
313 0.000458
314 0.000457
315 0.000452
316 0.000439
317 0.000428
318 0.000422
319 0.000421
320 0.000418
321 0.000414
322 0.000412
323 0.000410
324 0.000406
325 0.000395
326 0.000385
327 0.000376
328 0.000373
329 0.000368
330 0.000365
331 0.000365
332 0.000371
333 0.000381
334 0.000386
335 0.000391
336 0.000397
337 0.000404
338 0.000412
339 0.000417
340 0.000417
341 0.000419
342 0.000417
343 0.000419
344 0.000422
345 0.000425
346 0.000422
347 0.000422
348 0.000424
349 0.000421
350 0.000421
351 0.000411
352 0.000411
353 0.000409
354 0.000412
355 0.000413
356 0.000416
357 0.000413
358 0.000410
359 0.000409
360 0.000405
361 0.000398
362 0.000394
363 0.000387
364 0.000377
365 0.000367
366 0.000360
367 0.000355
368 0.000349
369 0.000351
370 0.000349
371 0.000344
372 0.000341
373 0.000345
374 0.000351
375 0.000359
376 0.000363
377 0.000370
378 0.000382
379 0.000388
380 0.000395
381 0.000404
382 0.000409
383 0.000416
384 0.000425
385 0.000426
386 0.000428
387 0.000429
388 0.000433
389 0.000440
390 0.000447
391 0.000453
392 0.000453
393 0.000456
394 0.000462
395 0.000466
396 0.000470
397 0.000474
398 0.000475
399 0.000478
400 0.000474
401 0.000471
402 0.000472
403 0.000481
404 0.000490
405 0.000495
406 0.000494
407 0.000500
408 0.000505
409 0.000510
410 0.000514
411 0.000509
412 0.000507
413 0.000508
414 0.000501
415 0.000498
416 0.000496
417 0.000488
418 0.000486
419 0.000482
420 0.000473
421 0.000473
422 0.000479
423 0.000484
424 0.000492
425 0.000495
426 0.000495
427 0.000491
428 0.000491
429 0.000490
430 0.000492
431 0.000493
432 0.000496
433 0.000494
434 0.000487
435 0.000480
436 0.000468
437 0.000463
438 0.000462
439 0.000463
440 0.000460
441 0.000457
442 0.000455
443 0.000455
444 0.000455
445 0.000454
446 0.000450
447 0.000448
448 0.000444
449 0.000440
450 0.000437
451 0.000430
452 0.000421
453 0.000415
454 0.000412
455 0.000414
456 0.000413
457 0.000409
458 0.000410
459 0.000408
460 0.000412
461 0.000410
462 0.000410
463 0.000411
464 0.000415
465 0.000411
466 0.000407
467 0.000403
468 0.000399
469 0.000399
470 0.000396
471 0.000390
472 0.000385
473 0.000383
474 0.000377
475 0.000369
476 0.000364
477 0.000362
478 0.000355
479 0.000350
480 0.000343
481 0.000337
482 0.000331
483 0.000329
484 0.000328
485 0.000322
486 0.000316
487 0.000308
488 0.000300
489 0.000298
490 0.000296
491 0.000293
492 0.000289
493 0.000282
494 0.000281
495 0.000276
496 0.000275
497 0.000279
498 0.000287
499 0.000290
500 0.000289
501 0.000295
502 0.000297
503 0.000296
504 0.000294
505 0.000293
506 0.000296
507 0.000300
508 0.000306
509 0.000309
510 0.000313
511 0.000316
512 0.000322
513 0.000326
514 0.000329
515 0.000333
516 0.000334
517 0.000333
518 0.000334
519 0.000333
520 0.000336
521 0.000334
522 0.000330
523 0.000325
524 0.000321
525 0.000311
526 0.000307
527 0.000305
528 0.000302
529 0.000295
530 0.000285
531 0.000274
532 0.000266
533 0.000259
534 0.000253
535 0.000250
536 0.000245
537 0.000243
538 0.000248
539 0.000255
540 0.000261
541 0.000266
542 0.000269
543 0.000268
544 0.000264
545 0.000260
546 0.000257
547 0.000259
548 0.000264
549 0.000273
550 0.000277
551 0.000283
552 0.000287
553 0.000298
554 0.000304
555 0.000308
556 0.000316
557 0.000326
558 0.000330
559 0.000332
560 0.000327
561 0.000321
562 0.000319
563 0.000318
564 0.000314
565 0.000310
566 0.000303
567 0.000299
568 0.000296
569 0.000293
570 0.000290
571 0.000288
572 0.000287
573 0.000279
574 0.000274
575 0.000270
576 0.000268
577 0.000271
578 0.000268
579 0.000261
580 0.000254
581 0.000246
582 0.000241
583 0.000236
584 0.000229
585 0.000220
586 0.000210
587 0.000202
588 0.000196
589 0.000194
590 0.000194
591 0.000196
592 0.000198
593 0.000203
594 0.000206
595 0.000208
596 0.000205
597 0.000202
598 0.000194
599 0.000188
600 0.000182
601 0.000178
602 0.000175
603 0.000171
604 0.000167
605 0.000160
606 0.000159
607 0.000159
608 0.000161
609 0.000161
610 0.000155
611 0.000152
612 0.000148
613 0.000146
614 0.000143
615 0.000136
616 0.000130
617 0.000126
618 0.000123
619 0.000122
620 0.000118
621 0.000113
622 0.000111
623 0.000109
624 0.000104
625 0.000100
626 0.000099
627 0.000100
628 0.000103
629 0.000106
630 0.000103
631 0.000105
632 0.000110
633 0.000117
634 0.000122
635 0.000121
636 0.000116
637 0.000112
638 0.000111
639 0.000111
640 0.000115
641 0.000118
642 0.000125
643 0.000127
644 0.000132
645 0.000135
646 0.000137
647 0.000138
648 0.000144
649 0.000141
650 0.000138
651 0.000133
652 0.000124
653 0.000116
654 0.000110
655 0.000105
656 0.000105
657 0.000110
658 0.000111
659 0.000110
660 0.000108
661 0.000104
662 0.000100
663 0.000100
664 0.000101
665 0.000100
666 0.000096
667 0.000100
668 0.000102
669 0.000109
670 0.000113
671 0.000118
672 0.000122
673 0.000128
674 0.000131
675 0.000130
676 0.000133
677 0.000136
678 0.000136
679 0.000140
680 0.000142
681 0.000143
682 0.000149
683 0.000153
684 0.000155
685 0.000155
686 0.000160
687 0.000162
688 0.000166
689 0.000168
690 0.000165
691 0.000165
692 0.000169
693 0.000175
694 0.000184
695 0.000189
696 0.000195
697 0.000201
698 0.000203
699 0.000205
700 0.000205
701 0.000203
702 0.000199
703 0.000192
704 0.000186
705 0.000179
706 0.000173
707 0.000168
708 0.000166
709 0.000162
710 0.000158
711 0.000157
712 0.000153
713 0.000153
714 0.000153
715 0.000149
716 0.000149
717 0.000151
718 0.000156
719 0.000159
720 0.000156
721 0.000153
722 0.000146
723 0.000144
724 0.000139
725 0.000137
726 0.000137
727 0.000136
728 0.000135
729 0.000133
730 0.000130
731 0.000125
732 0.000123
733 0.000122
734 0.000119
735 0.000119
736 0.000119
737 0.000120
738 0.000119
739 0.000120
740 0.000117
741 0.000111
742 0.000106
743 0.000105
744 0.000103
745 0.000103
746 0.000107
747 0.000113
748 0.000114
749 0.000111
750 0.000109
751 0.000107
752 0.000102
753 0.000092
754 0.000084
755 0.000077
756 0.000071
757 0.000070
758 0.000070
759 0.000066
760 0.000063
761 0.000060
762 0.000063
763 0.000065
764 0.000068
765 0.000070
766 0.000069
767 0.000074
768 0.000080
769 0.000082
770 0.000080
771 0.000078
772 0.000076
773 0.000075
774 0.000073
775 0.000072
776 0.000071
777 0.000067
778 0.000067
779 0.000068
780 0.000066
781 0.000066
782 0.000067
783 0.000072
784 0.000076
785 0.000081
786 0.000085
787 0.000090
788 0.000094
789 0.000096
790 0.000094
791 0.000094
792 0.000093
793 0.000094
794 0.000093
795 0.000088
796 0.000082
797 0.000081
798 0.000081
799 0.000082
800 0.000085
801 0.000088
802 0.000088
803 0.000092
804 0.000097
805 0.000101
806 0.000104
807 0.000106
808 0.000106
809 0.000106
