# i correlation
1 0.001616
2 0.001559
3 0.001513
4 0.001476
5 0.001447
6 0.001424
7 0.001411
8 0.001396
9 0.001383
10 0.001369
11 0.001358
12 0.001342
13 0.001326
14 0.001310
15 0.001294
16 0.001283
17 0.001272
18 0.001259
19 0.001245
20 0.001234
21 0.001216
22 0.001200
23 0.001189
24 0.001181
25 0.001174
26 0.001168
27 0.001158
28 0.001148
29 0.001137
30 0.001134
31 0.001131
32 0.001122
33 0.001107
34 0.001097
35 0.001085
36 0.001067
37 0.001057
38 0.001048
39 0.001041
40 0.001034
41 0.001029
42 0.001021
43 0.001013
44 0.001011
45 0.001010
46 0.001009
47 0.000999
48 0.000991
49 0.000978
50 0.000976
51 0.000974
52 0.000978
53 0.000981
54 0.000987
55 0.000993
56 0.000993
57 0.000986
58 0.000985
59 0.000982
60 0.000980
61 0.000978
62 0.000979
63 0.000983
64 0.000980
65 0.000977
66 0.000979
67 0.000980
68 0.000974
69 0.000966
70 0.000964
71 0.000967
72 0.000969
73 0.000965
74 0.000962
75 0.000960
76 0.000959
77 0.000954
78 0.000949
79 0.000946
80 0.000939
81 0.000933
82 0.000925
83 0.000915
84 0.000909
85 0.000904
86 0.000900
87 0.000897
88 0.000891
89 0.000886
90 0.000884
91 0.000873
92 0.000860
93 0.000849
94 0.000839
95 0.000835
96 0.000829
97 0.000828
98 0.000830
99 0.000828
100 0.000817
101 0.000807
102 0.000804
103 0.000798
104 0.000792
105 0.000782
106 0.000779
107 0.000772
108 0.000764
109 0.000758
110 0.000753
111 0.000756
112 0.000751
113 0.000743
114 0.000737
115 0.000732
116 0.000730
117 0.000727
118 0.000723
119 0.000718
120 0.000715
121 0.000712
122 0.000714
123 0.000711
124 0.000713
125 0.000712
126 0.000710
127 0.000713
128 0.000716
129 0.000716
130 0.000717
131 0.000719
132 0.000722
133 0.000726
134 0.000730
135 0.000732
136 0.000736
137 0.000742
138 0.000748
139 0.000749
140 0.000754
141 0.000749
142 0.000749
143 0.000751
144 0.000749
145 0.000742
146 0.000728
147 0.000717
148 0.000704
149 0.000698
150 0.000693
151 0.000690
152 0.000685
153 0.000680
154 0.000676
155 0.000668
156 0.000669
157 0.000667
158 0.000670
159 0.000673
160 0.000669
161 0.000665
162 0.000659
163 0.000650
164 0.000643
165 0.000631
166 0.000624
167 0.000623
168 0.000625
169 0.000634
170 0.000643
171 0.000643
172 0.000635
173 0.000627
174 0.000619
175 0.000617
176 0.000610
177 0.000603
178 0.000594
179 0.000586
180 0.000575
181 0.000565
182 0.000562
183 0.000559
184 0.000560
185 0.000559
186 0.000553
187 0.000548
188 0.000545
189 0.000539
190 0.000540
191 0.000529
192 0.000516
193 0.000507
194 0.000504
195 0.000510
196 0.000518
197 0.000520
198 0.000528
199 0.000533
200 0.000538
201 0.000545
202 0.000552
203 0.000555
204 0.000555
205 0.000557
206 0.000557
207 0.000560
208 0.000560
209 0.000561
210 0.000565
211 0.000566
212 0.000566
213 0.000571
214 0.000582
215 0.000593
216 0.000602
217 0.000611
218 0.000617
219 0.000620
220 0.000620
221 0.000617
222 0.000617
223 0.000616
224 0.000613
225 0.000611
226 0.000612
227 0.000609
228 0.000608
229 0.000612
230 0.000619
231 0.000623
232 0.000623
233 0.000624
234 0.000627
235 0.000633
236 0.000642
237 0.000646
238 0.000644
239 0.000641
240 0.000642
241 0.000638
242 0.000637
243 0.000632
244 0.000631
245 0.000627
246 0.000622
247 0.000613
248 0.000608
249 0.000603
250 0.000594
251 0.000595
252 0.000593
253 0.000590
254 0.000588
255 0.000588
256 0.000591
257 0.000594
258 0.000594
259 0.000588
260 0.000582
261 0.000581
262 0.000577
263 0.000575
264 0.000569
265 0.000568
266 0.000565
267 0.000566
268 0.000566
269 0.000565
270 0.000567
271 0.000568
272 0.000574
273 0.000574
274 0.000579
275 0.000580
276 0.000580
277 0.000585
278 0.000589
279 0.000589
280 0.000589
281 0.000591
282 0.000590
283 0.000588
284 0.000583
285 0.000582
286 0.000588
287 0.000596
288 0.000600
289 0.000602
290 0.000601
291 0.000601
292 0.000598
293 0.000591
294 0.000587
295 0.000584
296 0.000579
297 0.000577
298 0.000580
299 0.000580
300 0.000582
301 0.000591
302 0.000597
303 0.000600
304 0.000601
305 0.000597
306 0.000593
307 0.000589
308 0.000584
309 0.000586
310 0.000584
311 0.000586
312 0.000594
313 0.000598
314 0.000597
315 0.000594
316 0.000587
317 0.000584
318 0.000581
319 0.000578
320 0.000577
321 0.000576
322 0.000576
323 0.000570
324 0.000558
325 0.000546
326 0.000538
327 0.000531
328 0.000526
329 0.000522
330 0.000513
331 0.000503
332 0.000494
333 0.000487
334 0.000480
335 0.000472
336 0.000461
337 0.000446
338 0.000438
339 0.000434
340 0.000429
341 0.000432
342 0.000432
343 0.000430
344 0.000426
345 0.000425
346 0.000427
347 0.000427
348 0.000424
349 0.000418
350 0.000410
351 0.000401
352 0.000395
353 0.000396
354 0.000405
355 0.000411
356 0.000410
357 0.000415
358 0.000420
359 0.000423
360 0.000419
361 0.000416
362 0.000412
363 0.000407
364 0.000400
365 0.000400
366 0.000398
367 0.000400
368 0.000400
369 0.000404
370 0.000405
371 0.000406
372 0.000407
373 0.000408
374 0.000411
375 0.000415
376 0.000422
377 0.000431
378 0.000436
379 0.000437
380 0.000439
381 0.000440
382 0.000435
383 0.000428
384 0.000420
385 0.000418
386 0.000416
387 0.000410
388 0.000408
389 0.000408
390 0.000404
391 0.000396
392 0.000388
393 0.000386
394 0.000378
395 0.000369
396 0.000367
397 0.000362
398 0.000358
399 0.000353
400 0.000354
401 0.000353
402 0.000350
403 0.000345
404 0.000340
405 0.000340
406 0.000337
407 0.000335
408 0.000336
409 0.000335
410 0.000334
411 0.000331
412 0.000329
413 0.000330
414 0.000329
415 0.000331
416 0.000332
417 0.000329
418 0.000321
419 0.000315
420 0.000309
421 0.000306
422 0.000300
423 0.000290
424 0.000285
425 0.000285
426 0.000287
427 0.000289
428 0.000285
429 0.000283
430 0.000283
431 0.000289
432 0.000294
433 0.000302
434 0.000311
435 0.000313
436 0.000316
437 0.000322
438 0.000325
439 0.000326
440 0.000327
441 0.000331
442 0.000333
443 0.000338
444 0.000344
445 0.000347
446 0.000349
447 0.000350
448 0.000348
449 0.000348
450 0.000347
451 0.000350
452 0.000354
453 0.000356
454 0.000350
455 0.000350
456 0.000359
457 0.000364
458 0.000366
459 0.000371
460 0.000375
461 0.000377
462 0.000382
463 0.000389
464 0.000392
465 0.000393
466 0.000392
467 0.000387
468 0.000383
469 0.000376
470 0.000369
471 0.000366
472 0.000365
473 0.000365
474 0.000360
475 0.000355
476 0.000355
477 0.000350
478 0.000344
479 0.000343
480 0.000342
481 0.000343
482 0.000343
483 0.000348
484 0.000347
485 0.000346
486 0.000340
487 0.000340
488 0.000344
489 0.000348
490 0.000352
491 0.000352
492 0.000352
493 0.000352
494 0.000349
495 0.000343
496 0.000336
497 0.000336
498 0.000331
499 0.000326
500 0.000320
501 0.000317
502 0.000315
503 0.000315
504 0.000315
505 0.000316
506 0.000312
507 0.000310
508 0.000309
509 0.000308
510 0.000307
511 0.000306
512 0.000306
513 0.000307
514 0.000310
515 0.000315
516 0.000320
517 0.000326
518 0.000335
519 0.000343
520 0.000348
521 0.000350
522 0.000350
523 0.000352
524 0.000353
525 0.000357
526 0.000359
527 0.000362
528 0.000366
529 0.000373
530 0.000378
531 0.000388
532 0.000394
533 0.000398
534 0.000395
535 0.000392
536 0.000390
537 0.000387
538 0.000387
539 0.000387
540 0.000389
541 0.000391
542 0.000396
543 0.000400
544 0.000403
545 0.000405
546 0.000407
547 0.000409
548 0.000411
549 0.000415
550 0.000417
551 0.000416
552 0.000414
553 0.000412
554 0.000407
555 0.000405
556 0.000402
557 0.000406
558 0.000408
559 0.000411
560 0.000411
561 0.000410
562 0.000408
563 0.000402
564 0.000397
565 0.000393
566 0.000388
567 0.000383
568 0.000377
569 0.000370
570 0.000366
571 0.000365
572 0.000362
573 0.000359
574 0.000358
575 0.000355
576 0.000352
577 0.000353
578 0.000357
579 0.000358
580 0.000358
581 0.000357
582 0.000349
583 0.000345
584 0.000345
585 0.000348
586 0.000348
587 0.000352
588 0.000352
589 0.000353
590 0.000356
591 0.000360
592 0.000363
593 0.000363
594 0.000362
595 0.000363
596 0.000365
597 0.000365
598 0.000364
599 0.000364
600 0.000363
601 0.000360
602 0.000355
603 0.000354
604 0.000355
605 0.000356
606 0.000354
607 0.000351
608 0.000346
609 0.000341
610 0.000336
611 0.000328
612 0.000322
613 0.000316
614 0.000312
615 0.000311
616 0.000313
617 0.000312
618 0.000309
619 0.000306
620 0.000303
621 0.000300
622 0.000299
623 0.000298
624 0.000293
625 0.000290
626 0.000281
627 0.000272
628 0.000262
629 0.000257
630 0.000254
631 0.000251
632 0.000252
633 0.000252
634 0.000251
635 0.000246
636 0.000241
637 0.000235
638 0.000228
639 0.000222
640 0.000217
641 0.000214
642 0.000211
643 0.000207
644 0.000200
645 0.000191
646 0.000187
647 0.000189
648 0.000192
649 0.000197
650 0.000199
651 0.000202
652 0.000206
653 0.000210
654 0.000210
655 0.000211
656 0.000211
657 0.000210
658 0.000210
659 0.000213
660 0.000219
661 0.000223
662 0.000224
663 0.000227
664 0.000231
665 0.000231
666 0.000230
667 0.000230
668 0.000232
669 0.000233
670 0.000234
671 0.000236
672 0.000235
673 0.000233
674 0.000233
675 0.000231
676 0.000228
677 0.000229
678 0.000233
679 0.000236
680 0.000239
681 0.000240
682 0.000241
683 0.000243
684 0.000241
685 0.000241
686 0.000241
687 0.000244
688 0.000248
689 0.000252
690 0.000254
691 0.000254
692 0.000255
693 0.000255
694 0.000257
695 0.000259
696 0.000260
697 0.000259
698 0.000255
699 0.000252
700 0.000251
701 0.000251
702 0.000252
703 0.000253
704 0.000255
705 0.000255
706 0.000252
707 0.000246
708 0.000239
709 0.000230
710 0.000221
711 0.000215
712 0.000213
713 0.000209
714 0.000208
715 0.000206
716 0.000204
717 0.000202
718 0.000202
719 0.000203
720 0.000203
721 0.000205
722 0.000205
723 0.000205
724 0.000205
725 0.000205
726 0.000201
727 0.000200
728 0.000201
729 0.000204
730 0.000205
731 0.000206
732 0.000209
733 0.000207
734 0.000208
735 0.000208
736 0.000210
737 0.000210
738 0.000209
739 0.000207
740 0.000204
741 0.000202
742 0.000200
743 0.000196
744 0.000193
745 0.000193
746 0.000193
747 0.000193
748 0.000193
749 0.000194
750 0.000192
751 0.000190
752 0.000185
753 0.000181
754 0.000178
755 0.000177
756 0.000174
757 0.000169
758 0.000165
759 0.000164
760 0.000166
761 0.000166
762 0.000166
763 0.000166
764 0.000163
765 0.000159
766 0.000156
767 0.000157
768 0.000154
769 0.000154
770 0.000152
771 0.000149
772 0.000143
773 0.000136
774 0.000131
775 0.000128
776 0.000126
777 0.000124
778 0.000121
779 0.000120
780 0.000118
781 0.000116
782 0.000111
783 0.000105
784 0.000100
785 0.000098
786 0.000096
787 0.000094
788 0.000090
789 0.000088
790 0.000088
791 0.000090
792 0.000094
793 0.000095
794 0.000097
795 0.000095
796 0.000093
797 0.000088
798 0.000086
799 0.000084
800 0.000084
801 0.000083
802 0.000084
803 0.000084
804 0.000083
805 0.000082
806 0.000082
807 0.000084
808 0.000085
809 0.000084
