# i correlation
1 0.001494
2 0.001433
3 0.001384
4 0.001336
5 0.001308
6 0.001283
7 0.001265
8 0.001244
9 0.001220
10 0.001202
11 0.001187
12 0.001171
13 0.001155
14 0.001137
15 0.001117
16 0.001101
17 0.001088
18 0.001076
19 0.001063
20 0.001050
21 0.001047
22 0.001050
23 0.001054
24 0.001042
25 0.001036
26 0.001026
27 0.001019
28 0.001018
29 0.001013
30 0.001007
31 0.000996
32 0.000983
33 0.000970
34 0.000961
35 0.000954
36 0.000947
37 0.000942
38 0.000934
39 0.000924
40 0.000920
41 0.000913
42 0.000904
43 0.000899
44 0.000891
45 0.000885
46 0.000878
47 0.000867
48 0.000851
49 0.000836
50 0.000834
51 0.000840
52 0.000842
53 0.000845
54 0.000845
55 0.000831
56 0.000824
57 0.000811
58 0.000801
59 0.000792
60 0.000781
61 0.000775
62 0.000771
63 0.000770
64 0.000767
65 0.000768
66 0.000763
67 0.000762
68 0.000762
69 0.000760
70 0.000759
71 0.000754
72 0.000751
73 0.000746
74 0.000742
75 0.000750
76 0.000747
77 0.000741
78 0.000738
79 0.000729
80 0.000727
81 0.000728
82 0.000727
83 0.000727
84 0.000724
85 0.000726
86 0.000735
87 0.000737
88 0.000744
89 0.000749
90 0.000749
91 0.000748
92 0.000739
93 0.000730
94 0.000722
95 0.000714
96 0.000708
97 0.000704
98 0.000704
99 0.000704
100 0.000704
101 0.000703
102 0.000694
103 0.000684
104 0.000673
105 0.000668
106 0.000666
107 0.000663
108 0.000664
109 0.000661
110 0.000657
111 0.000666
112 0.000677
113 0.000685
114 0.000687
115 0.000692
116 0.000703
117 0.000706
118 0.000709
119 0.000712
120 0.000708
121 0.000707
122 0.000711
123 0.000715
124 0.000713
125 0.000709
126 0.000702
127 0.000690
128 0.000689
129 0.000690
130 0.000691
131 0.000689
132 0.000686
133 0.000681
134 0.000673
135 0.000668
136 0.000668
137 0.000670
138 0.000663
139 0.000659
140 0.000662
141 0.000663
142 0.000667
143 0.000673
144 0.000672
145 0.000666
146 0.000661
147 0.000641
148 0.000628
149 0.000616
150 0.000607
151 0.000602
152 0.000607
153 0.000613
154 0.000620
155 0.000621
156 0.000619
157 0.000616
158 0.000612
159 0.000610
160 0.000609
161 0.000600
162 0.000601
163 0.000598
164 0.000589
165 0.000584
166 0.000578
167 0.000578
168 0.000578
169 0.000583
170 0.000585
171 0.000584
172 0.000580
173 0.000574
174 0.000574
175 0.000578
176 0.000583
177 0.000587
178 0.000588
179 0.000582
180 0.000582
181 0.000575
182 0.000569
183 0.000567
184 0.000561
185 0.000554
186 0.000555
187 0.000558
188 0.000560
189 0.000559
190 0.000554
191 0.000550
192 0.000543
193 0.000541
194 0.000538
195 0.000533
196 0.000532
197 0.000538
198 0.000541
199 0.000545
200 0.000546
201 0.000546
202 0.000547
203 0.000545
204 0.000548
205 0.000557
206 0.000559
207 0.000556
208 0.000555
209 0.000548
210 0.000546
211 0.000544
212 0.000546
213 0.000548
214 0.000554
215 0.000554
216 0.000553
217 0.000546
218 0.000547
219 0.000546
220 0.000542
221 0.000547
222 0.000549
223 0.000545
224 0.000546
225 0.000549
226 0.000552
227 0.000559
228 0.000566
229 0.000569
230 0.000576
231 0.000585
232 0.000592
233 0.000599
234 0.000602
235 0.000599
236 0.000592
237 0.000588
238 0.000576
239 0.000566
240 0.000560
241 0.000556
242 0.000558
243 0.000560
244 0.000562
245 0.000564
246 0.000559
247 0.000555
248 0.000553
249 0.000549
250 0.000547
251 0.000546
252 0.000541
253 0.000541
254 0.000542
255 0.000544
256 0.000552
257 0.000558
258 0.000567
259 0.000570
260 0.000567
261 0.000569
262 0.000564
263 0.000557
264 0.000548
265 0.000549
266 0.000553
267 0.000550
268 0.000554
269 0.000558
270 0.000555
271 0.000558
272 0.000556
273 0.000554
274 0.000554
275 0.000549
276 0.000550
277 0.000550
278 0.000551
279 0.000551
280 0.000550
281 0.000545
282 0.000540
283 0.000535
284 0.000534
285 0.000533
286 0.000531
287 0.000522
288 0.000522
289 0.000517
290 0.000509
291 0.000503
292 0.000489
293 0.000480
294 0.000479
295 0.000476
296 0.000483
297 0.000484
298 0.000487
299 0.000494
300 0.000498
301 0.000498
302 0.000501
303 0.000503
304 0.000499
305 0.000500
306 0.000501
307 0.000502
308 0.000505
309 0.000506
310 0.000502
311 0.000496
312 0.000499
313 0.000504
314 0.000506
315 0.000507
316 0.000506
317 0.000507
318 0.000508
319 0.000515
320 0.000518
321 0.000525
322 0.000531
323 0.000531
324 0.000535
325 0.000541
326 0.000543
327 0.000545
328 0.000546
329 0.000544
330 0.000544
331 0.000547
332 0.000549
333 0.000544
334 0.000542
335 0.000532
336 0.000526
337 0.000522
338 0.000520
339 0.000515
340 0.000507
341 0.000502
342 0.000496
343 0.000491
344 0.000490
345 0.000486
346 0.000485
347 0.000488
348 0.000490
349 0.000495
350 0.000499
351 0.000497
352 0.000492
353 0.000493
354 0.000492
355 0.000491
356 0.000495
357 0.000497
358 0.000501
359 0.000503
360 0.000500
361 0.000501
362 0.000497
363 0.000490
364 0.000491
365 0.000488
366 0.000484
367 0.000481
368 0.000478
369 0.000474
370 0.000470
371 0.000469
372 0.000465
373 0.000456
374 0.000453
375 0.000448
376 0.000437
377 0.000435
378 0.000428
379 0.000418
380 0.000409
381 0.000401
382 0.000396
383 0.000390
384 0.000394
385 0.000392
386 0.000385
387 0.000382
388 0.000384
389 0.000387
390 0.000395
391 0.000405
392 0.000408
393 0.000407
394 0.000408
395 0.000405
396 0.000406
397 0.000411
398 0.000408
399 0.000409
400 0.000410
401 0.000411
402 0.000421
403 0.000423
404 0.000425
405 0.000421
406 0.000413
407 0.000406
408 0.000399
409 0.000396
410 0.000396
411 0.000399
412 0.000401
413 0.000403
414 0.000402
415 0.000398
416 0.000387
417 0.000378
418 0.000369
419 0.000367
420 0.000367
421 0.000363
422 0.000362
423 0.000356
424 0.000352
425 0.000350
426 0.000349
427 0.000347
428 0.000346
429 0.000345
430 0.000345
431 0.000348
432 0.000345
433 0.000340
434 0.000340
435 0.000337
436 0.000341
437 0.000342
438 0.000345
439 0.000348
440 0.000352
441 0.000355
442 0.000363
443 0.000372
444 0.000375
445 0.000378
446 0.000371
447 0.000366
448 0.000364
449 0.000361
450 0.000361
451 0.000360
452 0.000357
453 0.000355
454 0.000347
455 0.000344
456 0.000338
457 0.000333
458 0.000328
459 0.000323
460 0.000322
461 0.000317
462 0.000315
463 0.000309
464 0.000305
465 0.000308
466 0.000313
467 0.000317
468 0.000313
469 0.000309
470 0.000305
471 0.000300
472 0.000296
473 0.000292
474 0.000290
475 0.000285
476 0.000284
477 0.000289
478 0.000292
479 0.000293
480 0.000294
481 0.000293
482 0.000296
483 0.000297
484 0.000296
485 0.000297
486 0.000293
487 0.000290
488 0.000293
489 0.000292
490 0.000299
491 0.000304
492 0.000304
493 0.000303
494 0.000301
495 0.000297
496 0.000295
497 0.000288
498 0.000278
499 0.000270
500 0.000255
501 0.000249
502 0.000248
503 0.000242
504 0.000237
505 0.000232
506 0.000225
507 0.000221
508 0.000217
509 0.000214
510 0.000213
511 0.000208
512 0.000204
513 0.000201
514 0.000196
515 0.000192
516 0.000189
517 0.000187
518 0.000187
519 0.000185
520 0.000188
521 0.000190
522 0.000184
523 0.000179
524 0.000175
525 0.000166
526 0.000158
527 0.000158
528 0.000154
529 0.000148
530 0.000145
531 0.000150
532 0.000153
533 0.000160
534 0.000165
535 0.000167
536 0.000172
537 0.000174
538 0.000167
539 0.000159
540 0.000152
541 0.000145
542 0.000145
543 0.000145
544 0.000144
545 0.000145
546 0.000148
547 0.000152
548 0.000155
549 0.000156
550 0.000159
551 0.000157
552 0.000158
553 0.000155
554 0.000160
555 0.000166
556 0.000169
557 0.000169
558 0.000168
559 0.000168
560 0.000173
561 0.000176
562 0.000178
563 0.000185
564 0.000191
565 0.000193
566 0.000194
567 0.000196
568 0.000198
569 0.000193
570 0.000185
571 0.000183
572 0.000179
573 0.000178
574 0.000180
575 0.000181
576 0.000176
577 0.000173
578 0.000170
579 0.000170
580 0.000169
581 0.000167
582 0.000168
583 0.000168
584 0.000166
585 0.000167
586 0.000166
587 0.000158
588 0.000154
589 0.000153
590 0.000154
591 0.000154
592 0.000147
593 0.000144
594 0.000139
595 0.000132
596 0.000127
597 0.000123
598 0.000123
599 0.000126
600 0.000125
601 0.000126
602 0.000126
603 0.000125
604 0.000123
605 0.000120
606 0.000123
607 0.000129
608 0.000138
609 0.000143
610 0.000145
611 0.000148
612 0.000146
613 0.000141
614 0.000140
615 0.000138
616 0.000134
617 0.000134
618 0.000137
619 0.000139
620 0.000141
621 0.000142
622 0.000145
623 0.000148
624 0.000148
625 0.000151
626 0.000151
627 0.000154
628 0.000158
629 0.000159
630 0.000163
631 0.000168
632 0.000176
633 0.000183
634 0.000189
635 0.000193
636 0.000198
637 0.000201
638 0.000203
639 0.000202
640 0.000202
641 0.000204
642 0.000204
643 0.000204
644 0.000204
645 0.000204
646 0.000208
647 0.000208
648 0.000209
649 0.000211
650 0.000212
651 0.000211
652 0.000214
653 0.000224
654 0.000228
655 0.000234
656 0.000238
657 0.000239
658 0.000239
659 0.000241
660 0.000242
661 0.000243
662 0.000244
663 0.000246
664 0.000251
665 0.000258
666 0.000262
667 0.000263
668 0.000266
669 0.000269
670 0.000271
671 0.000276
672 0.000280
673 0.000281
674 0.000283
675 0.000287
676 0.000290
677 0.000291
678 0.000292
679 0.000295
680 0.000297
681 0.000296
682 0.000294
683 0.000293
684 0.000288
685 0.000286
686 0.000288
687 0.000292
688 0.000294
689 0.000294
690 0.000294
691 0.000295
692 0.000298
693 0.000303
694 0.000305
695 0.000300
696 0.000299
697 0.000299
698 0.000301
699 0.000301
700 0.000300
701 0.000296
702 0.000287
703 0.000284
704 0.000278
705 0.000268
706 0.000262
707 0.000256
708 0.000248
709 0.000247
710 0.000244
711 0.000243
712 0.000234
713 0.000221
714 0.000213
715 0.000205
716 0.000203
717 0.000199
718 0.000193
719 0.000189
720 0.000185
721 0.000184
722 0.000185
723 0.000191
724 0.000197
725 0.000199
726 0.000196
727 0.000191
728 0.000187
729 0.000184
730 0.000177
731 0.000169
732 0.000162
733 0.000154
734 0.000148
735 0.000142
736 0.000138
737 0.000132
738 0.000127
739 0.000127
740 0.000120
741 0.000114
742 0.000105
743 0.000098
744 0.000093
745 0.000089
746 0.000086
747 0.000084
748 0.000081
749 0.000079
750 0.000079
751 0.000083
752 0.000089
753 0.000094
754 0.000097
755 0.000098
756 0.000099
757 0.000096
758 0.000091
759 0.000084
760 0.000082
761 0.000084
762 0.000086
763 0.000088
764 0.000088
765 0.000087
766 0.000085
767 0.000081
768 0.000082
769 0.000081
770 0.000082
771 0.000078
772 0.000071
773 0.000066
774 0.000064
775 0.000065
776 0.000065
777 0.000064
778 0.000067
779 0.000068
780 0.000066
781 0.000069
782 0.000074
783 0.000078
784 0.000079
785 0.000077
786 0.000080
787 0.000081
788 0.000080
789 0.000083
790 0.000087
791 0.000089
792 0.000091
793 0.000093
794 0.000094
795 0.000092
796 0.000090
797 0.000091
798 0.000092
799 0.000093
800 0.000094
801 0.000094
802 0.000090
803 0.000082
804 0.000081
805 0.000081
806 0.000082
807 0.000081
808 0.000081
809 0.000083
