# i correlation
1 0.001671
2 0.001605
3 0.001555
4 0.001518
5 0.001490
6 0.001462
7 0.001441
8 0.001422
9 0.001398
10 0.001383
11 0.001367
12 0.001348
13 0.001329
14 0.001314
15 0.001297
16 0.001284
17 0.001265
18 0.001245
19 0.001232
20 0.001217
21 0.001199
22 0.001181
23 0.001165
24 0.001154
25 0.001143
26 0.001140
27 0.001139
28 0.001142
29 0.001148
30 0.001154
31 0.001147
32 0.001138
33 0.001129
34 0.001118
35 0.001113
36 0.001118
37 0.001124
38 0.001136
39 0.001146
40 0.001154
41 0.001155
42 0.001153
43 0.001149
44 0.001149
45 0.001141
46 0.001133
47 0.001123
48 0.001118
49 0.001119
50 0.001111
51 0.001096
52 0.001086
53 0.001081
54 0.001072
55 0.001056
56 0.001037
57 0.001030
58 0.001024
59 0.001021
60 0.001019
61 0.001010
62 0.001001
63 0.000992
64 0.000978
65 0.000970
66 0.000959
67 0.000949
68 0.000950
69 0.000947
70 0.000938
71 0.000936
72 0.000932
73 0.000923
74 0.000911
75 0.000903
76 0.000899
77 0.000896
78 0.000891
79 0.000891
80 0.000896
81 0.000898
82 0.000903
83 0.000897
84 0.000890
85 0.000888
86 0.000881
87 0.000885
88 0.000894
89 0.000898
90 0.000894
91 0.000890
92 0.000887
93 0.000885
94 0.000880
95 0.000875
96 0.000874
97 0.000872
98 0.000868
99 0.000869
100 0.000867
101 0.000867
102 0.000863
103 0.000861
104 0.000857
105 0.000846
106 0.000834
107 0.000829
108 0.000827
109 0.000824
110 0.000822
111 0.000826
112 0.000831
113 0.000830
114 0.000827
115 0.000824
116 0.000821
117 0.000818
118 0.000822
119 0.000817
120 0.000811
121 0.000804
122 0.000797
123 0.000787
124 0.000784
125 0.000789
126 0.000798
127 0.000803
128 0.000804
129 0.000802
130 0.000801
131 0.000803
132 0.000804
133 0.000796
134 0.000785
135 0.000770
136 0.000757
137 0.000748
138 0.000739
139 0.000731
140 0.000723
141 0.000715
142 0.000717
143 0.000715
144 0.000710
145 0.000705
146 0.000698
147 0.000692
148 0.000690
149 0.000688
150 0.000686
151 0.000676
152 0.000665
153 0.000656
154 0.000654
155 0.000648
156 0.000653
157 0.000657
158 0.000656
159 0.000644
160 0.000638
161 0.000639
162 0.000644
163 0.000643
164 0.000649
165 0.000655
166 0.000650
167 0.000651
168 0.000656
169 0.000664
170 0.000672
171 0.000681
172 0.000691
173 0.000698
174 0.000701
175 0.000710
176 0.000711
177 0.000712
178 0.000710
179 0.000706
180 0.000706
181 0.000706
182 0.000704
183 0.000698
184 0.000696
185 0.000691
186 0.000685
187 0.000683
188 0.000686
189 0.000684
190 0.000672
191 0.000662
192 0.000651
193 0.000650
194 0.000652
195 0.000652
196 0.000650
197 0.000647
198 0.000640
199 0.000631
200 0.000626
201 0.000619
202 0.000613
203 0.000606
204 0.000601
205 0.000600
206 0.000590
207 0.000585
208 0.000581
209 0.000574
210 0.000568
211 0.000565
212 0.000562
213 0.000562
214 0.000568
215 0.000573
216 0.000574
217 0.000575
218 0.000576
219 0.000581
220 0.000573
221 0.000571
222 0.000568
223 0.000564
224 0.000566
225 0.000564
226 0.000559
227 0.000555
228 0.000557
229 0.000563
230 0.000569
231 0.000572
232 0.000569
233 0.000568
234 0.000566
235 0.000559
236 0.000555
237 0.000553
238 0.000549
239 0.000539
240 0.000530
241 0.000524
242 0.000522
243 0.000511
244 0.000504
245 0.000498
246 0.000492
247 0.000487
248 0.000484
249 0.000476
250 0.000472
251 0.000464
252 0.000455
253 0.000451
254 0.000449
255 0.000441
256 0.000429
257 0.000431
258 0.000440
259 0.000444
260 0.000452
261 0.000459
262 0.000459
263 0.000460
264 0.000459
265 0.000463
266 0.000457
267 0.000450
268 0.000450
269 0.000450
270 0.000446
271 0.000439
272 0.000433
273 0.000427
274 0.000425
275 0.000422
276 0.000429
277 0.000428
278 0.000419
279 0.000407
280 0.000395
281 0.000385
282 0.000382
283 0.000379
284 0.000373
285 0.000360
286 0.000351
287 0.000348
288 0.000345
289 0.000345
290 0.000353
291 0.000357
292 0.000355
293 0.000354
294 0.000352
295 0.000351
296 0.000353
297 0.000348
298 0.000346
299 0.000350
300 0.000357
301 0.000366
302 0.000375
303 0.000380
304 0.000382
305 0.000384
306 0.000389
307 0.000391
308 0.000391
309 0.000385
310 0.000381
311 0.000374
312 0.000370
313 0.000366
314 0.000360
315 0.000351
316 0.000342
317 0.000336
318 0.000333
319 0.000331
320 0.000331
321 0.000333
322 0.000335
323 0.000334
324 0.000326
325 0.000317
326 0.000312
327 0.000302
328 0.000290
329 0.000285
330 0.000283
331 0.000283
332 0.000279
333 0.000276
334 0.000272
335 0.000264
336 0.000261
337 0.000260
338 0.000258
339 0.000255
340 0.000255
341 0.000253
342 0.000253
343 0.000252
344 0.000251
345 0.000257
346 0.000260
347 0.000262
348 0.000261
349 0.000267
350 0.000278
351 0.000285
352 0.000289
353 0.000288
354 0.000285
355 0.000282
356 0.000284
357 0.000285
358 0.000288
359 0.000295
360 0.000294
361 0.000294
362 0.000295
363 0.000296
364 0.000303
365 0.000309
366 0.000312
367 0.000306
368 0.000299
369 0.000296
370 0.000299
371 0.000304
372 0.000308
373 0.000309
374 0.000302
375 0.000299
376 0.000294
377 0.000291
378 0.000287
379 0.000285
380 0.000281
381 0.000273
382 0.000267
383 0.000258
384 0.000252
385 0.000250
386 0.000254
387 0.000255
388 0.000251
389 0.000249
390 0.000253
391 0.000256
392 0.000259
393 0.000259
394 0.000264
395 0.000267
396 0.000266
397 0.000257
398 0.000250
399 0.000248
400 0.000245
401 0.000241
402 0.000242
403 0.000244
404 0.000250
405 0.000250
406 0.000248
407 0.000246
408 0.000244
409 0.000247
410 0.000245
411 0.000242
412 0.000241
413 0.000240
414 0.000244
415 0.000250
416 0.000252
417 0.000255
418 0.000256
419 0.000262
420 0.000261
421 0.000259
422 0.000261
423 0.000263
424 0.000259
425 0.000260
426 0.000262
427 0.000259
428 0.000253
429 0.000249
430 0.000253
431 0.000253
432 0.000256
433 0.000262
434 0.000266
435 0.000266
436 0.000269
437 0.000273
438 0.000277
439 0.000285
440 0.000288
441 0.000291
442 0.000290
443 0.000283
444 0.000278
445 0.000273
446 0.000269
447 0.000271
448 0.000281
449 0.000289
450 0.000290
451 0.000284
452 0.000282
453 0.000284
454 0.000285
455 0.000286
456 0.000287
457 0.000285
458 0.000291
459 0.000296
460 0.000292
461 0.000287
462 0.000282
463 0.000284
464 0.000283
465 0.000280
466 0.000281
467 0.000287
468 0.000291
469 0.000292
470 0.000289
471 0.000285
472 0.000281
473 0.000271
474 0.000265
475 0.000261
476 0.000257
477 0.000252
478 0.000249
479 0.000249
480 0.000247
481 0.000240
482 0.000236
483 0.000233
484 0.000230
485 0.000222
486 0.000217
487 0.000216
488 0.000217
489 0.000217
490 0.000218
491 0.000218
492 0.000214
493 0.000210
494 0.000208
495 0.000208
496 0.000206
497 0.000205
498 0.000208
499 0.000210
500 0.000207
501 0.000209
502 0.000212
503 0.000214
504 0.000211
505 0.000212
506 0.000209
507 0.000213
508 0.000223
509 0.000223
510 0.000219
511 0.000212
512 0.000206
513 0.000202
514 0.000194
515 0.000186
516 0.000176
517 0.000163
518 0.000157
519 0.000155
520 0.000155
521 0.000158
522 0.000160
523 0.000159
524 0.000156
525 0.000149
526 0.000144
527 0.000146
528 0.000146
529 0.000151
530 0.000153
531 0.000157
532 0.000156
533 0.000153
534 0.000152
535 0.000154
536 0.000156
537 0.000161
538 0.000167
539 0.000170
540 0.000172
541 0.000177
542 0.000180
543 0.000185
544 0.000193
545 0.000198
546 0.000199
547 0.000206
548 0.000214
549 0.000221
550 0.000222
551 0.000224
552 0.000231
553 0.000235
554 0.000237
555 0.000238
556 0.000235
557 0.000237
558 0.000237
559 0.000242
560 0.000244
561 0.000247
562 0.000242
563 0.000239
564 0.000237
565 0.000232
566 0.000228
567 0.000230
568 0.000234
569 0.000239
570 0.000242
571 0.000247
572 0.000246
573 0.000245
574 0.000242
575 0.000240
576 0.000235
577 0.000227
578 0.000218
579 0.000212
580 0.000213
581 0.000216
582 0.000214
583 0.000214
584 0.000215
585 0.000215
586 0.000210
587 0.000208
588 0.000210
589 0.000213
590 0.000216
591 0.000215
592 0.000214
593 0.000210
594 0.000209
595 0.000211
596 0.000211
597 0.000213
598 0.000220
599 0.000225
600 0.000227
601 0.000232
602 0.000232
603 0.000230
604 0.000228
605 0.000224
606 0.000222
607 0.000218
608 0.000214
609 0.000214
610 0.000218
611 0.000220
612 0.000224
613 0.000226
614 0.000229
615 0.000227
616 0.000222
617 0.000217
618 0.000212
619 0.000211
620 0.000214
621 0.000215
622 0.000218
623 0.000221
624 0.000222
625 0.000224
626 0.000228
627 0.000231
628 0.000231
629 0.000233
630 0.000237
631 0.000237
632 0.000237
633 0.000240
634 0.000244
635 0.000246
636 0.000244
637 0.000242
638 0.000242
639 0.000240
640 0.000242
641 0.000245
642 0.000251
643 0.000255
644 0.000255
645 0.000252
646 0.000249
647 0.000248
648 0.000246
649 0.000245
650 0.000243
651 0.000243
652 0.000246
653 0.000247
654 0.000245
655 0.000246
656 0.000245
657 0.000239
658 0.000233
659 0.000229
660 0.000226
661 0.000227
662 0.000225
663 0.000231
664 0.000237
665 0.000243
666 0.000247
667 0.000250
668 0.000250
669 0.000250
670 0.000250
671 0.000251
672 0.000256
673 0.000263
674 0.000266
675 0.000265
676 0.000262
677 0.000260
678 0.000259
679 0.000257
680 0.000258
681 0.000260
682 0.000261
683 0.000265
684 0.000263
685 0.000260
686 0.000258
687 0.000255
688 0.000251
689 0.000245
690 0.000240
691 0.000239
692 0.000237
693 0.000231
694 0.000225
695 0.000220
696 0.000215
697 0.000211
698 0.000207
699 0.000203
700 0.000197
701 0.000190
702 0.000188
703 0.000187
704 0.000182
705 0.000180
706 0.000176
707 0.000173
708 0.000166
709 0.000163
710 0.000158
711 0.000150
712 0.000142
713 0.000140
714 0.000137
715 0.000134
716 0.000132
717 0.000133
718 0.000133
719 0.000131
720 0.000128
721 0.000125
722 0.000125
723 0.000127
724 0.000131
725 0.000132
726 0.000131
727 0.000131
728 0.000129
729 0.000127
730 0.000122
731 0.000117
732 0.000118
733 0.000115
734 0.000113
735 0.000111
736 0.000110
737 0.000111
738 0.000113
739 0.000114
740 0.000113
741 0.000113
742 0.000114
743 0.000118
744 0.000122
745 0.000125
746 0.000127
747 0.000123
748 0.000120
749 0.000117
750 0.000113
751 0.000113
752 0.000112
753 0.000111
754 0.000109
755 0.000106
756 0.000102
757 0.000100
758 0.000098
759 0.000096
760 0.000094
761 0.000092
762 0.000093
763 0.000095
764 0.000096
765 0.000098
766 0.000098
767 0.000095
768 0.000093
769 0.000090
770 0.000090
771 0.000090
772 0.000090
773 0.000093
774 0.000096
775 0.000096
776 0.000095
777 0.000094
778 0.000093
779 0.000093
780 0.000092
781 0.000093
782 0.000093
783 0.000091
784 0.000090
785 0.000090
786 0.000090
787 0.000089
788 0.000084
789 0.000082
790 0.000080
791 0.000079
792 0.000079
793 0.000076
794 0.000075
795 0.000076
796 0.000075
797 0.000074
798 0.000073
799 0.000075
800 0.000075
801 0.000075
802 0.000075
803 0.000079
804 0.000081
805 0.000083
806 0.000082
807 0.000082
808 0.000083
809 0.000086
