# i correlation
1 0.001506
2 0.001440
3 0.001383
4 0.001329
5 0.001275
6 0.001228
7 0.001190
8 0.001153
9 0.001122
10 0.001096
11 0.001074
12 0.001060
13 0.001046
14 0.001042
15 0.001037
16 0.001033
17 0.001024
18 0.001024
19 0.001018
20 0.001007
21 0.001000
22 0.000991
23 0.000988
24 0.000987
25 0.000987
26 0.000986
27 0.000981
28 0.000973
29 0.000968
30 0.000964
31 0.000960
32 0.000956
33 0.000952
34 0.000940
35 0.000930
36 0.000914
37 0.000905
38 0.000894
39 0.000883
40 0.000872
41 0.000866
42 0.000856
43 0.000850
44 0.000848
45 0.000851
46 0.000852
47 0.000853
48 0.000858
49 0.000856
50 0.000856
51 0.000863
52 0.000873
53 0.000884
54 0.000894
55 0.000898
56 0.000897
57 0.000892
58 0.000878
59 0.000868
60 0.000862
61 0.000850
62 0.000844
63 0.000832
64 0.000823
65 0.000816
66 0.000810
67 0.000800
68 0.000789
69 0.000785
70 0.000769
71 0.000757
72 0.000745
73 0.000733
74 0.000716
75 0.000703
76 0.000691
77 0.000684
78 0.000690
79 0.000695
80 0.000700
81 0.000701
82 0.000702
83 0.000704
84 0.000700
85 0.000701
86 0.000702
87 0.000706
88 0.000703
89 0.000705
90 0.000704
91 0.000705
92 0.000702
93 0.000706
94 0.000707
95 0.000709
96 0.000710
97 0.000704
98 0.000692
99 0.000675
100 0.000658
101 0.000644
102 0.000626
103 0.000617
104 0.000612
105 0.000612
106 0.000618
107 0.000624
108 0.000628
109 0.000630
110 0.000642
111 0.000648
112 0.000654
113 0.000655
114 0.000652
115 0.000641
116 0.000629
117 0.000620
118 0.000610
119 0.000607
120 0.000606
121 0.000605
122 0.000607
123 0.000604
124 0.000602
125 0.000601
126 0.000606
127 0.000606
128 0.000608
129 0.000604
130 0.000599
131 0.000596
132 0.000592
133 0.000586
134 0.000577
135 0.000577
136 0.000575
137 0.000578
138 0.000585
139 0.000587
140 0.000591
141 0.000594
142 0.000594
143 0.000587
144 0.000587
145 0.000584
146 0.000580
147 0.000580
148 0.000570
149 0.000571
150 0.000563
151 0.000559
152 0.000546
153 0.000538
154 0.000536
155 0.000533
156 0.000532
157 0.000530
158 0.000531
159 0.000528
160 0.000533
161 0.000543
162 0.000548
163 0.000555
164 0.000559
165 0.000564
166 0.000568
167 0.000566
168 0.000561
169 0.000556
170 0.000549
171 0.000534
172 0.000525
173 0.000521
174 0.000520
175 0.000520
176 0.000527
177 0.000524
178 0.000515
179 0.000508
180 0.000503
181 0.000495
182 0.000490
183 0.000481
184 0.000471
185 0.000463
186 0.000457
187 0.000449
188 0.000447
189 0.000443
190 0.000436
191 0.000434
192 0.000441
193 0.000445
194 0.000448
195 0.000451
196 0.000455
197 0.000463
198 0.000468
199 0.000469
200 0.000470
201 0.000476
202 0.000482
203 0.000481
204 0.000483
205 0.000476
206 0.000474
207 0.000466
208 0.000458
209 0.000445
210 0.000431
211 0.000421
212 0.000402
213 0.000391
214 0.000377
215 0.000378
216 0.000380
217 0.000385
218 0.000400
219 0.000407
220 0.000423
221 0.000437
222 0.000450
223 0.000465
224 0.000472
225 0.000473
226 0.000472
227 0.000470
228 0.000463
229 0.000456
230 0.000447
231 0.000437
232 0.000432
233 0.000433
234 0.000435
235 0.000436
236 0.000440
237 0.000438
238 0.000436
239 0.000428
240 0.000427
241 0.000422
242 0.000416
243 0.000413
244 0.000409
245 0.000405
246 0.000395
247 0.000394
248 0.000392
249 0.000395
250 0.000400
251 0.000406
252 0.000414
253 0.000422
254 0.000432
255 0.000437
256 0.000439
257 0.000439
258 0.000437
259 0.000439
260 0.000435
261 0.000434
262 0.000429
263 0.000428
264 0.000425
265 0.000419
266 0.000415
267 0.000412
268 0.000406
269 0.000406
270 0.000411
271 0.000417
272 0.000420
273 0.000422
274 0.000421
275 0.000426
276 0.000420
277 0.000411
278 0.000400
279 0.000384
280 0.000375
281 0.000370
282 0.000366
283 0.000358
284 0.000353
285 0.000349
286 0.000342
287 0.000338
288 0.000337
289 0.000344
290 0.000349
291 0.000350
292 0.000348
293 0.000347
294 0.000339
295 0.000337
296 0.000337
297 0.000333
298 0.000333
299 0.000336
300 0.000335
301 0.000336
302 0.000340
303 0.000341
304 0.000342
305 0.000349
306 0.000355
307 0.000360
308 0.000359
309 0.000355
310 0.000347
311 0.000339
312 0.000333
313 0.000332
314 0.000332
315 0.000332
316 0.000337
317 0.000337
318 0.000339
319 0.000340
320 0.000340
321 0.000338
322 0.000333
323 0.000328
324 0.000321
325 0.000319
326 0.000324
327 0.000327
328 0.000327
329 0.000330
330 0.000339
331 0.000347
332 0.000355
333 0.000356
334 0.000361
335 0.000363
336 0.000368
337 0.000374
338 0.000375
339 0.000374
340 0.000370
341 0.000361
342 0.000351
343 0.000339
344 0.000335
345 0.000327
346 0.000327
347 0.000315
348 0.000301
349 0.000290
350 0.000284
351 0.000280
352 0.000278
353 0.000279
354 0.000273
355 0.000270
356 0.000267
357 0.000263
358 0.000258
359 0.000251
360 0.000252
361 0.000255
362 0.000265
363 0.000272
364 0.000282
365 0.000286
366 0.000283
367 0.000285
368 0.000281
369 0.000278
370 0.000276
371 0.000276
372 0.000273
373 0.000267
374 0.000256
375 0.000242
376 0.000230
377 0.000218
378 0.000212
379 0.000207
380 0.000197
381 0.000187
382 0.000184
383 0.000185
384 0.000188
385 0.000198
386 0.000205
387 0.000212
388 0.000217
389 0.000222
390 0.000224
391 0.000233
392 0.000240
393 0.000242
394 0.000250
395 0.000255
396 0.000259
397 0.000259
398 0.000257
399 0.000261
400 0.000261
401 0.000263
402 0.000262
403 0.000261
404 0.000259
405 0.000252
406 0.000246
407 0.000232
408 0.000220
409 0.000214
410 0.000211
411 0.000205
412 0.000202
413 0.000203
414 0.000198
415 0.000192
416 0.000186
417 0.000188
418 0.000187
419 0.000190
420 0.000195
421 0.000196
422 0.000197
423 0.000196
424 0.000204
425 0.000212
426 0.000218
427 0.000219
428 0.000214
429 0.000204
430 0.000192
431 0.000188
432 0.000184
433 0.000178
434 0.000163
435 0.000148
436 0.000140
437 0.000125
438 0.000112
439 0.000107
440 0.000104
441 0.000099
442 0.000100
443 0.000102
444 0.000106
445 0.000111
446 0.000120
447 0.000129
448 0.000135
449 0.000137
450 0.000139
451 0.000146
452 0.000145
453 0.000143
454 0.000135
455 0.000125
456 0.000118
457 0.000119
458 0.000130
459 0.000139
460 0.000150
461 0.000161
462 0.000168
463 0.000175
464 0.000181
465 0.000191
466 0.000196
467 0.000200
468 0.000201
469 0.000203
470 0.000196
471 0.000187
472 0.000179
473 0.000171
474 0.000164
475 0.000163
476 0.000160
477 0.000161
478 0.000162
479 0.000166
480 0.000165
481 0.000168
482 0.000171
483 0.000174
484 0.000174
485 0.000172
486 0.000168
487 0.000165
488 0.000161
489 0.000149
490 0.000143
491 0.000139
492 0.000137
493 0.000142
494 0.000143
495 0.000149
496 0.000153
497 0.000156
498 0.000158
499 0.000161
500 0.000160
501 0.000158
502 0.000160
503 0.000155
504 0.000151
505 0.000152
506 0.000152
507 0.000153
508 0.000152
509 0.000152
510 0.000152
511 0.000154
512 0.000156
513 0.000163
514 0.000171
515 0.000178
516 0.000185
517 0.000188
518 0.000190
519 0.000188
520 0.000189
521 0.000186
522 0.000179
523 0.000175
524 0.000173
525 0.000171
526 0.000168
527 0.000166
528 0.000162
529 0.000163
530 0.000162
531 0.000162
532 0.000166
533 0.000167
534 0.000168
535 0.000164
536 0.000163
537 0.000163
538 0.000167
539 0.000171
540 0.000176
541 0.000176
542 0.000176
543 0.000178
544 0.000178
545 0.000176
546 0.000173
547 0.000168
548 0.000166
549 0.000159
550 0.000160
551 0.000152
552 0.000145
553 0.000141
554 0.000139
555 0.000138
556 0.000138
557 0.000142
558 0.000146
559 0.000153
560 0.000156
561 0.000160
562 0.000168
563 0.000170
564 0.000175
565 0.000176
566 0.000176
567 0.000174
568 0.000173
569 0.000172
570 0.000172
571 0.000178
572 0.000184
573 0.000191
574 0.000196
575 0.000200
576 0.000203
577 0.000208
578 0.000207
579 0.000205
580 0.000209
581 0.000214
582 0.000212
583 0.000211
584 0.000206
585 0.000205
586 0.000204
587 0.000204
588 0.000206
589 0.000210
590 0.000215
591 0.000222
592 0.000226
593 0.000232
594 0.000234
595 0.000237
596 0.000237
597 0.000235
598 0.000230
599 0.000223
600 0.000218
601 0.000211
602 0.000206
603 0.000202
604 0.000197
605 0.000194
606 0.000192
607 0.000197
608 0.000200
609 0.000199
610 0.000198
611 0.000195
612 0.000194
613 0.000187
614 0.000185
615 0.000183
616 0.000182
617 0.000177
618 0.000170
619 0.000167
620 0.000165
621 0.000162
622 0.000162
623 0.000163
624 0.000169
625 0.000172
626 0.000178
627 0.000187
628 0.000199
629 0.000210
630 0.000217
631 0.000222
632 0.000229
633 0.000235
634 0.000238
635 0.000240
636 0.000238
637 0.000243
638 0.000242
639 0.000241
640 0.000236
641 0.000235
642 0.000236
643 0.000237
644 0.000236
645 0.000236
646 0.000238
647 0.000243
648 0.000245
649 0.000246
650 0.000241
651 0.000237
652 0.000232
653 0.000230
654 0.000224
655 0.000218
656 0.000210
657 0.000206
658 0.000200
659 0.000193
660 0.000191
661 0.000186
662 0.000184
663 0.000185
664 0.000187
665 0.000184
666 0.000186
667 0.000186
668 0.000184
669 0.000184
670 0.000185
671 0.000185
672 0.000186
673 0.000183
674 0.000178
675 0.000172
676 0.000174
677 0.000171
678 0.000167
679 0.000161
680 0.000159
681 0.000155
682 0.000149
683 0.000146
684 0.000144
685 0.000142
686 0.000141
687 0.000146
688 0.000149
689 0.000148
690 0.000149
691 0.000149
692 0.000150
693 0.000147
694 0.000142
695 0.000141
696 0.000137
697 0.000135
698 0.000134
699 0.000133
700 0.000130
701 0.000128
702 0.000130
703 0.000132
704 0.000126
705 0.000121
706 0.000113
707 0.000105
708 0.000097
709 0.000091
710 0.000083
711 0.000076
712 0.000070
713 0.000068
714 0.000065
715 0.000065
716 0.000068
717 0.000073
718 0.000078
719 0.000084
720 0.000093
721 0.000100
722 0.000111
723 0.000116
724 0.000121
725 0.000125
726 0.000126
727 0.000126
728 0.000128
729 0.000130
730 0.000133
731 0.000135
732 0.000140
733 0.000143
734 0.000146
735 0.000152
736 0.000157
737 0.000160
738 0.000167
739 0.000171
740 0.000176
741 0.000178
742 0.000178
743 0.000175
744 0.000167
745 0.000158
746 0.000149
747 0.000142
748 0.000135
749 0.000130
750 0.000128
751 0.000124
752 0.000120
753 0.000116
754 0.000116
755 0.000114
756 0.000116
757 0.000117
758 0.000114
759 0.000114
760 0.000113
761 0.000112
762 0.000106
763 0.000104
764 0.000103
765 0.000104
766 0.000102
767 0.000100
768 0.000098
769 0.000098
770 0.000100
771 0.000099
772 0.000094
773 0.000093
774 0.000095
775 0.000094
776 0.000092
777 0.000094
778 0.000097
779 0.000096
780 0.000097
781 0.000097
782 0.000095
783 0.000093
784 0.000094
785 0.000093
786 0.000093
787 0.000092
788 0.000094
789 0.000095
790 0.000095
791 0.000096
792 0.000098
793 0.000100
794 0.000102
795 0.000101
796 0.000099
797 0.000099
798 0.000102
799 0.000103
800 0.000101
801 0.000096
802 0.000092
803 0.000087
804 0.000086
805 0.000084
806 0.000080
807 0.000074
808 0.000073
809 0.000074
