# i correlation
1 0.001503
2 0.001446
3 0.001401
4 0.001367
5 0.001340
6 0.001323
7 0.001303
8 0.001286
9 0.001272
10 0.001257
11 0.001237
12 0.001229
13 0.001220
14 0.001219
15 0.001215
16 0.001207
17 0.001194
18 0.001180
19 0.001167
20 0.001160
21 0.001156
22 0.001158
23 0.001161
24 0.001153
25 0.001143
26 0.001133
27 0.001115
28 0.001101
29 0.001091
30 0.001085
31 0.001075
32 0.001072
33 0.001072
34 0.001069
35 0.001059
36 0.001047
37 0.001039
38 0.001033
39 0.001025
40 0.001018
41 0.001013
42 0.001008
43 0.001001
44 0.001000
45 0.000996
46 0.000990
47 0.000985
48 0.000985
49 0.000987
50 0.000981
51 0.000968
52 0.000956
53 0.000947
54 0.000936
55 0.000933
56 0.000930
57 0.000928
58 0.000928
59 0.000925
60 0.000924
61 0.000913
62 0.000911
63 0.000912
64 0.000915
65 0.000913
66 0.000911
67 0.000912
68 0.000906
69 0.000905
70 0.000904
71 0.000899
72 0.000900
73 0.000896
74 0.000893
75 0.000890
76 0.000894
77 0.000888
78 0.000887
79 0.000885
80 0.000883
81 0.000881
82 0.000881
83 0.000879
84 0.000875
85 0.000869
86 0.000862
87 0.000857
88 0.000852
89 0.000845
90 0.000845
91 0.000841
92 0.000845
93 0.000841
94 0.000831
95 0.000817
96 0.000804
97 0.000797
98 0.000796
99 0.000795
100 0.000800
101 0.000805
102 0.000807
103 0.000801
104 0.000801
105 0.000805
106 0.000807
107 0.000807
108 0.000806
109 0.000798
110 0.000786
111 0.000776
112 0.000766
113 0.000761
114 0.000763
115 0.000766
116 0.000764
117 0.000764
118 0.000762
119 0.000758
120 0.000753
121 0.000747
122 0.000749
123 0.000751
124 0.000751
125 0.000752
126 0.000747
127 0.000746
128 0.000743
129 0.000735
130 0.000730
131 0.000729
132 0.000725
133 0.000719
134 0.000716
135 0.000712
136 0.000704
137 0.000699
138 0.000697
139 0.000695
140 0.000696
141 0.000698
142 0.000699
143 0.000700
144 0.000697
145 0.000698
146 0.000698
147 0.000699
148 0.000701
149 0.000705
150 0.000712
151 0.000712
152 0.000706
153 0.000703
154 0.000696
155 0.000692
156 0.000688
157 0.000687
158 0.000687
159 0.000686
160 0.000681
161 0.000673
162 0.000666
163 0.000658
164 0.000657
165 0.000654
166 0.000649
167 0.000650
168 0.000653
169 0.000646
170 0.000640
171 0.000635
172 0.000627
173 0.000621
174 0.000622
175 0.000617
176 0.000606
177 0.000600
178 0.000592
179 0.000590
180 0.000588
181 0.000592
182 0.000601
183 0.000606
184 0.000612
185 0.000612
186 0.000612
187 0.000616
188 0.000620
189 0.000617
190 0.000616
191 0.000621
192 0.000623
193 0.000622
194 0.000623
195 0.000625
196 0.000621
197 0.000615
198 0.000612
199 0.000605
200 0.000598
201 0.000595
202 0.000591
203 0.000585
204 0.000581
205 0.000579
206 0.000577
207 0.000581
208 0.000588
209 0.000592
210 0.000595
211 0.000586
212 0.000579
213 0.000577
214 0.000579
215 0.000582
216 0.000586
217 0.000592
218 0.000597
219 0.000596
220 0.000593
221 0.000589
222 0.000589
223 0.000594
224 0.000596
225 0.000594
226 0.000593
227 0.000591
228 0.000592
229 0.000590
230 0.000588
231 0.000588
232 0.000590
233 0.000591
234 0.000592
235 0.000585
236 0.000579
237 0.000576
238 0.000575
239 0.000573
240 0.000570
241 0.000568
242 0.000567
243 0.000566
244 0.000569
245 0.000563
246 0.000562
247 0.000563
248 0.000559
249 0.000558
250 0.000559
251 0.000563
252 0.000564
253 0.000563
254 0.000559
255 0.000552
256 0.000547
257 0.000543
258 0.000541
259 0.000538
260 0.000539
261 0.000540
262 0.000544
263 0.000546
264 0.000548
265 0.000552
266 0.000559
267 0.000563
268 0.000563
269 0.000559
270 0.000555
271 0.000549
272 0.000550
273 0.000553
274 0.000556
275 0.000560
276 0.000566
277 0.000566
278 0.000564
279 0.000560
280 0.000558
281 0.000554
282 0.000554
283 0.000553
284 0.000551
285 0.000548
286 0.000546
287 0.000541
288 0.000540
289 0.000537
290 0.000535
291 0.000534
292 0.000532
293 0.000532
294 0.000529
295 0.000528
296 0.000534
297 0.000535
298 0.000533
299 0.000533
300 0.000535
301 0.000541
302 0.000554
303 0.000555
304 0.000552
305 0.000550
306 0.000553
307 0.000555
308 0.000557
309 0.000555
310 0.000555
311 0.000555
312 0.000555
313 0.000546
314 0.000541
315 0.000533
316 0.000530
317 0.000528
318 0.000528
319 0.000525
320 0.000523
321 0.000521
322 0.000523
323 0.000523
324 0.000526
325 0.000526
326 0.000523
327 0.000517
328 0.000509
329 0.000500
330 0.000494
331 0.000489
332 0.000490
333 0.000487
334 0.000494
335 0.000498
336 0.000503
337 0.000505
338 0.000506
339 0.000503
340 0.000499
341 0.000494
342 0.000489
343 0.000486
344 0.000484
345 0.000479
346 0.000472
347 0.000459
348 0.000449
349 0.000442
350 0.000437
351 0.000432
352 0.000429
353 0.000423
354 0.000419
355 0.000415
356 0.000413
357 0.000414
358 0.000416
359 0.000416
360 0.000416
361 0.000413
362 0.000409
363 0.000402
364 0.000391
365 0.000384
366 0.000386
367 0.000386
368 0.000387
369 0.000392
370 0.000395
371 0.000396
372 0.000400
373 0.000399
374 0.000401
375 0.000404
376 0.000404
377 0.000404
378 0.000403
379 0.000396
380 0.000395
381 0.000396
382 0.000397
383 0.000401
384 0.000408
385 0.000412
386 0.000413
387 0.000416
388 0.000416
389 0.000420
390 0.000424
391 0.000427
392 0.000432
393 0.000435
394 0.000438
395 0.000435
396 0.000432
397 0.000431
398 0.000436
399 0.000438
400 0.000438
401 0.000439
402 0.000438
403 0.000432
404 0.000430
405 0.000430
406 0.000434
407 0.000438
408 0.000443
409 0.000440
410 0.000438
411 0.000438
412 0.000437
413 0.000435
414 0.000432
415 0.000436
416 0.000441
417 0.000437
418 0.000434
419 0.000432
420 0.000429
421 0.000428
422 0.000428
423 0.000425
424 0.000422
425 0.000426
426 0.000428
427 0.000426
428 0.000422
429 0.000417
430 0.000416
431 0.000413
432 0.000411
433 0.000410
434 0.000407
435 0.000404
436 0.000401
437 0.000400
438 0.000400
439 0.000395
440 0.000394
441 0.000394
442 0.000398
443 0.000395
444 0.000389
445 0.000386
446 0.000383
447 0.000377
448 0.000371
449 0.000368
450 0.000369
451 0.000372
452 0.000375
453 0.000375
454 0.000377
455 0.000377
456 0.000372
457 0.000368
458 0.000362
459 0.000358
460 0.000355
461 0.000356
462 0.000361
463 0.000362
464 0.000364
465 0.000362
466 0.000360
467 0.000360
468 0.000359
469 0.000354
470 0.000352
471 0.000349
472 0.000345
473 0.000342
474 0.000343
475 0.000344
476 0.000350
477 0.000357
478 0.000360
479 0.000359
480 0.000357
481 0.000352
482 0.000341
483 0.000334
484 0.000330
485 0.000332
486 0.000332
487 0.000330
488 0.000326
489 0.000324
490 0.000323
491 0.000326
492 0.000331
493 0.000335
494 0.000339
495 0.000342
496 0.000342
497 0.000338
498 0.000335
499 0.000334
500 0.000337
501 0.000336
502 0.000333
503 0.000334
504 0.000331
505 0.000327
506 0.000323
507 0.000319
508 0.000317
509 0.000314
510 0.000312
511 0.000312
512 0.000311
513 0.000311
514 0.000312
515 0.000312
516 0.000311
517 0.000312
518 0.000317
519 0.000319
520 0.000317
521 0.000312
522 0.000311
523 0.000310
524 0.000313
525 0.000316
526 0.000319
527 0.000323
528 0.000326
529 0.000328
530 0.000331
531 0.000329
532 0.000327
533 0.000328
534 0.000327
535 0.000324
536 0.000318
537 0.000311
538 0.000303
539 0.000298
540 0.000298
541 0.000295
542 0.000297
543 0.000298
544 0.000301
545 0.000304
546 0.000298
547 0.000296
548 0.000297
549 0.000296
550 0.000298
551 0.000299
552 0.000302
553 0.000302
554 0.000299
555 0.000296
556 0.000295
557 0.000297
558 0.000299
559 0.000297
560 0.000295
561 0.000294
562 0.000297
563 0.000299
564 0.000296
565 0.000297
566 0.000297
567 0.000296
568 0.000300
569 0.000300
570 0.000297
571 0.000293
572 0.000289
573 0.000287
574 0.000285
575 0.000286
576 0.000286
577 0.000287
578 0.000290
579 0.000292
580 0.000292
581 0.000294
582 0.000296
583 0.000297
584 0.000299
585 0.000305
586 0.000311
587 0.000316
588 0.000318
589 0.000318
590 0.000315
591 0.000313
592 0.000312
593 0.000311
594 0.000308
595 0.000309
596 0.000305
597 0.000300
598 0.000295
599 0.000291
600 0.000294
601 0.000299
602 0.000303
603 0.000308
604 0.000313
605 0.000314
606 0.000310
607 0.000308
608 0.000307
609 0.000305
610 0.000308
611 0.000308
612 0.000307
613 0.000303
614 0.000298
615 0.000293
616 0.000292
617 0.000292
618 0.000289
619 0.000284
620 0.000283
621 0.000280
622 0.000278
623 0.000272
624 0.000271
625 0.000270
626 0.000273
627 0.000271
628 0.000270
629 0.000269
630 0.000269
631 0.000267
632 0.000267
633 0.000265
634 0.000266
635 0.000267
636 0.000269
637 0.000270
638 0.000272
639 0.000271
640 0.000268
641 0.000264
642 0.000260
643 0.000254
644 0.000252
645 0.000258
646 0.000260
647 0.000261
648 0.000259
649 0.000258
650 0.000259
651 0.000259
652 0.000258
653 0.000254
654 0.000246
655 0.000241
656 0.000233
657 0.000228
658 0.000225
659 0.000227
660 0.000231
661 0.000235
662 0.000236
663 0.000235
664 0.000233
665 0.000231
666 0.000227
667 0.000226
668 0.000227
669 0.000228
670 0.000227
671 0.000228
672 0.000227
673 0.000226
674 0.000227
675 0.000229
676 0.000227
677 0.000226
678 0.000222
679 0.000217
680 0.000214
681 0.000205
682 0.000199
683 0.000198
684 0.000196
685 0.000195
686 0.000193
687 0.000190
688 0.000186
689 0.000186
690 0.000185
691 0.000183
692 0.000185
693 0.000184
694 0.000186
695 0.000191
696 0.000197
697 0.000199
698 0.000202
699 0.000201
700 0.000199
701 0.000203
702 0.000204
703 0.000203
704 0.000201
705 0.000199
706 0.000198
707 0.000197
708 0.000200
709 0.000203
710 0.000210
711 0.000215
712 0.000222
713 0.000229
714 0.000232
715 0.000238
716 0.000241
717 0.000246
718 0.000251
719 0.000255
720 0.000258
721 0.000260
722 0.000261
723 0.000260
724 0.000261
725 0.000258
726 0.000256
727 0.000256
728 0.000259
729 0.000262
730 0.000265
731 0.000265
732 0.000265
733 0.000265
734 0.000266
735 0.000266
736 0.000266
737 0.000268
738 0.000271
739 0.000274
740 0.000274
741 0.000269
742 0.000266
743 0.000268
744 0.000268
745 0.000271
746 0.000269
747 0.000269
748 0.000264
749 0.000260
750 0.000259
751 0.000259
752 0.000261
753 0.000259
754 0.000255
755 0.000247
756 0.000238
757 0.000232
758 0.000227
759 0.000226
760 0.000224
761 0.000223
762 0.000222
763 0.000223
764 0.000220
765 0.000218
766 0.000215
767 0.000212
768 0.000214
769 0.000214
770 0.000215
771 0.000214
772 0.000210
773 0.000208
774 0.000206
775 0.000206
776 0.000206
777 0.000207
778 0.000206
779 0.000207
780 0.000207
781 0.000204
782 0.000200
783 0.000197
784 0.000196
785 0.000194
786 0.000192
787 0.000190
788 0.000189
789 0.000185
790 0.000181
791 0.000179
792 0.000179
793 0.000178
794 0.000176
795 0.000174
796 0.000178
797 0.000181
798 0.000182
799 0.000181
800 0.000181
801 0.000178
802 0.000176
803 0.000175
804 0.000171
805 0.000166
806 0.000163
807 0.000159
808 0.000155
809 0.000151
