# i correlation
1 0.001616
2 0.001555
3 0.001507
4 0.001469
5 0.001439
6 0.001421
7 0.001399
8 0.001379
9 0.001364
10 0.001348
11 0.001325
12 0.001304
13 0.001292
14 0.001279
15 0.001265
16 0.001254
17 0.001242
18 0.001233
19 0.001223
20 0.001214
21 0.001203
22 0.001200
23 0.001196
24 0.001191
25 0.001184
26 0.001178
27 0.001172
28 0.001171
29 0.001166
30 0.001160
31 0.001157
32 0.001154
33 0.001155
34 0.001158
35 0.001158
36 0.001157
37 0.001155
38 0.001149
39 0.001144
40 0.001138
41 0.001130
42 0.001117
43 0.001107
44 0.001093
45 0.001075
46 0.001058
47 0.001050
48 0.001042
49 0.001032
50 0.001024
51 0.001015
52 0.001002
53 0.000995
54 0.000988
55 0.000979
56 0.000974
57 0.000968
58 0.000961
59 0.000957
60 0.000954
61 0.000958
62 0.000961
63 0.000963
64 0.000957
65 0.000942
66 0.000926
67 0.000918
68 0.000912
69 0.000911
70 0.000916
71 0.000917
72 0.000913
73 0.000915
74 0.000915
75 0.000913
76 0.000917
77 0.000917
78 0.000918
79 0.000919
80 0.000912
81 0.000905
82 0.000891
83 0.000881
84 0.000870
85 0.000857
86 0.000843
87 0.000832
88 0.000819
89 0.000812
90 0.000809
91 0.000800
92 0.000797
93 0.000792
94 0.000781
95 0.000777
96 0.000782
97 0.000789
98 0.000792
99 0.000793
100 0.000789
101 0.000786
102 0.000782
103 0.000781
104 0.000785
105 0.000790
106 0.000786
107 0.000785
108 0.000777
109 0.000778
110 0.000773
111 0.000770
112 0.000767
113 0.000766
114 0.000758
115 0.000749
116 0.000741
117 0.000732
118 0.000722
119 0.000716
120 0.000716
121 0.000715
122 0.000712
123 0.000711
124 0.000712
125 0.000713
126 0.000714
127 0.000710
128 0.000698
129 0.000683
130 0.000675
131 0.000671
132 0.000674
133 0.000678
134 0.000675
135 0.000677
136 0.000676
137 0.000671
138 0.000665
139 0.000663
140 0.000666
141 0.000668
142 0.000669
143 0.000673
144 0.000672
145 0.000669
146 0.000663
147 0.000659
148 0.000654
149 0.000644
150 0.000631
151 0.000617
152 0.000606
153 0.000597
154 0.000591
155 0.000583
156 0.000578
157 0.000578
158 0.000581
159 0.000586
160 0.000591
161 0.000594
162 0.000595
163 0.000591
164 0.000581
165 0.000564
166 0.000555
167 0.000551
168 0.000553
169 0.000553
170 0.000551
171 0.000551
172 0.000549
173 0.000546
174 0.000536
175 0.000533
176 0.000529
177 0.000528
178 0.000520
179 0.000513
180 0.000508
181 0.000504
182 0.000502
183 0.000505
184 0.000504
185 0.000500
186 0.000499
187 0.000498
188 0.000499
189 0.000502
190 0.000501
191 0.000496
192 0.000493
193 0.000481
194 0.000474
195 0.000472
196 0.000474
197 0.000478
198 0.000481
199 0.000492
200 0.000496
201 0.000506
202 0.000514
203 0.000511
204 0.000503
205 0.000504
206 0.000509
207 0.000512
208 0.000515
209 0.000513
210 0.000510
211 0.000506
212 0.000507
213 0.000507
214 0.000511
215 0.000513
216 0.000513
217 0.000515
218 0.000519
219 0.000521
220 0.000522
221 0.000527
222 0.000528
223 0.000530
224 0.000535
225 0.000535
226 0.000530
227 0.000520
228 0.000507
229 0.000500
230 0.000496
231 0.000500
232 0.000501
233 0.000507
234 0.000508
235 0.000505
236 0.000500
237 0.000502
238 0.000503
239 0.000504
240 0.000498
241 0.000492
242 0.000483
243 0.000469
244 0.000458
245 0.000449
246 0.000445
247 0.000441
248 0.000431
249 0.000427
250 0.000419
251 0.000409
252 0.000402
253 0.000400
254 0.000393
255 0.000382
256 0.000371
257 0.000365
258 0.000359
259 0.000362
260 0.000367
261 0.000371
262 0.000369
263 0.000361
264 0.000346
265 0.000332
266 0.000324
267 0.000315
268 0.000314
269 0.000316
270 0.000315
271 0.000310
272 0.000307
273 0.000307
274 0.000302
275 0.000303
276 0.000311
277 0.000311
278 0.000307
279 0.000307
280 0.000308
281 0.000304
282 0.000303
283 0.000294
284 0.000292
285 0.000291
286 0.000297
287 0.000300
288 0.000300
289 0.000294
290 0.000281
291 0.000266
292 0.000253
293 0.000245
294 0.000243
295 0.000243
296 0.000241
297 0.000244
298 0.000246
299 0.000244
300 0.000245
301 0.000243
302 0.000243
303 0.000244
304 0.000246
305 0.000245
306 0.000239
307 0.000233
308 0.000225
309 0.000220
310 0.000225
311 0.000232
312 0.000238
313 0.000239
314 0.000243
315 0.000247
316 0.000252
317 0.000255
318 0.000254
319 0.000249
320 0.000248
321 0.000243
322 0.000239
323 0.000238
324 0.000235
325 0.000233
326 0.000229
327 0.000225
328 0.000222
329 0.000219
330 0.000221
331 0.000220
332 0.000221
333 0.000222
334 0.000229
335 0.000231
336 0.000227
337 0.000226
338 0.000231
339 0.000235
340 0.000240
341 0.000238
342 0.000238
343 0.000243
344 0.000251
345 0.000256
346 0.000257
347 0.000257
348 0.000257
349 0.000258
350 0.000267
351 0.000273
352 0.000276
353 0.000276
354 0.000273
355 0.000268
356 0.000265
357 0.000264
358 0.000270
359 0.000277
360 0.000281
361 0.000291
362 0.000299
363 0.000303
364 0.000301
365 0.000297
366 0.000293
367 0.000287
368 0.000282
369 0.000278
370 0.000270
371 0.000257
372 0.000245
373 0.000237
374 0.000237
375 0.000231
376 0.000227
377 0.000223
378 0.000220
379 0.000217
380 0.000215
381 0.000222
382 0.000223
383 0.000226
384 0.000228
385 0.000236
386 0.000243
387 0.000242
388 0.000237
389 0.000232
390 0.000227
391 0.000228
392 0.000232
393 0.000241
394 0.000248
395 0.000252
396 0.000257
397 0.000251
398 0.000246
399 0.000240
400 0.000234
401 0.000232
402 0.000235
403 0.000232
404 0.000224
405 0.000216
406 0.000212
407 0.000209
408 0.000209
409 0.000210
410 0.000210
411 0.000205
412 0.000199
413 0.000194
414 0.000191
415 0.000187
416 0.000184
417 0.000186
418 0.000183
419 0.000180
420 0.000183
421 0.000192
422 0.000199
423 0.000208
424 0.000217
425 0.000224
426 0.000228
427 0.000230
428 0.000227
429 0.000225
430 0.000233
431 0.000237
432 0.000241
433 0.000247
434 0.000253
435 0.000252
436 0.000253
437 0.000257
438 0.000259
439 0.000266
440 0.000273
441 0.000274
442 0.000276
443 0.000282
444 0.000285
445 0.000284
446 0.000285
447 0.000286
448 0.000292
449 0.000296
450 0.000299
451 0.000300
452 0.000296
453 0.000291
454 0.000284
455 0.000279
456 0.000274
457 0.000275
458 0.000277
459 0.000283
460 0.000289
461 0.000294
462 0.000296
463 0.000295
464 0.000294
465 0.000295
466 0.000294
467 0.000292
468 0.000293
469 0.000287
470 0.000287
471 0.000289
472 0.000287
473 0.000284
474 0.000285
475 0.000283
476 0.000281
477 0.000278
478 0.000275
479 0.000264
480 0.000253
481 0.000242
482 0.000228
483 0.000219
484 0.000210
485 0.000202
486 0.000198
487 0.000198
488 0.000198
489 0.000191
490 0.000186
491 0.000182
492 0.000178
493 0.000175
494 0.000177
495 0.000175
496 0.000172
497 0.000170
498 0.000169
499 0.000166
500 0.000165
501 0.000167
502 0.000166
503 0.000166
504 0.000164
505 0.000160
506 0.000162
507 0.000164
508 0.000160
509 0.000157
510 0.000157
511 0.000161
512 0.000162
513 0.000164
514 0.000160
515 0.000154
516 0.000146
517 0.000139
518 0.000132
519 0.000126
520 0.000121
521 0.000122
522 0.000123
523 0.000122
524 0.000119
525 0.000113
526 0.000108
527 0.000109
528 0.000109
529 0.000111
530 0.000110
531 0.000107
532 0.000105
533 0.000103
534 0.000106
535 0.000112
536 0.000115
537 0.000117
538 0.000118
539 0.000117
540 0.000113
541 0.000109
542 0.000107
543 0.000103
544 0.000101
545 0.000100
546 0.000098
547 0.000101
548 0.000100
549 0.000104
550 0.000104
551 0.000102
552 0.000099
553 0.000101
554 0.000102
555 0.000102
556 0.000102
557 0.000102
558 0.000103
559 0.000097
560 0.000092
561 0.000088
562 0.000083
563 0.000079
564 0.000081
565 0.000085
566 0.000088
567 0.000090
568 0.000085
569 0.000084
570 0.000084
571 0.000089
572 0.000091
573 0.000094
574 0.000093
575 0.000097
576 0.000100
577 0.000105
578 0.000108
579 0.000110
580 0.000112
581 0.000112
582 0.000112
583 0.000116
584 0.000123
585 0.000130
586 0.000136
587 0.000140
588 0.000141
589 0.000143
590 0.000141
591 0.000143
592 0.000147
593 0.000149
594 0.000150
595 0.000148
596 0.000142
597 0.000141
598 0.000144
599 0.000147
600 0.000149
601 0.000151
602 0.000147
603 0.000147
604 0.000145
605 0.000143
606 0.000138
607 0.000137
608 0.000136
609 0.000136
610 0.000139
611 0.000141
612 0.000138
613 0.000130
614 0.000125
615 0.000122
616 0.000122
617 0.000120
618 0.000117
619 0.000120
620 0.000127
621 0.000129
622 0.000128
623 0.000131
624 0.000131
625 0.000132
626 0.000135
627 0.000137
628 0.000135
629 0.000132
630 0.000130
631 0.000130
632 0.000132
633 0.000134
634 0.000136
635 0.000138
636 0.000141
637 0.000143
638 0.000141
639 0.000143
640 0.000148
641 0.000149
642 0.000151
643 0.000151
644 0.000146
645 0.000147
646 0.000148
647 0.000147
648 0.000148
649 0.000152
650 0.000156
651 0.000158
652 0.000152
653 0.000143
654 0.000141
655 0.000142
656 0.000148
657 0.000146
658 0.000144
659 0.000143
660 0.000146
661 0.000147
662 0.000152
663 0.000157
664 0.000160
665 0.000162
666 0.000155
667 0.000150
668 0.000145
669 0.000145
670 0.000152
671 0.000156
672 0.000157
673 0.000162
674 0.000166
675 0.000167
676 0.000166
677 0.000162
678 0.000163
679 0.000167
680 0.000173
681 0.000176
682 0.000181
683 0.000185
684 0.000191
685 0.000191
686 0.000192
687 0.000192
688 0.000191
689 0.000190
690 0.000190
691 0.000186
692 0.000180
693 0.000180
694 0.000178
695 0.000174
696 0.000177
697 0.000179
698 0.000178
699 0.000175
700 0.000174
701 0.000172
702 0.000167
703 0.000168
704 0.000169
705 0.000165
706 0.000162
707 0.000159
708 0.000155
709 0.000152
710 0.000148
711 0.000145
712 0.000147
713 0.000149
714 0.000149
715 0.000146
716 0.000141
717 0.000133
718 0.000126
719 0.000125
720 0.000124
721 0.000126
722 0.000127
723 0.000129
724 0.000134
725 0.000137
726 0.000138
727 0.000139
728 0.000139
729 0.000140
730 0.000141
731 0.000140
732 0.000140
733 0.000140
734 0.000137
735 0.000134
736 0.000135
737 0.000138
738 0.000136
739 0.000132
740 0.000129
741 0.000127
742 0.000123
743 0.000124
744 0.000123
745 0.000123
746 0.000127
747 0.000129
748 0.000129
749 0.000128
750 0.000128
751 0.000127
752 0.000126
753 0.000127
754 0.000128
755 0.000127
756 0.000128
757 0.000129
758 0.000127
759 0.000122
760 0.000122
761 0.000120
762 0.000116
763 0.000113
764 0.000110
765 0.000105
766 0.000104
767 0.000106
768 0.000106
769 0.000103
770 0.000098
771 0.000094
772 0.000092
773 0.000091
774 0.000093
775 0.000092
776 0.000093
777 0.000091
778 0.000092
779 0.000092
780 0.000093
781 0.000091
782 0.000092
783 0.000092
784 0.000094
785 0.000094
786 0.000096
787 0.000100
788 0.000103
789 0.000106
790 0.000108
791 0.000110
792 0.000109
793 0.000110
794 0.000109
795 0.000110
796 0.000113
797 0.000114
798 0.000114
799 0.000114
800 0.000116
801 0.000117
802 0.000117
803 0.000116
804 0.000116
805 0.000118
806 0.000121
807 0.000123
808 0.000126
809 0.000130
