# i correlation
1 0.001850
2 0.001780
3 0.001720
4 0.001667
5 0.001622
6 0.001591
7 0.001561
8 0.001525
9 0.001492
10 0.001456
11 0.001414
12 0.001386
13 0.001364
14 0.001340
15 0.001320
16 0.001303
17 0.001287
18 0.001270
19 0.001261
20 0.001257
21 0.001247
22 0.001239
23 0.001232
24 0.001221
25 0.001209
26 0.001196
27 0.001185
28 0.001177
29 0.001173
30 0.001169
31 0.001164
32 0.001164
33 0.001163
34 0.001162
35 0.001162
36 0.001171
37 0.001176
38 0.001179
39 0.001177
40 0.001175
41 0.001171
42 0.001168
43 0.001168
44 0.001176
45 0.001185
46 0.001187
47 0.001182
48 0.001177
49 0.001170
50 0.001160
51 0.001149
52 0.001133
53 0.001115
54 0.001097
55 0.001085
56 0.001074
57 0.001060
58 0.001046
59 0.001027
60 0.001010
61 0.000992
62 0.000979
63 0.000974
64 0.000970
65 0.000969
66 0.000959
67 0.000950
68 0.000940
69 0.000928
70 0.000921
71 0.000919
72 0.000913
73 0.000907
74 0.000903
75 0.000902
76 0.000906
77 0.000907
78 0.000908
79 0.000907
80 0.000914
81 0.000921
82 0.000928
83 0.000928
84 0.000924
85 0.000924
86 0.000922
87 0.000915
88 0.000908
89 0.000900
90 0.000894
91 0.000884
92 0.000873
93 0.000862
94 0.000852
95 0.000843
96 0.000840
97 0.000833
98 0.000822
99 0.000811
100 0.000800
101 0.000787
102 0.000777
103 0.000772
104 0.000767
105 0.000764
106 0.000760
107 0.000748
108 0.000737
109 0.000726
110 0.000723
111 0.000721
112 0.000718
113 0.000722
114 0.000724
115 0.000720
116 0.000712
117 0.000705
118 0.000699
119 0.000698
120 0.000701
121 0.000699
122 0.000693
123 0.000685
124 0.000677
125 0.000672
126 0.000674
127 0.000676
128 0.000677
129 0.000676
130 0.000682
131 0.000688
132 0.000686
133 0.000686
134 0.000683
135 0.000681
136 0.000682
137 0.000678
138 0.000676
139 0.000678
140 0.000674
141 0.000670
142 0.000657
143 0.000650
144 0.000640
145 0.000633
146 0.000631
147 0.000629
148 0.000626
149 0.000622
150 0.000623
151 0.000625
152 0.000622
153 0.000618
154 0.000614
155 0.000610
156 0.000608
157 0.000605
158 0.000601
159 0.000603
160 0.000605
161 0.000606
162 0.000604
163 0.000600
164 0.000597
165 0.000591
166 0.000584
167 0.000576
168 0.000572
169 0.000576
170 0.000577
171 0.000579
172 0.000575
173 0.000570
174 0.000568
175 0.000566
176 0.000567
177 0.000572
178 0.000577
179 0.000582
180 0.000580
181 0.000574
182 0.000568
183 0.000560
184 0.000553
185 0.000547
186 0.000547
187 0.000548
188 0.000550
189 0.000546
190 0.000537
191 0.000531
192 0.000521
193 0.000514
194 0.000509
195 0.000504
196 0.000508
197 0.000517
198 0.000528
199 0.000526
200 0.000527
201 0.000528
202 0.000530
203 0.000528
204 0.000524
205 0.000521
206 0.000518
207 0.000512
208 0.000510
209 0.000509
210 0.000505
211 0.000504
212 0.000502
213 0.000497
214 0.000493
215 0.000493
216 0.000495
217 0.000497
218 0.000504
219 0.000510
220 0.000515
221 0.000525
222 0.000533
223 0.000539
224 0.000548
225 0.000559
226 0.000570
227 0.000574
228 0.000577
229 0.000578
230 0.000571
231 0.000562
232 0.000555
233 0.000548
234 0.000546
235 0.000541
236 0.000535
237 0.000528
238 0.000518
239 0.000510
240 0.000499
241 0.000492
242 0.000487
243 0.000471
244 0.000456
245 0.000448
246 0.000446
247 0.000439
248 0.000425
249 0.000415
250 0.000400
251 0.000387
252 0.000372
253 0.000358
254 0.000346
255 0.000338
256 0.000335
257 0.000327
258 0.000318
259 0.000313
260 0.000308
261 0.000308
262 0.000306
263 0.000305
264 0.000300
265 0.000294
266 0.000291
267 0.000295
268 0.000302
269 0.000308
270 0.000314
271 0.000318
272 0.000317
273 0.000318
274 0.000320
275 0.000322
276 0.000323
277 0.000322
278 0.000324
279 0.000326
280 0.000325
281 0.000317
282 0.000313
283 0.000314
284 0.000314
285 0.000311
286 0.000309
287 0.000307
288 0.000296
289 0.000285
290 0.000277
291 0.000271
292 0.000268
293 0.000270
294 0.000268
295 0.000267
296 0.000266
297 0.000265
298 0.000259
299 0.000251
300 0.000242
301 0.000232
302 0.000228
303 0.000224
304 0.000221
305 0.000216
306 0.000213
307 0.000215
308 0.000217
309 0.000218
310 0.000220
311 0.000220
312 0.000213
313 0.000207
314 0.000202
315 0.000199
316 0.000201
317 0.000209
318 0.000219
319 0.000226
320 0.000231
321 0.000231
322 0.000225
323 0.000223
324 0.000223
325 0.000223
326 0.000221
327 0.000221
328 0.000215
329 0.000207
330 0.000199
331 0.000200
332 0.000203
333 0.000205
334 0.000203
335 0.000199
336 0.000197
337 0.000194
338 0.000196
339 0.000205
340 0.000209
341 0.000214
342 0.000219
343 0.000219
344 0.000213
345 0.000208
346 0.000206
347 0.000211
348 0.000215
349 0.000217
350 0.000212
351 0.000205
352 0.000202
353 0.000196
354 0.000192
355 0.000195
356 0.000197
357 0.000196
358 0.000194
359 0.000190
360 0.000189
361 0.000191
362 0.000199
363 0.000204
364 0.000208
365 0.000207
366 0.000207
367 0.000212
368 0.000213
369 0.000211
370 0.000207
371 0.000204
372 0.000203
373 0.000203
374 0.000196
375 0.000195
376 0.000202
377 0.000210
378 0.000212
379 0.000209
380 0.000208
381 0.000206
382 0.000203
383 0.000202
384 0.000209
385 0.000216
386 0.000220
387 0.000223
388 0.000220
389 0.000219
390 0.000220
391 0.000220
392 0.000226
393 0.000229
394 0.000230
395 0.000228
396 0.000224
397 0.000222
398 0.000220
399 0.000217
400 0.000213
401 0.000205
402 0.000200
403 0.000199
404 0.000200
405 0.000197
406 0.000197
407 0.000200
408 0.000198
409 0.000194
410 0.000189
411 0.000183
412 0.000181
413 0.000181
414 0.000183
415 0.000183
416 0.000185
417 0.000184
418 0.000187
419 0.000185
420 0.000179
421 0.000174
422 0.000170
423 0.000171
424 0.000173
425 0.000173
426 0.000169
427 0.000172
428 0.000180
429 0.000189
430 0.000194
431 0.000199
432 0.000201
433 0.000201
434 0.000200
435 0.000198
436 0.000195
437 0.000198
438 0.000201
439 0.000204
440 0.000206
441 0.000201
442 0.000202
443 0.000201
444 0.000209
445 0.000214
446 0.000212
447 0.000212
448 0.000215
449 0.000221
450 0.000229
451 0.000234
452 0.000240
453 0.000245
454 0.000251
455 0.000253
456 0.000253
457 0.000255
458 0.000263
459 0.000268
460 0.000268
461 0.000270
462 0.000267
463 0.000262
464 0.000257
465 0.000256
466 0.000256
467 0.000259
468 0.000258
469 0.000257
470 0.000250
471 0.000243
472 0.000239
473 0.000237
474 0.000239
475 0.000242
476 0.000239
477 0.000236
478 0.000235
479 0.000229
480 0.000229
481 0.000234
482 0.000238
483 0.000238
484 0.000236
485 0.000230
486 0.000224
487 0.000221
488 0.000216
489 0.000209
490 0.000206
491 0.000199
492 0.000188
493 0.000181
494 0.000180
495 0.000182
496 0.000182
497 0.000186
498 0.000191
499 0.000192
500 0.000195
501 0.000197
502 0.000195
503 0.000201
504 0.000205
505 0.000211
506 0.000214
507 0.000219
508 0.000221
509 0.000222
510 0.000226
511 0.000227
512 0.000229
513 0.000228
514 0.000224
515 0.000217
516 0.000212
517 0.000212
518 0.000214
519 0.000221
520 0.000233
521 0.000240
522 0.000244
523 0.000248
524 0.000249
525 0.000251
526 0.000256
527 0.000256
528 0.000254
529 0.000251
530 0.000249
531 0.000246
532 0.000246
533 0.000244
534 0.000242
535 0.000238
536 0.000238
537 0.000239
538 0.000238
539 0.000241
540 0.000244
541 0.000244
542 0.000244
543 0.000249
544 0.000252
545 0.000259
546 0.000263
547 0.000262
548 0.000260
549 0.000258
550 0.000254
551 0.000251
552 0.000249
553 0.000247
554 0.000248
555 0.000251
556 0.000247
557 0.000242
558 0.000243
559 0.000241
560 0.000240
561 0.000238
562 0.000237
563 0.000237
564 0.000244
565 0.000254
566 0.000263
567 0.000268
568 0.000275
569 0.000276
570 0.000276
571 0.000276
572 0.000276
573 0.000277
574 0.000277
575 0.000282
576 0.000282
577 0.000284
578 0.000290
579 0.000290
580 0.000290
581 0.000290
582 0.000289
583 0.000289
584 0.000287
585 0.000287
586 0.000285
587 0.000283
588 0.000288
589 0.000290
590 0.000291
591 0.000292
592 0.000293
593 0.000295
594 0.000296
595 0.000298
596 0.000299
597 0.000301
598 0.000299
599 0.000293
600 0.000292
601 0.000291
602 0.000291
603 0.000292
604 0.000295
605 0.000295
606 0.000291
607 0.000284
608 0.000278
609 0.000271
610 0.000267
611 0.000268
612 0.000267
613 0.000268
614 0.000268
615 0.000268
616 0.000272
617 0.000272
618 0.000278
619 0.000286
620 0.000289
621 0.000289
622 0.000289
623 0.000288
624 0.000288
625 0.000288
626 0.000292
627 0.000294
628 0.000296
629 0.000293
630 0.000290
631 0.000290
632 0.000287
633 0.000284
634 0.000279
635 0.000274
636 0.000271
637 0.000267
638 0.000264
639 0.000259
640 0.000256
641 0.000254
642 0.000252
643 0.000243
644 0.000235
645 0.000229
646 0.000224
647 0.000218
648 0.000209
649 0.000201
650 0.000191
651 0.000187
652 0.000185
653 0.000186
654 0.000185
655 0.000184
656 0.000182
657 0.000177
658 0.000174
659 0.000174
660 0.000177
661 0.000179
662 0.000178
663 0.000180
664 0.000183
665 0.000187
666 0.000192
667 0.000196
668 0.000196
669 0.000195
670 0.000190
671 0.000189
672 0.000188
673 0.000187
674 0.000191
675 0.000198
676 0.000203
677 0.000206
678 0.000213
679 0.000220
680 0.000224
681 0.000228
682 0.000233
683 0.000237
684 0.000239
685 0.000240
686 0.000243
687 0.000247
688 0.000247
689 0.000241
690 0.000235
691 0.000229
692 0.000222
693 0.000210
694 0.000194
695 0.000180
696 0.000171
697 0.000160
698 0.000150
699 0.000141
700 0.000133
701 0.000127
702 0.000120
703 0.000116
704 0.000113
705 0.000113
706 0.000112
707 0.000108
708 0.000107
709 0.000103
710 0.000102
711 0.000104
712 0.000104
713 0.000097
714 0.000095
715 0.000092
716 0.000093
717 0.000093
718 0.000095
719 0.000098
720 0.000098
721 0.000092
722 0.000090
723 0.000089
724 0.000090
725 0.000092
726 0.000090
727 0.000086
728 0.000083
729 0.000080
730 0.000076
731 0.000073
732 0.000071
733 0.000066
734 0.000066
735 0.000065
736 0.000065
737 0.000069
738 0.000071
739 0.000073
740 0.000072
741 0.000071
742 0.000071
743 0.000073
744 0.000075
745 0.000078
746 0.000080
747 0.000080
748 0.000081
749 0.000082
750 0.000082
751 0.000082
752 0.000082
753 0.000077
754 0.000076
755 0.000078
756 0.000082
757 0.000085
758 0.000087
759 0.000089
760 0.000087
761 0.000090
762 0.000095
763 0.000102
764 0.000106
765 0.000111
766 0.000118
767 0.000125
768 0.000133
769 0.000143
770 0.000149
771 0.000157
772 0.000158
773 0.000159
774 0.000156
775 0.000149
776 0.000142
777 0.000134
778 0.000125
779 0.000116
780 0.000107
781 0.000098
782 0.000091
783 0.000086
784 0.000079
785 0.000070
786 0.000063
787 0.000056
788 0.000049
789 0.000041
790 0.000039
791 0.000042
792 0.000044
793 0.000049
794 0.000053
795 0.000055
796 0.000058
797 0.000057
798 0.000053
799 0.000048
800 0.000051
801 0.000054
802 0.000060
803 0.000065
804 0.000069
805 0.000074
806 0.000080
807 0.000089
808 0.000097
809 0.000101
