# i correlation
1 0.001636
2 0.001575
3 0.001525
4 0.001482
5 0.001441
6 0.001412
7 0.001388
8 0.001366
9 0.001348
10 0.001328
11 0.001323
12 0.001314
13 0.001297
14 0.001281
15 0.001268
16 0.001254
17 0.001237
18 0.001217
19 0.001194
20 0.001174
21 0.001152
22 0.001137
23 0.001118
24 0.001104
25 0.001097
26 0.001093
27 0.001082
28 0.001071
29 0.001060
30 0.001050
31 0.001041
32 0.001031
33 0.001024
34 0.001019
35 0.001012
36 0.001007
37 0.001001
38 0.000992
39 0.000990
40 0.000995
41 0.001002
42 0.001011
43 0.001013
44 0.001010
45 0.001008
46 0.001006
47 0.001004
48 0.001005
49 0.000999
50 0.000996
51 0.000996
52 0.000998
53 0.000998
54 0.000999
55 0.000996
56 0.000993
57 0.000981
58 0.000969
59 0.000959
60 0.000959
61 0.000960
62 0.000967
63 0.000967
64 0.000963
65 0.000953
66 0.000948
67 0.000942
68 0.000945
69 0.000939
70 0.000928
71 0.000910
72 0.000900
73 0.000893
74 0.000884
75 0.000876
76 0.000865
77 0.000857
78 0.000853
79 0.000852
80 0.000849
81 0.000847
82 0.000843
83 0.000830
84 0.000822
85 0.000819
86 0.000817
87 0.000806
88 0.000796
89 0.000790
90 0.000789
91 0.000785
92 0.000786
93 0.000789
94 0.000792
95 0.000794
96 0.000798
97 0.000797
98 0.000797
99 0.000794
100 0.000790
101 0.000784
102 0.000779
103 0.000787
104 0.000792
105 0.000786
106 0.000777
107 0.000769
108 0.000763
109 0.000761
110 0.000763
111 0.000759
112 0.000754
113 0.000748
114 0.000750
115 0.000751
116 0.000757
117 0.000755
118 0.000750
119 0.000746
120 0.000743
121 0.000740
122 0.000737
123 0.000730
124 0.000725
125 0.000718
126 0.000714
127 0.000704
128 0.000695
129 0.000687
130 0.000684
131 0.000685
132 0.000685
133 0.000684
134 0.000683
135 0.000682
136 0.000680
137 0.000676
138 0.000669
139 0.000657
140 0.000643
141 0.000633
142 0.000628
143 0.000625
144 0.000619
145 0.000612
146 0.000613
147 0.000612
148 0.000607
149 0.000604
150 0.000609
151 0.000611
152 0.000614
153 0.000617
154 0.000617
155 0.000614
156 0.000605
157 0.000590
158 0.000583
159 0.000580
160 0.000578
161 0.000579
162 0.000583
163 0.000587
164 0.000592
165 0.000593
166 0.000593
167 0.000601
168 0.000599
169 0.000597
170 0.000588
171 0.000583
172 0.000580
173 0.000578
174 0.000572
175 0.000567
176 0.000571
177 0.000574
178 0.000582
179 0.000592
180 0.000599
181 0.000601
182 0.000596
183 0.000592
184 0.000585
185 0.000576
186 0.000568
187 0.000558
188 0.000549
189 0.000547
190 0.000542
191 0.000541
192 0.000533
193 0.000529
194 0.000527
195 0.000528
196 0.000525
197 0.000527
198 0.000532
199 0.000538
200 0.000537
201 0.000529
202 0.000521
203 0.000515
204 0.000507
205 0.000496
206 0.000500
207 0.000508
208 0.000514
209 0.000518
210 0.000524
211 0.000526
212 0.000527
213 0.000529
214 0.000536
215 0.000548
216 0.000556
217 0.000559
218 0.000555
219 0.000549
220 0.000542
221 0.000542
222 0.000545
223 0.000555
224 0.000565
225 0.000574
226 0.000576
227 0.000572
228 0.000572
229 0.000573
230 0.000569
231 0.000568
232 0.000567
233 0.000567
234 0.000565
235 0.000567
236 0.000564
237 0.000564
238 0.000560
239 0.000563
240 0.000568
241 0.000568
242 0.000565
243 0.000556
244 0.000544
245 0.000529
246 0.000512
247 0.000499
248 0.000489
249 0.000484
250 0.000474
251 0.000468
252 0.000457
253 0.000448
254 0.000434
255 0.000425
256 0.000412
257 0.000404
258 0.000402
259 0.000407
260 0.000411
261 0.000412
262 0.000415
263 0.000416
264 0.000412
265 0.000411
266 0.000408
267 0.000404
268 0.000396
269 0.000393
270 0.000391
271 0.000382
272 0.000377
273 0.000373
274 0.000367
275 0.000362
276 0.000364
277 0.000374
278 0.000384
279 0.000392
280 0.000394
281 0.000395
282 0.000392
283 0.000389
284 0.000385
285 0.000388
286 0.000391
287 0.000398
288 0.000402
289 0.000403
290 0.000404
291 0.000402
292 0.000405
293 0.000411
294 0.000420
295 0.000425
296 0.000423
297 0.000421
298 0.000418
299 0.000411
300 0.000403
301 0.000396
302 0.000391
303 0.000393
304 0.000389
305 0.000391
306 0.000387
307 0.000384
308 0.000376
309 0.000374
310 0.000371
311 0.000372
312 0.000368
313 0.000364
314 0.000362
315 0.000364
316 0.000359
317 0.000359
318 0.000355
319 0.000355
320 0.000356
321 0.000355
322 0.000349
323 0.000349
324 0.000341
325 0.000338
326 0.000334
327 0.000329
328 0.000323
329 0.000323
330 0.000323
331 0.000331
332 0.000343
333 0.000348
334 0.000357
335 0.000359
336 0.000358
337 0.000358
338 0.000356
339 0.000353
340 0.000349
341 0.000347
342 0.000348
343 0.000349
344 0.000349
345 0.000353
346 0.000355
347 0.000355
348 0.000355
349 0.000358
350 0.000359
351 0.000363
352 0.000365
353 0.000366
354 0.000366
355 0.000359
356 0.000356
357 0.000353
358 0.000356
359 0.000356
360 0.000359
361 0.000359
362 0.000363
363 0.000365
364 0.000359
365 0.000358
366 0.000355
367 0.000352
368 0.000344
369 0.000341
370 0.000337
371 0.000336
372 0.000332
373 0.000332
374 0.000326
375 0.000326
376 0.000323
377 0.000323
378 0.000320
379 0.000320
380 0.000318
381 0.000315
382 0.000312
383 0.000303
384 0.000300
385 0.000291
386 0.000280
387 0.000275
388 0.000272
389 0.000272
390 0.000274
391 0.000279
392 0.000286
393 0.000296
394 0.000300
395 0.000309
396 0.000312
397 0.000313
398 0.000311
399 0.000310
400 0.000301
401 0.000296
402 0.000293
403 0.000288
404 0.000290
405 0.000293
406 0.000300
407 0.000303
408 0.000298
409 0.000300
410 0.000299
411 0.000298
412 0.000298
413 0.000298
414 0.000305
415 0.000314
416 0.000319
417 0.000318
418 0.000324
419 0.000326
420 0.000324
421 0.000326
422 0.000329
423 0.000334
424 0.000341
425 0.000345
426 0.000347
427 0.000354
428 0.000356
429 0.000353
430 0.000345
431 0.000341
432 0.000340
433 0.000339
434 0.000334
435 0.000332
436 0.000331
437 0.000330
438 0.000331
439 0.000335
440 0.000345
441 0.000349
442 0.000356
443 0.000362
444 0.000362
445 0.000360
446 0.000363
447 0.000368
448 0.000375
449 0.000383
450 0.000387
451 0.000387
452 0.000386
453 0.000382
454 0.000378
455 0.000373
456 0.000369
457 0.000368
458 0.000373
459 0.000376
460 0.000379
461 0.000383
462 0.000383
463 0.000385
464 0.000388
465 0.000388
466 0.000386
467 0.000387
468 0.000393
469 0.000399
470 0.000402
471 0.000404
472 0.000406
473 0.000407
474 0.000408
475 0.000411
476 0.000420
477 0.000427
478 0.000429
479 0.000431
480 0.000433
481 0.000431
482 0.000426
483 0.000423
484 0.000425
485 0.000428
486 0.000428
487 0.000429
488 0.000430
489 0.000427
490 0.000422
491 0.000418
492 0.000411
493 0.000405
494 0.000401
495 0.000400
496 0.000399
497 0.000395
498 0.000389
499 0.000377
500 0.000369
501 0.000367
502 0.000368
503 0.000370
504 0.000374
505 0.000377
506 0.000372
507 0.000363
508 0.000356
509 0.000353
510 0.000350
511 0.000344
512 0.000340
513 0.000340
514 0.000336
515 0.000333
516 0.000329
517 0.000329
518 0.000329
519 0.000329
520 0.000328
521 0.000330
522 0.000330
523 0.000325
524 0.000318
525 0.000315
526 0.000310
527 0.000310
528 0.000312
529 0.000314
530 0.000317
531 0.000317
532 0.000319
533 0.000320
534 0.000315
535 0.000310
536 0.000307
537 0.000303
538 0.000298
539 0.000296
540 0.000295
541 0.000292
542 0.000296
543 0.000302
544 0.000309
545 0.000313
546 0.000319
547 0.000319
548 0.000319
549 0.000320
550 0.000321
551 0.000320
552 0.000316
553 0.000312
554 0.000308
555 0.000306
556 0.000304
557 0.000307
558 0.000312
559 0.000313
560 0.000317
561 0.000316
562 0.000315
563 0.000308
564 0.000302
565 0.000297
566 0.000290
567 0.000284
568 0.000286
569 0.000284
570 0.000284
571 0.000287
572 0.000290
573 0.000296
574 0.000304
575 0.000309
576 0.000311
577 0.000312
578 0.000308
579 0.000305
580 0.000305
581 0.000300
582 0.000291
583 0.000289
584 0.000286
585 0.000282
586 0.000283
587 0.000281
588 0.000275
589 0.000266
590 0.000263
591 0.000261
592 0.000260
593 0.000258
594 0.000253
595 0.000255
596 0.000256
597 0.000256
598 0.000258
599 0.000259
600 0.000261
601 0.000263
602 0.000264
603 0.000262
604 0.000260
605 0.000257
606 0.000258
607 0.000258
608 0.000257
609 0.000252
610 0.000248
611 0.000246
612 0.000244
613 0.000246
614 0.000246
615 0.000242
616 0.000237
617 0.000233
618 0.000234
619 0.000237
620 0.000237
621 0.000238
622 0.000242
623 0.000246
624 0.000250
625 0.000253
626 0.000257
627 0.000256
628 0.000259
629 0.000259
630 0.000261
631 0.000265
632 0.000271
633 0.000270
634 0.000267
635 0.000268
636 0.000269
637 0.000272
638 0.000273
639 0.000279
640 0.000289
641 0.000295
642 0.000301
643 0.000307
644 0.000310
645 0.000304
646 0.000303
647 0.000303
648 0.000303
649 0.000304
650 0.000300
651 0.000295
652 0.000289
653 0.000285
654 0.000285
655 0.000285
656 0.000285
657 0.000283
658 0.000284
659 0.000285
660 0.000284
661 0.000283
662 0.000277
663 0.000273
664 0.000271
665 0.000270
666 0.000271
667 0.000272
668 0.000274
669 0.000273
670 0.000270
671 0.000270
672 0.000271
673 0.000268
674 0.000269
675 0.000271
676 0.000273
677 0.000277
678 0.000281
679 0.000282
680 0.000282
681 0.000281
682 0.000280
683 0.000282
684 0.000284
685 0.000284
686 0.000287
687 0.000292
688 0.000296
689 0.000299
690 0.000301
691 0.000302
692 0.000303
693 0.000306
694 0.000313
695 0.000315
696 0.000317
697 0.000318
698 0.000318
699 0.000314
700 0.000313
701 0.000311
702 0.000306
703 0.000299
704 0.000294
705 0.000292
706 0.000289
707 0.000287
708 0.000287
709 0.000287
710 0.000290
711 0.000291
712 0.000295
713 0.000296
714 0.000296
715 0.000290
716 0.000286
717 0.000282
718 0.000279
719 0.000276
720 0.000272
721 0.000270
722 0.000267
723 0.000267
724 0.000266
725 0.000264
726 0.000265
727 0.000267
728 0.000268
729 0.000268
730 0.000267
731 0.000262
732 0.000255
733 0.000249
734 0.000245
735 0.000245
736 0.000247
737 0.000247
738 0.000246
739 0.000245
740 0.000245
741 0.000244
742 0.000244
743 0.000246
744 0.000246
745 0.000247
746 0.000249
747 0.000251
748 0.000250
749 0.000247
750 0.000243
751 0.000239
752 0.000232
753 0.000228
754 0.000223
755 0.000215
756 0.000210
757 0.000207
758 0.000203
759 0.000201
760 0.000202
761 0.000203
762 0.000207
763 0.000211
764 0.000213
765 0.000213
766 0.000212
767 0.000211
768 0.000210
769 0.000209
770 0.000205
771 0.000202
772 0.000202
773 0.000201
774 0.000206
775 0.000213
776 0.000217
777 0.000218
778 0.000220
779 0.000222
780 0.000225
781 0.000226
782 0.000228
783 0.000231
784 0.000233
785 0.000232
786 0.000233
787 0.000236
788 0.000235
789 0.000233
790 0.000234
791 0.000237
792 0.000239
793 0.000242
794 0.000244
795 0.000243
796 0.000241
797 0.000238
798 0.000235
799 0.000234
800 0.000234
801 0.000231
802 0.000229
803 0.000227
804 0.000223
805 0.000218
806 0.000208
807 0.000199
808 0.000192
809 0.000189
