# i correlation
1 0.001965
2 0.001902
3 0.001857
4 0.001811
5 0.001770
6 0.001732
7 0.001698
8 0.001674
9 0.001649
10 0.001624
11 0.001601
12 0.001580
13 0.001560
14 0.001543
15 0.001528
16 0.001519
17 0.001507
18 0.001497
19 0.001487
20 0.001471
21 0.001458
22 0.001446
23 0.001431
24 0.001421
25 0.001405
26 0.001393
27 0.001382
28 0.001372
29 0.001363
30 0.001355
31 0.001343
32 0.001336
33 0.001331
34 0.001326
35 0.001321
36 0.001305
37 0.001300
38 0.001288
39 0.001275
40 0.001256
41 0.001248
42 0.001235
43 0.001222
44 0.001208
45 0.001197
46 0.001183
47 0.001168
48 0.001160
49 0.001152
50 0.001144
51 0.001136
52 0.001130
53 0.001128
54 0.001122
55 0.001115
56 0.001103
57 0.001089
58 0.001078
59 0.001064
60 0.001045
61 0.001029
62 0.001012
63 0.001000
64 0.000986
65 0.000980
66 0.000974
67 0.000971
68 0.000974
69 0.000975
70 0.000972
71 0.000972
72 0.000968
73 0.000960
74 0.000955
75 0.000950
76 0.000948
77 0.000942
78 0.000939
79 0.000937
80 0.000934
81 0.000925
82 0.000921
83 0.000915
84 0.000913
85 0.000909
86 0.000898
87 0.000898
88 0.000901
89 0.000909
90 0.000914
91 0.000922
92 0.000931
93 0.000928
94 0.000920
95 0.000911
96 0.000904
97 0.000894
98 0.000884
99 0.000877
100 0.000871
101 0.000862
102 0.000848
103 0.000835
104 0.000831
105 0.000828
106 0.000825
107 0.000825
108 0.000831
109 0.000833
110 0.000833
111 0.000837
112 0.000831
113 0.000829
114 0.000828
115 0.000831
116 0.000831
117 0.000835
118 0.000839
119 0.000847
120 0.000842
121 0.000837
122 0.000835
123 0.000839
124 0.000843
125 0.000841
126 0.000845
127 0.000844
128 0.000847
129 0.000848
130 0.000844
131 0.000836
132 0.000830
133 0.000833
134 0.000834
135 0.000835
136 0.000837
137 0.000846
138 0.000849
139 0.000845
140 0.000845
141 0.000847
142 0.000846
143 0.000852
144 0.000852
145 0.000850
146 0.000851
147 0.000853
148 0.000859
149 0.000860
150 0.000853
151 0.000846
152 0.000844
153 0.000834
154 0.000828
155 0.000822
156 0.000823
157 0.000824
158 0.000822
159 0.000817
160 0.000820
161 0.000818
162 0.000815
163 0.000823
164 0.000827
165 0.000823
166 0.000817
167 0.000813
168 0.000811
169 0.000808
170 0.000802
171 0.000799
172 0.000794
173 0.000781
174 0.000769
175 0.000756
176 0.000750
177 0.000742
178 0.000733
179 0.000725
180 0.000711
181 0.000703
182 0.000694
183 0.000685
184 0.000687
185 0.000686
186 0.000685
187 0.000691
188 0.000699
189 0.000707
190 0.000710
191 0.000712
192 0.000713
193 0.000717
194 0.000707
195 0.000701
196 0.000693
197 0.000686
198 0.000681
199 0.000679
200 0.000681
201 0.000683
202 0.000684
203 0.000685
204 0.000682
205 0.000681
206 0.000684
207 0.000686
208 0.000686
209 0.000687
210 0.000685
211 0.000685
212 0.000682
213 0.000685
214 0.000688
215 0.000689
216 0.000689
217 0.000685
218 0.000685
219 0.000687
220 0.000686
221 0.000677
222 0.000674
223 0.000672
224 0.000671
225 0.000669
226 0.000671
227 0.000668
228 0.000668
229 0.000668
230 0.000676
231 0.000674
232 0.000675
233 0.000672
234 0.000672
235 0.000672
236 0.000670
237 0.000669
238 0.000668
239 0.000667
240 0.000672
241 0.000680
242 0.000688
243 0.000686
244 0.000691
245 0.000701
246 0.000706
247 0.000706
248 0.000708
249 0.000702
250 0.000693
251 0.000683
252 0.000680
253 0.000675
254 0.000673
255 0.000676
256 0.000683
257 0.000687
258 0.000690
259 0.000696
260 0.000703
261 0.000712
262 0.000711
263 0.000709
264 0.000711
265 0.000703
266 0.000691
267 0.000681
268 0.000672
269 0.000666
270 0.000653
271 0.000648
272 0.000649
273 0.000642
274 0.000632
275 0.000631
276 0.000625
277 0.000622
278 0.000615
279 0.000613
280 0.000613
281 0.000612
282 0.000616
283 0.000628
284 0.000637
285 0.000643
286 0.000649
287 0.000646
288 0.000639
289 0.000635
290 0.000627
291 0.000612
292 0.000604
293 0.000595
294 0.000586
295 0.000582
296 0.000568
297 0.000556
298 0.000547
299 0.000533
300 0.000519
301 0.000510
302 0.000502
303 0.000497
304 0.000492
305 0.000489
306 0.000495
307 0.000500
308 0.000499
309 0.000500
310 0.000505
311 0.000509
312 0.000518
313 0.000520
314 0.000522
315 0.000523
316 0.000531
317 0.000539
318 0.000543
319 0.000550
320 0.000555
321 0.000559
322 0.000562
323 0.000554
324 0.000547
325 0.000548
326 0.000545
327 0.000540
328 0.000537
329 0.000538
330 0.000539
331 0.000537
332 0.000533
333 0.000532
334 0.000526
335 0.000518
336 0.000514
337 0.000513
338 0.000515
339 0.000517
340 0.000521
341 0.000522
342 0.000514
343 0.000509
344 0.000509
345 0.000504
346 0.000497
347 0.000491
348 0.000491
349 0.000491
350 0.000487
351 0.000488
352 0.000490
353 0.000493
354 0.000496
355 0.000499
356 0.000505
357 0.000510
358 0.000507
359 0.000510
360 0.000519
361 0.000522
362 0.000519
363 0.000519
364 0.000523
365 0.000528
366 0.000531
367 0.000533
368 0.000534
369 0.000532
370 0.000528
371 0.000530
372 0.000533
373 0.000534
374 0.000541
375 0.000547
376 0.000548
377 0.000551
378 0.000554
379 0.000551
380 0.000542
381 0.000536
382 0.000536
383 0.000536
384 0.000538
385 0.000540
386 0.000532
387 0.000525
388 0.000523
389 0.000513
390 0.000506
391 0.000501
392 0.000493
393 0.000487
394 0.000488
395 0.000486
396 0.000485
397 0.000484
398 0.000487
399 0.000490
400 0.000492
401 0.000496
402 0.000505
403 0.000516
404 0.000523
405 0.000529
406 0.000531
407 0.000532
408 0.000539
409 0.000545
410 0.000546
411 0.000548
412 0.000550
413 0.000549
414 0.000540
415 0.000528
416 0.000519
417 0.000511
418 0.000508
419 0.000507
420 0.000512
421 0.000514
422 0.000510
423 0.000506
424 0.000497
425 0.000488
426 0.000480
427 0.000474
428 0.000466
429 0.000462
430 0.000456
431 0.000449
432 0.000447
433 0.000449
434 0.000446
435 0.000447
436 0.000448
437 0.000444
438 0.000440
439 0.000430
440 0.000428
441 0.000426
442 0.000417
443 0.000412
444 0.000410
445 0.000411
446 0.000412
447 0.000410
448 0.000410
449 0.000413
450 0.000414
451 0.000409
452 0.000407
453 0.000408
454 0.000407
455 0.000407
456 0.000404
457 0.000399
458 0.000395
459 0.000393
460 0.000393
461 0.000389
462 0.000385
463 0.000383
464 0.000387
465 0.000387
466 0.000387
467 0.000381
468 0.000375
469 0.000363
470 0.000350
471 0.000333
472 0.000318
473 0.000305
474 0.000304
475 0.000307
476 0.000311
477 0.000318
478 0.000325
479 0.000333
480 0.000337
481 0.000336
482 0.000342
483 0.000346
484 0.000345
485 0.000348
486 0.000344
487 0.000342
488 0.000343
489 0.000338
490 0.000333
491 0.000327
492 0.000321
493 0.000322
494 0.000320
495 0.000318
496 0.000319
497 0.000322
498 0.000322
499 0.000318
500 0.000316
501 0.000320
502 0.000322
503 0.000330
504 0.000335
505 0.000339
506 0.000339
507 0.000334
508 0.000324
509 0.000324
510 0.000321
511 0.000319
512 0.000319
513 0.000320
514 0.000323
515 0.000324
516 0.000328
517 0.000335
518 0.000342
519 0.000349
520 0.000355
521 0.000361
522 0.000366
523 0.000366
524 0.000362
525 0.000362
526 0.000360
527 0.000357
528 0.000358
529 0.000354
530 0.000348
531 0.000350
532 0.000353
533 0.000357
534 0.000359
535 0.000364
536 0.000370
537 0.000373
538 0.000376
539 0.000379
540 0.000381
541 0.000383
542 0.000385
543 0.000383
544 0.000382
545 0.000381
546 0.000380
547 0.000380
548 0.000382
549 0.000380
550 0.000377
551 0.000377
552 0.000380
553 0.000382
554 0.000382
555 0.000382
556 0.000379
557 0.000376
558 0.000375
559 0.000373
560 0.000373
561 0.000370
562 0.000362
563 0.000354
564 0.000352
565 0.000343
566 0.000335
567 0.000334
568 0.000332
569 0.000334
570 0.000341
571 0.000348
572 0.000357
573 0.000363
574 0.000373
575 0.000380
576 0.000387
577 0.000391
578 0.000390
579 0.000389
580 0.000385
581 0.000383
582 0.000377
583 0.000370
584 0.000366
585 0.000364
586 0.000359
587 0.000351
588 0.000341
589 0.000333
590 0.000330
591 0.000325
592 0.000323
593 0.000324
594 0.000323
595 0.000316
596 0.000312
597 0.000314
598 0.000314
599 0.000310
600 0.000302
601 0.000303
602 0.000303
603 0.000296
604 0.000294
605 0.000293
606 0.000290
607 0.000284
608 0.000278
609 0.000272
610 0.000266
611 0.000264
612 0.000263
613 0.000261
614 0.000258
615 0.000253
616 0.000248
617 0.000241
618 0.000236
619 0.000224
620 0.000218
621 0.000209
622 0.000202
623 0.000200
624 0.000196
625 0.000190
626 0.000187
627 0.000186
628 0.000186
629 0.000186
630 0.000183
631 0.000182
632 0.000182
633 0.000181
634 0.000181
635 0.000182
636 0.000183
637 0.000181
638 0.000181
639 0.000180
640 0.000176
641 0.000169
642 0.000168
643 0.000170
644 0.000174
645 0.000178
646 0.000184
647 0.000190
648 0.000190
649 0.000192
650 0.000192
651 0.000195
652 0.000200
653 0.000204
654 0.000206
655 0.000212
656 0.000213
657 0.000210
658 0.000206
659 0.000202
660 0.000203
661 0.000208
662 0.000209
663 0.000210
664 0.000213
665 0.000213
666 0.000216
667 0.000219
668 0.000220
669 0.000222
670 0.000227
671 0.000233
672 0.000234
673 0.000235
674 0.000237
675 0.000235
676 0.000230
677 0.000233
678 0.000232
679 0.000230
680 0.000229
681 0.000232
682 0.000236
683 0.000240
684 0.000244
685 0.000247
686 0.000247
687 0.000242
688 0.000240
689 0.000239
690 0.000243
691 0.000247
692 0.000249
693 0.000249
694 0.000252
695 0.000256
696 0.000257
697 0.000259
698 0.000259
699 0.000253
700 0.000246
701 0.000239
702 0.000233
703 0.000226
704 0.000220
705 0.000216
706 0.000215
707 0.000211
708 0.000204
709 0.000198
710 0.000192
711 0.000186
712 0.000181
713 0.000177
714 0.000168
715 0.000162
716 0.000158
717 0.000149
718 0.000139
719 0.000132
720 0.000129
721 0.000127
722 0.000124
723 0.000122
724 0.000124
725 0.000127
726 0.000126
727 0.000127
728 0.000130
729 0.000132
730 0.000132
731 0.000129
732 0.000127
733 0.000125
734 0.000121
735 0.000117
736 0.000112
737 0.000105
738 0.000100
739 0.000101
740 0.000102
741 0.000105
742 0.000107
743 0.000111
744 0.000116
745 0.000119
746 0.000121
747 0.000120
748 0.000120
749 0.000123
750 0.000122
751 0.000122
752 0.000121
753 0.000122
754 0.000118
755 0.000113
756 0.000105
757 0.000100
758 0.000094
759 0.000092
760 0.000090
761 0.000089
762 0.000094
763 0.000101
764 0.000103
765 0.000105
766 0.000105
767 0.000104
768 0.000103
769 0.000098
770 0.000094
771 0.000091
772 0.000088
773 0.000085
774 0.000084
775 0.000083
776 0.000083
777 0.000081
778 0.000079
779 0.000074
780 0.000072
781 0.000074
782 0.000073
783 0.000073
784 0.000074
785 0.000072
786 0.000074
787 0.000074
788 0.000073
789 0.000071
790 0.000069
791 0.000066
792 0.000063
793 0.000060
794 0.000059
795 0.000060
796 0.000060
797 0.000061
798 0.000064
799 0.000069
800 0.000076
801 0.000079
802 0.000081
803 0.000080
804 0.000079
805 0.000082
806 0.000082
807 0.000085
808 0.000087
809 0.000083
