# i correlation
1 0.001998
2 0.001933
3 0.001872
4 0.001818
5 0.001778
6 0.001737
7 0.001699
8 0.001671
9 0.001641
10 0.001619
11 0.001596
12 0.001566
13 0.001546
14 0.001528
15 0.001520
16 0.001504
17 0.001494
18 0.001489
19 0.001476
20 0.001473
21 0.001470
22 0.001461
23 0.001449
24 0.001432
25 0.001417
26 0.001403
27 0.001392
28 0.001380
29 0.001373
30 0.001364
31 0.001353
32 0.001337
33 0.001317
34 0.001299
35 0.001284
36 0.001262
37 0.001247
38 0.001244
39 0.001240
40 0.001244
41 0.001235
42 0.001223
43 0.001203
44 0.001181
45 0.001170
46 0.001160
47 0.001151
48 0.001144
49 0.001140
50 0.001135
51 0.001130
52 0.001122
53 0.001114
54 0.001096
55 0.001081
56 0.001074
57 0.001069
58 0.001060
59 0.001054
60 0.001049
61 0.001048
62 0.001050
63 0.001040
64 0.001035
65 0.001021
66 0.001011
67 0.001002
68 0.000995
69 0.000992
70 0.000993
71 0.000995
72 0.001002
73 0.001008
74 0.001012
75 0.001011
76 0.001009
77 0.001016
78 0.001017
79 0.001018
80 0.001022
81 0.001017
82 0.001018
83 0.001011
84 0.001004
85 0.000993
86 0.000984
87 0.000980
88 0.000978
89 0.000965
90 0.000959
91 0.000950
92 0.000938
93 0.000926
94 0.000914
95 0.000899
96 0.000894
97 0.000886
98 0.000875
99 0.000861
100 0.000845
101 0.000833
102 0.000822
103 0.000811
104 0.000794
105 0.000775
106 0.000758
107 0.000745
108 0.000734
109 0.000721
110 0.000706
111 0.000698
112 0.000687
113 0.000678
114 0.000668
115 0.000655
116 0.000641
117 0.000634
118 0.000633
119 0.000632
120 0.000622
121 0.000611
122 0.000599
123 0.000591
124 0.000582
125 0.000576
126 0.000569
127 0.000565
128 0.000562
129 0.000562
130 0.000566
131 0.000571
132 0.000570
133 0.000571
134 0.000576
135 0.000572
136 0.000568
137 0.000568
138 0.000570
139 0.000568
140 0.000563
141 0.000561
142 0.000559
143 0.000552
144 0.000547
145 0.000539
146 0.000534
147 0.000531
148 0.000528
149 0.000535
150 0.000535
151 0.000535
152 0.000535
153 0.000541
154 0.000553
155 0.000564
156 0.000573
157 0.000581
158 0.000584
159 0.000593
160 0.000597
161 0.000599
162 0.000596
163 0.000597
164 0.000606
165 0.000607
166 0.000601
167 0.000599
168 0.000604
169 0.000607
170 0.000613
171 0.000621
172 0.000630
173 0.000632
174 0.000631
175 0.000629
176 0.000638
177 0.000643
178 0.000654
179 0.000661
180 0.000660
181 0.000651
182 0.000644
183 0.000636
184 0.000631
185 0.000628
186 0.000625
187 0.000622
188 0.000617
189 0.000613
190 0.000608
191 0.000607
192 0.000605
193 0.000602
194 0.000601
195 0.000595
196 0.000587
197 0.000589
198 0.000585
199 0.000590
200 0.000593
201 0.000593
202 0.000592
203 0.000588
204 0.000586
205 0.000584
206 0.000577
207 0.000575
208 0.000575
209 0.000573
210 0.000571
211 0.000569
212 0.000559
213 0.000555
214 0.000542
215 0.000535
216 0.000528
217 0.000524
218 0.000533
219 0.000542
220 0.000546
221 0.000559
222 0.000568
223 0.000571
224 0.000578
225 0.000581
226 0.000585
227 0.000580
228 0.000583
229 0.000586
230 0.000588
231 0.000595
232 0.000600
233 0.000604
234 0.000609
235 0.000609
236 0.000617
237 0.000627
238 0.000633
239 0.000638
240 0.000639
241 0.000644
242 0.000645
243 0.000644
244 0.000638
245 0.000638
246 0.000646
247 0.000658
248 0.000662
249 0.000670
250 0.000680
251 0.000691
252 0.000699
253 0.000709
254 0.000710
255 0.000718
256 0.000724
257 0.000727
258 0.000732
259 0.000727
260 0.000729
261 0.000739
262 0.000740
263 0.000737
264 0.000742
265 0.000734
266 0.000736
267 0.000729
268 0.000723
269 0.000717
270 0.000706
271 0.000703
272 0.000705
273 0.000704
274 0.000700
275 0.000693
276 0.000676
277 0.000660
278 0.000647
279 0.000637
280 0.000620
281 0.000615
282 0.000614
283 0.000609
284 0.000604
285 0.000605
286 0.000605
287 0.000612
288 0.000616
289 0.000623
290 0.000629
291 0.000635
292 0.000630
293 0.000617
294 0.000599
295 0.000592
296 0.000587
297 0.000573
298 0.000558
299 0.000548
300 0.000541
301 0.000534
302 0.000533
303 0.000529
304 0.000521
305 0.000515
306 0.000515
307 0.000501
308 0.000494
309 0.000485
310 0.000478
311 0.000475
312 0.000472
313 0.000472
314 0.000469
315 0.000464
316 0.000460
317 0.000462
318 0.000458
319 0.000450
320 0.000446
321 0.000447
322 0.000440
323 0.000431
324 0.000424
325 0.000418
326 0.000411
327 0.000399
328 0.000395
329 0.000390
330 0.000389
331 0.000395
332 0.000395
333 0.000397
334 0.000397
335 0.000406
336 0.000412
337 0.000418
338 0.000416
339 0.000416
340 0.000415
341 0.000416
342 0.000418
343 0.000431
344 0.000437
345 0.000439
346 0.000436
347 0.000427
348 0.000424
349 0.000423
350 0.000417
351 0.000414
352 0.000409
353 0.000402
354 0.000389
355 0.000377
356 0.000367
357 0.000359
358 0.000352
359 0.000343
360 0.000336
361 0.000325
362 0.000320
363 0.000318
364 0.000317
365 0.000314
366 0.000314
367 0.000310
368 0.000309
369 0.000305
370 0.000303
371 0.000296
372 0.000291
373 0.000286
374 0.000283
375 0.000284
376 0.000284
377 0.000280
378 0.000281
379 0.000279
380 0.000276
381 0.000265
382 0.000257
383 0.000258
384 0.000250
385 0.000245
386 0.000242
387 0.000239
388 0.000238
389 0.000239
390 0.000236
391 0.000234
392 0.000233
393 0.000234
394 0.000232
395 0.000225
396 0.000222
397 0.000224
398 0.000225
399 0.000225
400 0.000221
401 0.000219
402 0.000216
403 0.000205
404 0.000200
405 0.000201
406 0.000201
407 0.000200
408 0.000198
409 0.000198
410 0.000203
411 0.000210
412 0.000214
413 0.000212
414 0.000210
415 0.000212
416 0.000208
417 0.000207
418 0.000204
419 0.000205
420 0.000207
421 0.000203
422 0.000198
423 0.000195
424 0.000197
425 0.000204
426 0.000215
427 0.000222
428 0.000230
429 0.000247
430 0.000261
431 0.000272
432 0.000274
433 0.000275
434 0.000276
435 0.000275
436 0.000277
437 0.000276
438 0.000274
439 0.000275
440 0.000283
441 0.000283
442 0.000282
443 0.000272
444 0.000268
445 0.000264
446 0.000268
447 0.000269
448 0.000264
449 0.000259
450 0.000264
451 0.000273
452 0.000282
453 0.000280
454 0.000277
455 0.000279
456 0.000272
457 0.000271
458 0.000268
459 0.000264
460 0.000266
461 0.000267
462 0.000261
463 0.000256
464 0.000250
465 0.000236
466 0.000232
467 0.000230
468 0.000231
469 0.000232
470 0.000236
471 0.000242
472 0.000245
473 0.000245
474 0.000244
475 0.000246
476 0.000248
477 0.000251
478 0.000249
479 0.000251
480 0.000247
481 0.000244
482 0.000243
483 0.000238
484 0.000234
485 0.000230
486 0.000226
487 0.000224
488 0.000220
489 0.000217
490 0.000216
491 0.000216
492 0.000221
493 0.000227
494 0.000232
495 0.000234
496 0.000232
497 0.000237
498 0.000243
499 0.000249
500 0.000255
501 0.000259
502 0.000264
503 0.000269
504 0.000272
505 0.000271
506 0.000262
507 0.000259
508 0.000265
509 0.000275
510 0.000287
511 0.000300
512 0.000308
513 0.000322
514 0.000332
515 0.000343
516 0.000351
517 0.000356
518 0.000361
519 0.000368
520 0.000376
521 0.000389
522 0.000400
523 0.000411
524 0.000418
525 0.000425
526 0.000424
527 0.000424
528 0.000428
529 0.000428
530 0.000431
531 0.000431
532 0.000433
533 0.000428
534 0.000428
535 0.000420
536 0.000417
537 0.000412
538 0.000411
539 0.000411
540 0.000412
541 0.000409
542 0.000410
543 0.000418
544 0.000419
545 0.000420
546 0.000420
547 0.000417
548 0.000414
549 0.000413
550 0.000411
551 0.000408
552 0.000405
553 0.000405
554 0.000408
555 0.000406
556 0.000402
557 0.000398
558 0.000392
559 0.000379
560 0.000369
561 0.000361
562 0.000352
563 0.000345
564 0.000335
565 0.000325
566 0.000313
567 0.000300
568 0.000288
569 0.000276
570 0.000270
571 0.000271
572 0.000269
573 0.000271
574 0.000273
575 0.000276
576 0.000274
577 0.000273
578 0.000270
579 0.000266
580 0.000261
581 0.000258
582 0.000254
583 0.000254
584 0.000256
585 0.000258
586 0.000257
587 0.000260
588 0.000262
589 0.000267
590 0.000269
591 0.000273
592 0.000273
593 0.000272
594 0.000269
595 0.000265
596 0.000263
597 0.000259
598 0.000256
599 0.000253
600 0.000247
601 0.000244
602 0.000244
603 0.000245
604 0.000248
605 0.000250
606 0.000257
607 0.000265
608 0.000267
609 0.000274
610 0.000279
611 0.000289
612 0.000298
613 0.000300
614 0.000300
615 0.000296
616 0.000293
617 0.000293
618 0.000292
619 0.000291
620 0.000289
621 0.000284
622 0.000281
623 0.000277
624 0.000272
625 0.000267
626 0.000265
627 0.000264
628 0.000265
629 0.000265
630 0.000267
631 0.000267
632 0.000267
633 0.000267
634 0.000273
635 0.000279
636 0.000285
637 0.000286
638 0.000287
639 0.000293
640 0.000294
641 0.000296
642 0.000298
643 0.000293
644 0.000290
645 0.000286
646 0.000275
647 0.000267
648 0.000260
649 0.000258
650 0.000254
651 0.000251
652 0.000252
653 0.000252
654 0.000250
655 0.000252
656 0.000247
657 0.000245
658 0.000243
659 0.000239
660 0.000236
661 0.000235
662 0.000235
663 0.000238
664 0.000237
665 0.000236
666 0.000236
667 0.000231
668 0.000231
669 0.000224
670 0.000217
671 0.000211
672 0.000202
673 0.000194
674 0.000189
675 0.000185
676 0.000183
677 0.000182
678 0.000177
679 0.000179
680 0.000181
681 0.000184
682 0.000187
683 0.000194
684 0.000209
685 0.000220
686 0.000229
687 0.000234
688 0.000239
689 0.000244
690 0.000246
691 0.000250
692 0.000257
693 0.000263
694 0.000268
695 0.000271
696 0.000271
697 0.000271
698 0.000266
699 0.000260
700 0.000258
701 0.000258
702 0.000263
703 0.000268
704 0.000270
705 0.000268
706 0.000265
707 0.000264
708 0.000269
709 0.000265
710 0.000262
711 0.000254
712 0.000248
713 0.000245
714 0.000246
715 0.000247
716 0.000244
717 0.000245
718 0.000246
719 0.000249
720 0.000250
721 0.000249
722 0.000251
723 0.000253
724 0.000252
725 0.000256
726 0.000260
727 0.000259
728 0.000257
729 0.000252
730 0.000248
731 0.000240
732 0.000242
733 0.000242
734 0.000239
735 0.000239
736 0.000238
737 0.000236
738 0.000233
739 0.000226
740 0.000224
741 0.000224
742 0.000227
743 0.000236
744 0.000241
745 0.000243
746 0.000245
747 0.000246
748 0.000250
749 0.000248
750 0.000245
751 0.000239
752 0.000228
753 0.000220
754 0.000211
755 0.000204
756 0.000199
757 0.000194
758 0.000187
759 0.000179
760 0.000173
761 0.000169
762 0.000165
763 0.000164
764 0.000162
765 0.000162
766 0.000165
767 0.000167
768 0.000170
769 0.000170
770 0.000170
771 0.000174
772 0.000178
773 0.000182
774 0.000185
775 0.000189
776 0.000196
777 0.000204
778 0.000207
779 0.000208
780 0.000208
781 0.000210
782 0.000217
783 0.000225
784 0.000235
785 0.000241
786 0.000246
787 0.000246
788 0.000246
789 0.000247
790 0.000247
791 0.000244
792 0.000240
793 0.000233
794 0.000228
795 0.000224
796 0.000218
797 0.000214
798 0.000210
799 0.000207
800 0.000203
801 0.000192
802 0.000182
803 0.000175
804 0.000173
805 0.000175
806 0.000175
807 0.000174
808 0.000171
809 0.000168
