# i correlation
1 0.002296
2 0.002225
3 0.002168
4 0.002118
5 0.002075
6 0.002038
7 0.002011
8 0.001983
9 0.001956
10 0.001930
11 0.001908
12 0.001898
13 0.001882
14 0.001870
15 0.001850
16 0.001834
17 0.001820
18 0.001809
19 0.001794
20 0.001791
21 0.001786
22 0.001784
23 0.001774
24 0.001755
25 0.001744
26 0.001732
27 0.001720
28 0.001696
29 0.001670
30 0.001653
31 0.001633
32 0.001608
33 0.001584
34 0.001568
35 0.001548
36 0.001526
37 0.001503
38 0.001482
39 0.001470
40 0.001451
41 0.001437
42 0.001419
43 0.001404
44 0.001394
45 0.001387
46 0.001377
47 0.001363
48 0.001355
49 0.001346
50 0.001334
51 0.001316
52 0.001300
53 0.001295
54 0.001291
55 0.001284
56 0.001269
57 0.001256
58 0.001244
59 0.001227
60 0.001207
61 0.001193
62 0.001183
63 0.001165
64 0.001144
65 0.001127
66 0.001116
67 0.001108
68 0.001102
69 0.001098
70 0.001090
71 0.001080
72 0.001078
73 0.001080
74 0.001080
75 0.001080
76 0.001078
77 0.001078
78 0.001070
79 0.001066
80 0.001069
81 0.001069
82 0.001071
83 0.001063
84 0.001054
85 0.001048
86 0.001047
87 0.001043
88 0.001033
89 0.001028
90 0.001023
91 0.001014
92 0.001010
93 0.001016
94 0.001016
95 0.001019
96 0.001016
97 0.001013
98 0.001015
99 0.001020
100 0.001030
101 0.001033
102 0.001039
103 0.001045
104 0.001048
105 0.001047
106 0.001040
107 0.001041
108 0.001037
109 0.001038
110 0.001041
111 0.001046
112 0.001053
113 0.001059
114 0.001064
115 0.001066
116 0.001068
117 0.001057
118 0.001046
119 0.001039
120 0.001039
121 0.001043
122 0.001043
123 0.001038
124 0.001027
125 0.001024
126 0.001026
127 0.001033
128 0.001041
129 0.001048
130 0.001059
131 0.001067
132 0.001071
133 0.001065
134 0.001065
135 0.001071
136 0.001075
137 0.001069
138 0.001068
139 0.001061
140 0.001057
141 0.001059
142 0.001069
143 0.001083
144 0.001086
145 0.001082
146 0.001072
147 0.001066
148 0.001070
149 0.001073
150 0.001075
151 0.001077
152 0.001081
153 0.001089
154 0.001095
155 0.001105
156 0.001111
157 0.001110
158 0.001103
159 0.001091
160 0.001087
161 0.001090
162 0.001094
163 0.001092
164 0.001086
165 0.001083
166 0.001076
167 0.001069
168 0.001057
169 0.001040
170 0.001031
171 0.001024
172 0.001012
173 0.000999
174 0.000994
175 0.000991
176 0.000990
177 0.000990
178 0.000988
179 0.000982
180 0.000974
181 0.000961
182 0.000946
183 0.000936
184 0.000922
185 0.000910
186 0.000898
187 0.000887
188 0.000879
189 0.000867
190 0.000856
191 0.000847
192 0.000840
193 0.000837
194 0.000830
195 0.000823
196 0.000816
197 0.000820
198 0.000817
199 0.000806
200 0.000801
201 0.000802
202 0.000799
203 0.000791
204 0.000775
205 0.000761
206 0.000748
207 0.000739
208 0.000732
209 0.000732
210 0.000731
211 0.000722
212 0.000716
213 0.000713
214 0.000712
215 0.000713
216 0.000713
217 0.000716
218 0.000714
219 0.000706
220 0.000698
221 0.000686
222 0.000675
223 0.000668
224 0.000669
225 0.000673
226 0.000671
227 0.000671
228 0.000663
229 0.000661
230 0.000657
231 0.000655
232 0.000658
233 0.000655
234 0.000653
235 0.000658
236 0.000663
237 0.000673
238 0.000680
239 0.000681
240 0.000683
241 0.000689
242 0.000689
243 0.000693
244 0.000696
245 0.000696
246 0.000693
247 0.000696
248 0.000695
249 0.000692
250 0.000691
251 0.000694
252 0.000697
253 0.000704
254 0.000711
255 0.000715
256 0.000716
257 0.000720
258 0.000730
259 0.000736
260 0.000737
261 0.000736
262 0.000729
263 0.000727
264 0.000721
265 0.000723
266 0.000731
267 0.000731
268 0.000730
269 0.000730
270 0.000732
271 0.000736
272 0.000743
273 0.000750
274 0.000758
275 0.000768
276 0.000775
277 0.000778
278 0.000779
279 0.000784
280 0.000785
281 0.000788
282 0.000789
283 0.000796
284 0.000800
285 0.000797
286 0.000794
287 0.000797
288 0.000799
289 0.000797
290 0.000798
291 0.000802
292 0.000808
293 0.000813
294 0.000815
295 0.000816
296 0.000819
297 0.000823
298 0.000820
299 0.000825
300 0.000824
301 0.000828
302 0.000831
303 0.000833
304 0.000841
305 0.000841
306 0.000841
307 0.000846
308 0.000849
309 0.000846
310 0.000844
311 0.000835
312 0.000827
313 0.000824
314 0.000822
315 0.000824
316 0.000827
317 0.000831
318 0.000833
319 0.000832
320 0.000830
321 0.000824
322 0.000821
323 0.000817
324 0.000818
325 0.000813
326 0.000802
327 0.000796
328 0.000791
329 0.000790
330 0.000791
331 0.000786
332 0.000777
333 0.000767
334 0.000756
335 0.000748
336 0.000740
337 0.000729
338 0.000727
339 0.000724
340 0.000723
341 0.000718
342 0.000712
343 0.000705
344 0.000700
345 0.000698
346 0.000696
347 0.000692
348 0.000688
349 0.000679
350 0.000668
351 0.000655
352 0.000645
353 0.000633
354 0.000623
355 0.000610
356 0.000603
357 0.000598
358 0.000590
359 0.000582
360 0.000572
361 0.000563
362 0.000552
363 0.000541
364 0.000530
365 0.000518
366 0.000505
367 0.000488
368 0.000475
369 0.000468
370 0.000468
371 0.000461
372 0.000458
373 0.000458
374 0.000462
375 0.000464
376 0.000464
377 0.000459
378 0.000450
379 0.000439
380 0.000428
381 0.000424
382 0.000417
383 0.000409
384 0.000399
385 0.000392
386 0.000383
387 0.000376
388 0.000370
389 0.000368
390 0.000369
391 0.000364
392 0.000361
393 0.000357
394 0.000358
395 0.000362
396 0.000366
397 0.000375
398 0.000375
399 0.000371
400 0.000368
401 0.000365
402 0.000361
403 0.000364
404 0.000367
405 0.000362
406 0.000356
407 0.000355
408 0.000354
409 0.000353
410 0.000351
411 0.000354
412 0.000361
413 0.000361
414 0.000362
415 0.000365
416 0.000363
417 0.000367
418 0.000375
419 0.000382
420 0.000389
421 0.000391
422 0.000392
423 0.000389
424 0.000392
425 0.000393
426 0.000395
427 0.000398
428 0.000399
429 0.000403
430 0.000408
431 0.000410
432 0.000409
433 0.000414
434 0.000421
435 0.000425
436 0.000433
437 0.000440
438 0.000450
439 0.000458
440 0.000463
441 0.000461
442 0.000459
443 0.000462
444 0.000460
445 0.000461
446 0.000462
447 0.000460
448 0.000459
449 0.000460
450 0.000467
451 0.000480
452 0.000493
453 0.000499
454 0.000503
455 0.000506
456 0.000506
457 0.000511
458 0.000515
459 0.000522
460 0.000526
461 0.000526
462 0.000521
463 0.000523
464 0.000518
465 0.000514
466 0.000512
467 0.000511
468 0.000510
469 0.000513
470 0.000517
471 0.000521
472 0.000527
473 0.000532
474 0.000529
475 0.000531
476 0.000530
477 0.000527
478 0.000525
479 0.000522
480 0.000525
481 0.000523
482 0.000522
483 0.000520
484 0.000521
485 0.000522
486 0.000519
487 0.000515
488 0.000509
489 0.000503
490 0.000504
491 0.000504
492 0.000506
493 0.000504
494 0.000500
495 0.000495
496 0.000491
497 0.000493
498 0.000496
499 0.000496
500 0.000488
501 0.000483
502 0.000483
503 0.000476
504 0.000475
505 0.000478
506 0.000481
507 0.000484
508 0.000486
509 0.000484
510 0.000485
511 0.000481
512 0.000485
513 0.000488
514 0.000487
515 0.000478
516 0.000469
517 0.000469
518 0.000467
519 0.000469
520 0.000470
521 0.000465
522 0.000456
523 0.000439
524 0.000425
525 0.000417
526 0.000414
527 0.000413
528 0.000410
529 0.000403
530 0.000395
531 0.000390
532 0.000389
533 0.000388
534 0.000385
535 0.000382
536 0.000376
537 0.000365
538 0.000360
539 0.000362
540 0.000368
541 0.000370
542 0.000369
543 0.000370
544 0.000366
545 0.000364
546 0.000359
547 0.000353
548 0.000348
549 0.000341
550 0.000337
551 0.000326
552 0.000320
553 0.000317
554 0.000316
555 0.000314
556 0.000311
557 0.000311
558 0.000305
559 0.000296
560 0.000284
561 0.000274
562 0.000272
563 0.000266
564 0.000256
565 0.000254
566 0.000258
567 0.000260
568 0.000261
569 0.000261
570 0.000261
571 0.000264
572 0.000266
573 0.000271
574 0.000275
575 0.000284
576 0.000287
577 0.000282
578 0.000277
579 0.000272
580 0.000269
581 0.000265
582 0.000261
583 0.000262
584 0.000268
585 0.000273
586 0.000274
587 0.000273
588 0.000276
589 0.000280
590 0.000278
591 0.000279
592 0.000278
593 0.000281
594 0.000288
595 0.000295
596 0.000296
597 0.000298
598 0.000301
599 0.000301
600 0.000303
601 0.000313
602 0.000322
603 0.000327
604 0.000325
605 0.000324
606 0.000321
607 0.000321
608 0.000323
609 0.000324
610 0.000326
611 0.000330
612 0.000337
613 0.000343
614 0.000351
615 0.000360
616 0.000368
617 0.000372
618 0.000372
619 0.000376
620 0.000380
621 0.000385
622 0.000389
623 0.000396
624 0.000404
625 0.000408
626 0.000407
627 0.000407
628 0.000412
629 0.000410
630 0.000403
631 0.000399
632 0.000396
633 0.000399
634 0.000404
635 0.000410
636 0.000413
637 0.000414
638 0.000411
639 0.000411
640 0.000409
641 0.000405
642 0.000403
643 0.000398
644 0.000391
645 0.000383
646 0.000374
647 0.000370
648 0.000371
649 0.000371
650 0.000375
651 0.000375
652 0.000371
653 0.000369
654 0.000365
655 0.000364
656 0.000360
657 0.000357
658 0.000355
659 0.000348
660 0.000342
661 0.000335
662 0.000331
663 0.000325
664 0.000318
665 0.000314
666 0.000309
667 0.000302
668 0.000296
669 0.000294
670 0.000300
671 0.000302
672 0.000298
673 0.000294
674 0.000292
675 0.000294
676 0.000296
677 0.000300
678 0.000305
679 0.000303
680 0.000296
681 0.000285
682 0.000278
683 0.000273
684 0.000266
685 0.000261
686 0.000253
687 0.000249
688 0.000247
689 0.000240
690 0.000232
691 0.000222
692 0.000216
693 0.000213
694 0.000207
695 0.000205
696 0.000207
697 0.000211
698 0.000211
699 0.000208
700 0.000206
701 0.000206
702 0.000205
703 0.000200
704 0.000196
705 0.000197
706 0.000194
707 0.000190
708 0.000184
709 0.000177
710 0.000177
711 0.000178
712 0.000173
713 0.000168
714 0.000167
715 0.000166
716 0.000164
717 0.000165
718 0.000163
719 0.000166
720 0.000169
721 0.000169
722 0.000167
723 0.000166
724 0.000167
725 0.000162
726 0.000154
727 0.000155
728 0.000159
729 0.000160
730 0.000157
731 0.000151
732 0.000148
733 0.000151
734 0.000150
735 0.000149
736 0.000153
737 0.000164
738 0.000174
739 0.000180
740 0.000186
741 0.000192
742 0.000201
743 0.000208
744 0.000213
745 0.000223
746 0.000234
747 0.000244
748 0.000248
749 0.000253
750 0.000260
751 0.000268
752 0.000275
753 0.000278
754 0.000281
755 0.000287
756 0.000292
757 0.000293
758 0.000295
759 0.000300
760 0.000303
761 0.000298
762 0.000292
763 0.000292
764 0.000296
765 0.000301
766 0.000308
767 0.000314
768 0.000318
769 0.000323
770 0.000330
771 0.000334
772 0.000340
773 0.000347
774 0.000351
775 0.000352
776 0.000353
777 0.000358
778 0.000359
779 0.000360
780 0.000355
781 0.000352
782 0.000350
783 0.000347
784 0.000342
785 0.000339
786 0.000338
787 0.000336
788 0.000334
789 0.000336
790 0.000342
791 0.000347
792 0.000350
793 0.000356
794 0.000359
795 0.000361
796 0.000363
797 0.000364
798 0.000366
799 0.000364
800 0.000363
801 0.000361
802 0.000356
803 0.000350
804 0.000343
805 0.000335
806 0.000325
807 0.000311
808 0.000298
809 0.000287
