# i correlation
1 0.001969
2 0.001908
3 0.001853
4 0.001810
5 0.001771
6 0.001739
7 0.001704
8 0.001677
9 0.001658
10 0.001643
11 0.001629
12 0.001616
13 0.001597
14 0.001581
15 0.001569
16 0.001556
17 0.001546
18 0.001539
19 0.001527
20 0.001522
21 0.001521
22 0.001523
23 0.001517
24 0.001502
25 0.001485
26 0.001472
27 0.001462
28 0.001457
29 0.001447
30 0.001440
31 0.001435
32 0.001433
33 0.001424
34 0.001414
35 0.001400
36 0.001384
37 0.001370
38 0.001367
39 0.001366
40 0.001368
41 0.001376
42 0.001375
43 0.001375
44 0.001373
45 0.001362
46 0.001345
47 0.001330
48 0.001310
49 0.001291
50 0.001270
51 0.001254
52 0.001238
53 0.001226
54 0.001217
55 0.001216
56 0.001228
57 0.001231
58 0.001236
59 0.001238
60 0.001237
61 0.001234
62 0.001231
63 0.001226
64 0.001228
65 0.001232
66 0.001231
67 0.001230
68 0.001223
69 0.001216
70 0.001206
71 0.001209
72 0.001205
73 0.001203
74 0.001197
75 0.001189
76 0.001176
77 0.001167
78 0.001151
79 0.001142
80 0.001131
81 0.001122
82 0.001116
83 0.001106
84 0.001094
85 0.001090
86 0.001084
87 0.001080
88 0.001079
89 0.001077
90 0.001074
91 0.001067
92 0.001058
93 0.001046
94 0.001035
95 0.001018
96 0.001000
97 0.000992
98 0.000988
99 0.000992
100 0.000997
101 0.000991
102 0.000990
103 0.000998
104 0.000999
105 0.000997
106 0.001003
107 0.001007
108 0.001003
109 0.000999
110 0.000988
111 0.000980
112 0.000976
113 0.000975
114 0.000967
115 0.000963
116 0.000956
117 0.000953
118 0.000950
119 0.000948
120 0.000948
121 0.000947
122 0.000947
123 0.000944
124 0.000942
125 0.000934
126 0.000928
127 0.000920
128 0.000920
129 0.000925
130 0.000936
131 0.000941
132 0.000949
133 0.000949
134 0.000950
135 0.000947
136 0.000940
137 0.000929
138 0.000929
139 0.000924
140 0.000923
141 0.000926
142 0.000923
143 0.000912
144 0.000904
145 0.000896
146 0.000891
147 0.000880
148 0.000866
149 0.000843
150 0.000821
151 0.000805
152 0.000794
153 0.000790
154 0.000786
155 0.000778
156 0.000771
157 0.000757
158 0.000746
159 0.000729
160 0.000719
161 0.000710
162 0.000705
163 0.000705
164 0.000709
165 0.000711
166 0.000704
167 0.000701
168 0.000696
169 0.000691
170 0.000683
171 0.000679
172 0.000670
173 0.000666
174 0.000667
175 0.000675
176 0.000681
177 0.000686
178 0.000685
179 0.000683
180 0.000679
181 0.000673
182 0.000665
183 0.000655
184 0.000646
185 0.000641
186 0.000639
187 0.000637
188 0.000641
189 0.000638
190 0.000630
191 0.000616
192 0.000609
193 0.000599
194 0.000590
195 0.000578
196 0.000570
197 0.000572
198 0.000577
199 0.000582
200 0.000576
201 0.000580
202 0.000583
203 0.000582
204 0.000577
205 0.000573
206 0.000570
207 0.000565
208 0.000555
209 0.000550
210 0.000547
211 0.000549
212 0.000554
213 0.000553
214 0.000550
215 0.000547
216 0.000539
217 0.000529
218 0.000515
219 0.000505
220 0.000504
221 0.000506
222 0.000508
223 0.000509
224 0.000510
225 0.000509
226 0.000509
227 0.000512
228 0.000512
229 0.000518
230 0.000518
231 0.000523
232 0.000527
233 0.000534
234 0.000540
235 0.000545
236 0.000548
237 0.000549
238 0.000551
239 0.000556
240 0.000556
241 0.000556
242 0.000556
243 0.000551
244 0.000550
245 0.000557
246 0.000565
247 0.000572
248 0.000571
249 0.000562
250 0.000554
251 0.000548
252 0.000540
253 0.000531
254 0.000528
255 0.000528
256 0.000532
257 0.000536
258 0.000535
259 0.000529
260 0.000526
261 0.000523
262 0.000527
263 0.000524
264 0.000519
265 0.000512
266 0.000509
267 0.000509
268 0.000509
269 0.000509
270 0.000521
271 0.000531
272 0.000538
273 0.000544
274 0.000543
275 0.000543
276 0.000543
277 0.000545
278 0.000549
279 0.000552
280 0.000550
281 0.000540
282 0.000532
283 0.000524
284 0.000517
285 0.000502
286 0.000485
287 0.000476
288 0.000467
289 0.000463
290 0.000458
291 0.000451
292 0.000448
293 0.000445
294 0.000442
295 0.000443
296 0.000445
297 0.000444
298 0.000440
299 0.000435
300 0.000436
301 0.000441
302 0.000444
303 0.000447
304 0.000449
305 0.000454
306 0.000458
307 0.000460
308 0.000457
309 0.000454
310 0.000450
311 0.000449
312 0.000451
313 0.000454
314 0.000456
315 0.000461
316 0.000468
317 0.000472
318 0.000483
319 0.000492
320 0.000498
321 0.000500
322 0.000505
323 0.000509
324 0.000511
325 0.000503
326 0.000491
327 0.000487
328 0.000482
329 0.000475
330 0.000468
331 0.000459
332 0.000450
333 0.000441
334 0.000434
335 0.000433
336 0.000431
337 0.000432
338 0.000434
339 0.000440
340 0.000449
341 0.000455
342 0.000456
343 0.000456
344 0.000460
345 0.000468
346 0.000475
347 0.000480
348 0.000484
349 0.000479
350 0.000479
351 0.000470
352 0.000468
353 0.000469
354 0.000468
355 0.000470
356 0.000470
357 0.000467
358 0.000461
359 0.000456
360 0.000451
361 0.000446
362 0.000445
363 0.000443
364 0.000439
365 0.000443
366 0.000445
367 0.000448
368 0.000451
369 0.000455
370 0.000461
371 0.000466
372 0.000464
373 0.000461
374 0.000456
375 0.000457
376 0.000458
377 0.000461
378 0.000466
379 0.000469
380 0.000475
381 0.000476
382 0.000482
383 0.000483
384 0.000484
385 0.000482
386 0.000485
387 0.000491
388 0.000495
389 0.000498
390 0.000498
391 0.000495
392 0.000489
393 0.000485
394 0.000482
395 0.000475
396 0.000469
397 0.000461
398 0.000454
399 0.000448
400 0.000449
401 0.000449
402 0.000450
403 0.000452
404 0.000454
405 0.000453
406 0.000453
407 0.000445
408 0.000440
409 0.000441
410 0.000443
411 0.000451
412 0.000462
413 0.000473
414 0.000489
415 0.000497
416 0.000503
417 0.000504
418 0.000502
419 0.000503
420 0.000493
421 0.000486
422 0.000478
423 0.000471
424 0.000464
425 0.000456
426 0.000454
427 0.000456
428 0.000454
429 0.000451
430 0.000446
431 0.000443
432 0.000440
433 0.000446
434 0.000450
435 0.000453
436 0.000455
437 0.000458
438 0.000462
439 0.000462
440 0.000458
441 0.000451
442 0.000446
443 0.000441
444 0.000443
445 0.000445
446 0.000445
447 0.000454
448 0.000457
449 0.000458
450 0.000459
451 0.000457
452 0.000457
453 0.000454
454 0.000455
455 0.000457
456 0.000460
457 0.000463
458 0.000466
459 0.000479
460 0.000493
461 0.000505
462 0.000514
463 0.000519
464 0.000515
465 0.000511
466 0.000502
467 0.000489
468 0.000479
469 0.000471
470 0.000463
471 0.000456
472 0.000450
473 0.000444
474 0.000444
475 0.000445
476 0.000443
477 0.000440
478 0.000443
479 0.000443
480 0.000442
481 0.000442
482 0.000445
483 0.000447
484 0.000445
485 0.000449
486 0.000455
487 0.000455
488 0.000457
489 0.000460
490 0.000458
491 0.000459
492 0.000455
493 0.000459
494 0.000466
495 0.000474
496 0.000472
497 0.000464
498 0.000454
499 0.000445
500 0.000438
501 0.000434
502 0.000430
503 0.000431
504 0.000436
505 0.000435
506 0.000439
507 0.000436
508 0.000436
509 0.000433
510 0.000427
511 0.000417
512 0.000408
513 0.000400
514 0.000393
515 0.000384
516 0.000381
517 0.000380
518 0.000385
519 0.000385
520 0.000386
521 0.000389
522 0.000392
523 0.000395
524 0.000398
525 0.000402
526 0.000407
527 0.000410
528 0.000405
529 0.000403
530 0.000398
531 0.000390
532 0.000382
533 0.000375
534 0.000375
535 0.000375
536 0.000379
537 0.000380
538 0.000380
539 0.000373
540 0.000369
541 0.000364
542 0.000364
543 0.000358
544 0.000355
545 0.000350
546 0.000350
547 0.000354
548 0.000350
549 0.000344
550 0.000341
551 0.000342
552 0.000342
553 0.000342
554 0.000341
555 0.000337
556 0.000332
557 0.000332
558 0.000331
559 0.000330
560 0.000333
561 0.000329
562 0.000327
563 0.000325
564 0.000324
565 0.000324
566 0.000323
567 0.000322
568 0.000327
569 0.000331
570 0.000330
571 0.000325
572 0.000318
573 0.000310
574 0.000307
575 0.000306
576 0.000297
577 0.000292
578 0.000289
579 0.000291
580 0.000294
581 0.000301
582 0.000306
583 0.000308
584 0.000301
585 0.000299
586 0.000299
587 0.000296
588 0.000295
589 0.000296
590 0.000290
591 0.000291
592 0.000292
593 0.000294
594 0.000295
595 0.000299
596 0.000301
597 0.000304
598 0.000307
599 0.000301
600 0.000298
601 0.000295
602 0.000294
603 0.000297
604 0.000297
605 0.000290
606 0.000278
607 0.000274
608 0.000273
609 0.000273
610 0.000269
611 0.000263
612 0.000256
613 0.000251
614 0.000245
615 0.000243
616 0.000242
617 0.000241
618 0.000239
619 0.000236
620 0.000234
621 0.000228
622 0.000218
623 0.000214
624 0.000209
625 0.000209
626 0.000205
627 0.000203
628 0.000200
629 0.000197
630 0.000192
631 0.000189
632 0.000185
633 0.000180
634 0.000174
635 0.000171
636 0.000167
637 0.000165
638 0.000164
639 0.000168
640 0.000169
641 0.000170
642 0.000170
643 0.000168
644 0.000165
645 0.000162
646 0.000161
647 0.000162
648 0.000164
649 0.000164
650 0.000168
651 0.000171
652 0.000167
653 0.000166
654 0.000163
655 0.000158
656 0.000155
657 0.000157
658 0.000153
659 0.000151
660 0.000156
661 0.000160
662 0.000165
663 0.000167
664 0.000169
665 0.000169
666 0.000171
667 0.000172
668 0.000174
669 0.000177
670 0.000178
671 0.000179
672 0.000183
673 0.000182
674 0.000182
675 0.000184
676 0.000185
677 0.000183
678 0.000179
679 0.000174
680 0.000169
681 0.000170
682 0.000167
683 0.000168
684 0.000173
685 0.000175
686 0.000175
687 0.000177
688 0.000178
689 0.000182
690 0.000188
691 0.000191
692 0.000195
693 0.000196
694 0.000198
695 0.000199
696 0.000195
697 0.000190
698 0.000191
699 0.000189
700 0.000188
701 0.000186
702 0.000187
703 0.000188
704 0.000191
705 0.000191
706 0.000191
707 0.000189
708 0.000185
709 0.000183
710 0.000180
711 0.000178
712 0.000176
713 0.000174
714 0.000170
715 0.000171
716 0.000167
717 0.000167
718 0.000164
719 0.000160
720 0.000158
721 0.000158
722 0.000161
723 0.000164
724 0.000165
725 0.000167
726 0.000166
727 0.000167
728 0.000170
729 0.000172
730 0.000173
731 0.000176
732 0.000182
733 0.000187
734 0.000190
735 0.000197
736 0.000202
737 0.000207
738 0.000209
739 0.000214
740 0.000216
741 0.000217
742 0.000220
743 0.000224
744 0.000224
745 0.000221
746 0.000220
747 0.000212
748 0.000204
749 0.000199
750 0.000195
751 0.000188
752 0.000183
753 0.000179
754 0.000176
755 0.000173
756 0.000173
757 0.000177
758 0.000178
759 0.000176
760 0.000175
761 0.000178
762 0.000176
763 0.000177
764 0.000176
765 0.000177
766 0.000179
767 0.000183
768 0.000183
769 0.000185
770 0.000182
771 0.000180
772 0.000177
773 0.000176
774 0.000173
775 0.000169
776 0.000163
777 0.000160
778 0.000159
779 0.000158
780 0.000157
781 0.000156
782 0.000152
783 0.000150
784 0.000151
785 0.000153
786 0.000151
787 0.000150
788 0.000146
789 0.000142
790 0.000137
791 0.000132
792 0.000129
793 0.000126
794 0.000123
795 0.000119
796 0.000120
797 0.000119
798 0.000118
799 0.000117
800 0.000113
801 0.000111
802 0.000112
803 0.000111
804 0.000111
805 0.000112
806 0.000114
807 0.000117
808 0.000120
809 0.000124
