# i correlation
1 0.001657
2 0.001586
3 0.001525
4 0.001474
5 0.001430
6 0.001389
7 0.001354
8 0.001329
9 0.001308
10 0.001285
11 0.001261
12 0.001242
13 0.001224
14 0.001208
15 0.001192
16 0.001180
17 0.001171
18 0.001162
19 0.001152
20 0.001140
21 0.001126
22 0.001109
23 0.001095
24 0.001086
25 0.001073
26 0.001063
27 0.001051
28 0.001037
29 0.001029
30 0.001018
31 0.001005
32 0.000990
33 0.000982
34 0.000979
35 0.000975
36 0.000976
37 0.000971
38 0.000967
39 0.000976
40 0.000981
41 0.000980
42 0.000978
43 0.000981
44 0.000980
45 0.000980
46 0.000983
47 0.000975
48 0.000968
49 0.000960
50 0.000962
51 0.000962
52 0.000962
53 0.000955
54 0.000940
55 0.000925
56 0.000917
57 0.000908
58 0.000900
59 0.000895
60 0.000897
61 0.000893
62 0.000879
63 0.000864
64 0.000851
65 0.000840
66 0.000836
67 0.000828
68 0.000824
69 0.000819
70 0.000818
71 0.000821
72 0.000820
73 0.000816
74 0.000803
75 0.000786
76 0.000777
77 0.000772
78 0.000769
79 0.000765
80 0.000766
81 0.000762
82 0.000752
83 0.000743
84 0.000731
85 0.000725
86 0.000724
87 0.000719
88 0.000708
89 0.000705
90 0.000702
91 0.000703
92 0.000706
93 0.000702
94 0.000691
95 0.000684
96 0.000680
97 0.000675
98 0.000665
99 0.000660
100 0.000660
101 0.000658
102 0.000658
103 0.000660
104 0.000660
105 0.000652
106 0.000640
107 0.000633
108 0.000623
109 0.000618
110 0.000617
111 0.000618
112 0.000620
113 0.000620
114 0.000616
115 0.000608
116 0.000603
117 0.000603
118 0.000597
119 0.000591
120 0.000588
121 0.000581
122 0.000579
123 0.000578
124 0.000581
125 0.000581
126 0.000583
127 0.000578
128 0.000580
129 0.000586
130 0.000590
131 0.000598
132 0.000609
133 0.000617
134 0.000617
135 0.000615
136 0.000618
137 0.000617
138 0.000621
139 0.000618
140 0.000622
141 0.000628
142 0.000625
143 0.000620
144 0.000612
145 0.000606
146 0.000599
147 0.000591
148 0.000587
149 0.000589
150 0.000593
151 0.000598
152 0.000601
153 0.000610
154 0.000621
155 0.000621
156 0.000620
157 0.000627
158 0.000625
159 0.000624
160 0.000622
161 0.000615
162 0.000610
163 0.000603
164 0.000590
165 0.000585
166 0.000576
167 0.000572
168 0.000567
169 0.000560
170 0.000557
171 0.000558
172 0.000559
173 0.000550
174 0.000545
175 0.000540
176 0.000543
177 0.000551
178 0.000559
179 0.000561
180 0.000570
181 0.000582
182 0.000589
183 0.000597
184 0.000602
185 0.000602
186 0.000598
187 0.000594
188 0.000595
189 0.000585
190 0.000580
191 0.000568
192 0.000559
193 0.000556
194 0.000552
195 0.000540
196 0.000527
197 0.000522
198 0.000516
199 0.000510
200 0.000504
201 0.000504
202 0.000505
203 0.000506
204 0.000499
205 0.000492
206 0.000489
207 0.000488
208 0.000485
209 0.000486
210 0.000491
211 0.000499
212 0.000506
213 0.000510
214 0.000517
215 0.000517
216 0.000513
217 0.000517
218 0.000516
219 0.000512
220 0.000509
221 0.000506
222 0.000510
223 0.000516
224 0.000526
225 0.000535
226 0.000547
227 0.000563
228 0.000581
229 0.000594
230 0.000601
231 0.000606
232 0.000608
233 0.000613
234 0.000620
235 0.000624
236 0.000623
237 0.000623
238 0.000620
239 0.000611
240 0.000607
241 0.000598
242 0.000589
243 0.000580
244 0.000570
245 0.000561
246 0.000558
247 0.000556
248 0.000555
249 0.000558
250 0.000556
251 0.000551
252 0.000543
253 0.000542
254 0.000541
255 0.000535
256 0.000531
257 0.000528
258 0.000532
259 0.000532
260 0.000529
261 0.000530
262 0.000530
263 0.000527
264 0.000528
265 0.000522
266 0.000514
267 0.000513
268 0.000510
269 0.000504
270 0.000503
271 0.000505
272 0.000511
273 0.000517
274 0.000530
275 0.000537
276 0.000541
277 0.000545
278 0.000543
279 0.000544
280 0.000549
281 0.000548
282 0.000545
283 0.000543
284 0.000538
285 0.000534
286 0.000529
287 0.000523
288 0.000521
289 0.000518
290 0.000515
291 0.000512
292 0.000502
293 0.000491
294 0.000488
295 0.000488
296 0.000484
297 0.000489
298 0.000492
299 0.000489
300 0.000487
301 0.000483
302 0.000482
303 0.000482
304 0.000479
305 0.000472
306 0.000471
307 0.000474
308 0.000475
309 0.000470
310 0.000464
311 0.000461
312 0.000464
313 0.000467
314 0.000475
315 0.000476
316 0.000477
317 0.000478
318 0.000474
319 0.000473
320 0.000466
321 0.000458
322 0.000458
323 0.000454
324 0.000454
325 0.000453
326 0.000456
327 0.000461
328 0.000464
329 0.000464
330 0.000465
331 0.000473
332 0.000473
333 0.000470
334 0.000470
335 0.000472
336 0.000469
337 0.000469
338 0.000466
339 0.000461
340 0.000456
341 0.000452
342 0.000450
343 0.000456
344 0.000453
345 0.000448
346 0.000441
347 0.000434
348 0.000432
349 0.000430
350 0.000434
351 0.000439
352 0.000441
353 0.000446
354 0.000446
355 0.000449
356 0.000442
357 0.000434
358 0.000426
359 0.000421
360 0.000424
361 0.000424
362 0.000425
363 0.000427
364 0.000430
365 0.000430
366 0.000429
367 0.000429
368 0.000435
369 0.000442
370 0.000446
371 0.000447
372 0.000445
373 0.000442
374 0.000440
375 0.000438
376 0.000432
377 0.000433
378 0.000444
379 0.000456
380 0.000467
381 0.000472
382 0.000474
383 0.000473
384 0.000471
385 0.000468
386 0.000459
387 0.000455
388 0.000448
389 0.000446
390 0.000439
391 0.000440
392 0.000435
393 0.000424
394 0.000419
395 0.000417
396 0.000415
397 0.000419
398 0.000419
399 0.000416
400 0.000411
401 0.000403
402 0.000398
403 0.000394
404 0.000390
405 0.000389
406 0.000385
407 0.000388
408 0.000392
409 0.000391
410 0.000384
411 0.000380
412 0.000377
413 0.000375
414 0.000377
415 0.000382
416 0.000387
417 0.000388
418 0.000390
419 0.000391
420 0.000397
421 0.000407
422 0.000408
423 0.000410
424 0.000410
425 0.000406
426 0.000405
427 0.000399
428 0.000392
429 0.000383
430 0.000377
431 0.000373
432 0.000366
433 0.000355
434 0.000345
435 0.000340
436 0.000337
437 0.000338
438 0.000339
439 0.000339
440 0.000344
441 0.000353
442 0.000363
443 0.000366
444 0.000364
445 0.000362
446 0.000355
447 0.000350
448 0.000350
449 0.000340
450 0.000330
451 0.000325
452 0.000316
453 0.000303
454 0.000289
455 0.000286
456 0.000281
457 0.000282
458 0.000278
459 0.000272
460 0.000273
461 0.000276
462 0.000281
463 0.000286
464 0.000291
465 0.000303
466 0.000310
467 0.000316
468 0.000318
469 0.000318
470 0.000313
471 0.000308
472 0.000303
473 0.000299
474 0.000297
475 0.000296
476 0.000298
477 0.000297
478 0.000292
479 0.000286
480 0.000278
481 0.000273
482 0.000270
483 0.000264
484 0.000262
485 0.000262
486 0.000262
487 0.000260
488 0.000260
489 0.000259
490 0.000252
491 0.000252
492 0.000249
493 0.000243
494 0.000242
495 0.000238
496 0.000238
497 0.000236
498 0.000232
499 0.000225
500 0.000226
501 0.000233
502 0.000236
503 0.000234
504 0.000228
505 0.000221
506 0.000214
507 0.000209
508 0.000212
509 0.000219
510 0.000227
511 0.000235
512 0.000239
513 0.000242
514 0.000245
515 0.000251
516 0.000251
517 0.000249
518 0.000247
519 0.000245
520 0.000245
521 0.000248
522 0.000246
523 0.000247
524 0.000247
525 0.000247
526 0.000239
527 0.000234
528 0.000229
529 0.000226
530 0.000216
531 0.000208
532 0.000205
533 0.000203
534 0.000202
535 0.000199
536 0.000199
537 0.000203
538 0.000210
539 0.000211
540 0.000213
541 0.000215
542 0.000211
543 0.000205
544 0.000199
545 0.000195
546 0.000194
547 0.000192
548 0.000194
549 0.000192
550 0.000185
551 0.000177
552 0.000174
553 0.000173
554 0.000175
555 0.000172
556 0.000172
557 0.000170
558 0.000169
559 0.000166
560 0.000160
561 0.000154
562 0.000151
563 0.000150
564 0.000146
565 0.000144
566 0.000140
567 0.000137
568 0.000134
569 0.000132
570 0.000124
571 0.000119
572 0.000113
573 0.000109
574 0.000109
575 0.000112
576 0.000115
577 0.000123
578 0.000127
579 0.000132
580 0.000141
581 0.000147
582 0.000152
583 0.000154
584 0.000154
585 0.000151
586 0.000145
587 0.000137
588 0.000133
589 0.000131
590 0.000121
591 0.000113
592 0.000106
593 0.000102
594 0.000099
595 0.000097
596 0.000096
597 0.000100
598 0.000104
599 0.000107
600 0.000107
601 0.000106
602 0.000106
603 0.000102
604 0.000100
605 0.000101
606 0.000107
607 0.000114
608 0.000117
609 0.000118
610 0.000120
611 0.000121
612 0.000116
613 0.000113
614 0.000115
615 0.000119
616 0.000118
617 0.000112
618 0.000107
619 0.000107
620 0.000103
621 0.000093
622 0.000082
623 0.000072
624 0.000067
625 0.000070
626 0.000074
627 0.000081
628 0.000086
629 0.000091
630 0.000096
631 0.000098
632 0.000097
633 0.000096
634 0.000092
635 0.000087
636 0.000082
637 0.000080
638 0.000081
639 0.000083
640 0.000084
641 0.000085
642 0.000087
643 0.000088
644 0.000088
645 0.000096
646 0.000104
647 0.000106
648 0.000106
649 0.000112
650 0.000122
651 0.000133
652 0.000138
653 0.000142
654 0.000145
655 0.000153
656 0.000160
657 0.000169
658 0.000178
659 0.000190
660 0.000198
661 0.000201
662 0.000200
663 0.000198
664 0.000194
665 0.000190
666 0.000192
667 0.000196
668 0.000200
669 0.000206
670 0.000209
671 0.000210
672 0.000211
673 0.000206
674 0.000202
675 0.000198
676 0.000195
677 0.000195
678 0.000199
679 0.000206
680 0.000212
681 0.000217
682 0.000217
683 0.000214
684 0.000208
685 0.000204
686 0.000205
687 0.000202
688 0.000203
689 0.000203
690 0.000198
691 0.000198
692 0.000201
693 0.000203
694 0.000205
695 0.000207
696 0.000210
697 0.000215
698 0.000220
699 0.000225
700 0.000230
701 0.000236
702 0.000240
703 0.000246
704 0.000247
705 0.000250
706 0.000253
707 0.000252
708 0.000246
709 0.000242
710 0.000242
711 0.000245
712 0.000245
713 0.000242
714 0.000233
715 0.000224
716 0.000215
717 0.000209
718 0.000207
719 0.000205
720 0.000202
721 0.000197
722 0.000195
723 0.000192
724 0.000189
725 0.000181
726 0.000177
727 0.000168
728 0.000161
729 0.000156
730 0.000150
731 0.000147
732 0.000146
733 0.000141
734 0.000135
735 0.000133
736 0.000128
737 0.000127
738 0.000129
739 0.000135
740 0.000142
741 0.000142
742 0.000144
743 0.000146
744 0.000144
745 0.000137
746 0.000130
747 0.000125
748 0.000120
749 0.000119
750 0.000121
751 0.000127
752 0.000134
753 0.000136
754 0.000134
755 0.000133
756 0.000130
757 0.000126
758 0.000124
759 0.000126
760 0.000129
761 0.000130
762 0.000131
763 0.000133
764 0.000136
765 0.000138
766 0.000137
767 0.000134
768 0.000133
769 0.000133
770 0.000136
771 0.000136
772 0.000138
773 0.000136
774 0.000130
775 0.000122
776 0.000114
777 0.000106
778 0.000101
779 0.000097
780 0.000091
781 0.000086
782 0.000083
783 0.000082
784 0.000079
785 0.000078
786 0.000074
787 0.000071
788 0.000069
789 0.000064
790 0.000060
791 0.000061
792 0.000063
793 0.000063
794 0.000061
795 0.000059
796 0.000060
797 0.000058
798 0.000054
799 0.000053
800 0.000053
801 0.000052
802 0.000048
803 0.000045
804 0.000042
805 0.000041
806 0.000035
807 0.000027
808 0.000022
809 0.000019
