# i correlation
1 0.001497
2 0.001429
3 0.001375
4 0.001321
5 0.001275
6 0.001238
7 0.001207
8 0.001191
9 0.001168
10 0.001149
11 0.001136
12 0.001117
13 0.001105
14 0.001092
15 0.001075
16 0.001068
17 0.001052
18 0.001032
19 0.001019
20 0.001010
21 0.001000
22 0.000993
23 0.000984
24 0.000973
25 0.000958
26 0.000949
27 0.000938
28 0.000928
29 0.000917
30 0.000903
31 0.000897
32 0.000897
33 0.000904
34 0.000902
35 0.000902
36 0.000902
37 0.000908
38 0.000901
39 0.000889
40 0.000877
41 0.000869
42 0.000862
43 0.000855
44 0.000847
45 0.000845
46 0.000850
47 0.000849
48 0.000851
49 0.000854
50 0.000851
51 0.000850
52 0.000846
53 0.000845
54 0.000847
55 0.000840
56 0.000830
57 0.000824
58 0.000818
59 0.000819
60 0.000817
61 0.000814
62 0.000812
63 0.000819
64 0.000815
65 0.000814
66 0.000810
67 0.000797
68 0.000779
69 0.000762
70 0.000746
71 0.000737
72 0.000734
73 0.000734
74 0.000735
75 0.000739
76 0.000741
77 0.000737
78 0.000737
79 0.000733
80 0.000727
81 0.000726
82 0.000718
83 0.000704
84 0.000695
85 0.000686
86 0.000679
87 0.000677
88 0.000673
89 0.000680
90 0.000680
91 0.000670
92 0.000669
93 0.000661
94 0.000652
95 0.000644
96 0.000636
97 0.000632
98 0.000629
99 0.000619
100 0.000621
101 0.000619
102 0.000611
103 0.000604
104 0.000593
105 0.000584
106 0.000571
107 0.000557
108 0.000549
109 0.000543
110 0.000539
111 0.000537
112 0.000532
113 0.000532
114 0.000533
115 0.000528
116 0.000527
117 0.000532
118 0.000537
119 0.000537
120 0.000537
121 0.000540
122 0.000546
123 0.000547
124 0.000541
125 0.000534
126 0.000531
127 0.000532
128 0.000529
129 0.000528
130 0.000531
131 0.000533
132 0.000539
133 0.000538
134 0.000535
135 0.000533
136 0.000526
137 0.000515
138 0.000510
139 0.000506
140 0.000507
141 0.000509
142 0.000516
143 0.000528
144 0.000525
145 0.000518
146 0.000512
147 0.000499
148 0.000486
149 0.000478
150 0.000465
151 0.000456
152 0.000450
153 0.000451
154 0.000450
155 0.000448
156 0.000454
157 0.000456
158 0.000451
159 0.000446
160 0.000443
161 0.000433
162 0.000423
163 0.000419
164 0.000417
165 0.000417
166 0.000416
167 0.000413
168 0.000416
169 0.000418
170 0.000421
171 0.000423
172 0.000421
173 0.000419
174 0.000415
175 0.000408
176 0.000407
177 0.000406
178 0.000402
179 0.000401
180 0.000401
181 0.000400
182 0.000408
183 0.000409
184 0.000401
185 0.000398
186 0.000398
187 0.000394
188 0.000386
189 0.000385
190 0.000389
191 0.000385
192 0.000387
193 0.000393
194 0.000392
195 0.000391
196 0.000386
197 0.000384
198 0.000382
199 0.000379
200 0.000374
201 0.000365
202 0.000358
203 0.000360
204 0.000351
205 0.000343
206 0.000342
207 0.000335
208 0.000328
209 0.000330
210 0.000328
211 0.000328
212 0.000326
213 0.000322
214 0.000319
215 0.000319
216 0.000322
217 0.000329
218 0.000334
219 0.000345
220 0.000348
221 0.000346
222 0.000343
223 0.000340
224 0.000338
225 0.000336
226 0.000327
227 0.000314
228 0.000297
229 0.000283
230 0.000266
231 0.000262
232 0.000263
233 0.000266
234 0.000269
235 0.000275
236 0.000275
237 0.000268
238 0.000259
239 0.000250
240 0.000244
241 0.000238
242 0.000232
243 0.000227
244 0.000218
245 0.000213
246 0.000211
247 0.000209
248 0.000211
249 0.000212
250 0.000210
251 0.000204
252 0.000197
253 0.000193
254 0.000193
255 0.000190
256 0.000187
257 0.000187
258 0.000195
259 0.000199
260 0.000206
261 0.000212
262 0.000208
263 0.000203
264 0.000202
265 0.000197
266 0.000202
267 0.000197
268 0.000192
269 0.000194
270 0.000192
271 0.000191
272 0.000197
273 0.000196
274 0.000200
275 0.000209
276 0.000209
277 0.000209
278 0.000206
279 0.000198
280 0.000196
281 0.000190
282 0.000194
283 0.000204
284 0.000218
285 0.000231
286 0.000243
287 0.000247
288 0.000251
289 0.000256
290 0.000264
291 0.000268
292 0.000275
293 0.000282
294 0.000286
295 0.000286
296 0.000282
297 0.000278
298 0.000276
299 0.000277
300 0.000281
301 0.000280
302 0.000276
303 0.000269
304 0.000256
305 0.000241
306 0.000233
307 0.000228
308 0.000228
309 0.000229
310 0.000231
311 0.000231
312 0.000232
313 0.000233
314 0.000234
315 0.000231
316 0.000223
317 0.000218
318 0.000206
319 0.000195
320 0.000187
321 0.000182
322 0.000178
323 0.000183
324 0.000189
325 0.000194
326 0.000200
327 0.000206
328 0.000205
329 0.000201
330 0.000196
331 0.000190
332 0.000185
333 0.000182
334 0.000176
335 0.000179
336 0.000183
337 0.000186
338 0.000190
339 0.000200
340 0.000203
341 0.000203
342 0.000202
343 0.000206
344 0.000210
345 0.000212
346 0.000221
347 0.000231
348 0.000242
349 0.000251
350 0.000257
351 0.000262
352 0.000263
353 0.000266
354 0.000264
355 0.000261
356 0.000268
357 0.000271
358 0.000275
359 0.000283
360 0.000288
361 0.000287
362 0.000289
363 0.000287
364 0.000286
365 0.000282
366 0.000276
367 0.000269
368 0.000266
369 0.000262
370 0.000257
371 0.000247
372 0.000246
373 0.000246
374 0.000248
375 0.000250
376 0.000252
377 0.000255
378 0.000256
379 0.000254
380 0.000254
381 0.000256
382 0.000265
383 0.000270
384 0.000272
385 0.000274
386 0.000280
387 0.000278
388 0.000281
389 0.000288
390 0.000294
391 0.000296
392 0.000300
393 0.000308
394 0.000308
395 0.000303
396 0.000304
397 0.000303
398 0.000302
399 0.000298
400 0.000294
401 0.000291
402 0.000292
403 0.000292
404 0.000291
405 0.000291
406 0.000294
407 0.000299
408 0.000299
409 0.000295
410 0.000295
411 0.000295
412 0.000297
413 0.000301
414 0.000310
415 0.000315
416 0.000313
417 0.000307
418 0.000306
419 0.000305
420 0.000297
421 0.000286
422 0.000284
423 0.000282
424 0.000277
425 0.000276
426 0.000280
427 0.000280
428 0.000285
429 0.000292
430 0.000295
431 0.000296
432 0.000293
433 0.000283
434 0.000279
435 0.000279
436 0.000276
437 0.000278
438 0.000281
439 0.000280
440 0.000287
441 0.000294
442 0.000298
443 0.000305
444 0.000307
445 0.000308
446 0.000308
447 0.000307
448 0.000308
449 0.000311
450 0.000306
451 0.000305
452 0.000299
453 0.000293
454 0.000291
455 0.000282
456 0.000276
457 0.000278
458 0.000277
459 0.000281
460 0.000286
461 0.000292
462 0.000296
463 0.000299
464 0.000299
465 0.000298
466 0.000298
467 0.000303
468 0.000306
469 0.000307
470 0.000308
471 0.000308
472 0.000305
473 0.000304
474 0.000300
475 0.000294
476 0.000291
477 0.000291
478 0.000294
479 0.000293
480 0.000296
481 0.000299
482 0.000304
483 0.000309
484 0.000311
485 0.000310
486 0.000310
487 0.000306
488 0.000300
489 0.000297
490 0.000295
491 0.000295
492 0.000296
493 0.000297
494 0.000297
495 0.000306
496 0.000313
497 0.000316
498 0.000309
499 0.000302
500 0.000297
501 0.000291
502 0.000283
503 0.000281
504 0.000279
505 0.000272
506 0.000267
507 0.000264
508 0.000265
509 0.000266
510 0.000267
511 0.000266
512 0.000266
513 0.000265
514 0.000259
515 0.000258
516 0.000260
517 0.000264
518 0.000266
519 0.000272
520 0.000276
521 0.000278
522 0.000278
523 0.000278
524 0.000280
525 0.000278
526 0.000279
527 0.000277
528 0.000275
529 0.000274
530 0.000277
531 0.000278
532 0.000286
533 0.000297
534 0.000305
535 0.000310
536 0.000316
537 0.000316
538 0.000314
539 0.000307
540 0.000298
541 0.000296
542 0.000288
543 0.000287
544 0.000288
545 0.000287
546 0.000294
547 0.000296
548 0.000296
549 0.000302
550 0.000307
551 0.000306
552 0.000307
553 0.000298
554 0.000295
555 0.000289
556 0.000281
557 0.000275
558 0.000273
559 0.000274
560 0.000279
561 0.000284
562 0.000290
563 0.000292
564 0.000290
565 0.000287
566 0.000280
567 0.000275
568 0.000273
569 0.000274
570 0.000277
571 0.000284
572 0.000291
573 0.000294
574 0.000293
575 0.000295
576 0.000296
577 0.000292
578 0.000291
579 0.000289
580 0.000289
581 0.000292
582 0.000295
583 0.000303
584 0.000315
585 0.000325
586 0.000334
587 0.000343
588 0.000347
589 0.000355
590 0.000351
591 0.000343
592 0.000342
593 0.000339
594 0.000333
595 0.000326
596 0.000322
597 0.000321
598 0.000318
599 0.000317
600 0.000320
601 0.000321
602 0.000315
603 0.000310
604 0.000302
605 0.000299
606 0.000295
607 0.000293
608 0.000292
609 0.000295
610 0.000292
611 0.000288
612 0.000291
613 0.000297
614 0.000300
615 0.000295
616 0.000284
617 0.000278
618 0.000268
619 0.000258
620 0.000248
621 0.000239
622 0.000231
623 0.000228
624 0.000221
625 0.000220
626 0.000219
627 0.000220
628 0.000217
629 0.000215
630 0.000213
631 0.000208
632 0.000201
633 0.000198
634 0.000201
635 0.000206
636 0.000209
637 0.000206
638 0.000205
639 0.000207
640 0.000208
641 0.000211
642 0.000211
643 0.000213
644 0.000217
645 0.000214
646 0.000220
647 0.000227
648 0.000228
649 0.000232
650 0.000238
651 0.000240
652 0.000242
653 0.000234
654 0.000226
655 0.000219
656 0.000214
657 0.000210
658 0.000206
659 0.000200
660 0.000201
661 0.000199
662 0.000202
663 0.000206
664 0.000205
665 0.000206
666 0.000211
667 0.000216
668 0.000221
669 0.000220
670 0.000215
671 0.000207
672 0.000199
673 0.000195
674 0.000189
675 0.000182
676 0.000179
677 0.000174
678 0.000172
679 0.000172
680 0.000169
681 0.000162
682 0.000156
683 0.000153
684 0.000153
685 0.000150
686 0.000149
687 0.000147
688 0.000146
689 0.000150
690 0.000153
691 0.000149
692 0.000150
693 0.000152
694 0.000156
695 0.000159
696 0.000158
697 0.000157
698 0.000157
699 0.000156
700 0.000154
701 0.000153
702 0.000150
703 0.000150
704 0.000148
705 0.000150
706 0.000157
707 0.000162
708 0.000164
709 0.000165
710 0.000166
711 0.000164
712 0.000166
713 0.000167
714 0.000168
715 0.000172
716 0.000178
717 0.000181
718 0.000176
719 0.000169
720 0.000162
721 0.000161
722 0.000164
723 0.000165
724 0.000166
725 0.000170
726 0.000171
727 0.000173
728 0.000176
729 0.000178
730 0.000183
731 0.000190
732 0.000198
733 0.000203
734 0.000205
735 0.000208
736 0.000211
737 0.000209
738 0.000206
739 0.000206
740 0.000203
741 0.000203
742 0.000200
743 0.000201
744 0.000206
745 0.000208
746 0.000208
747 0.000206
748 0.000201
749 0.000199
750 0.000197
751 0.000193
752 0.000193
753 0.000194
754 0.000194
755 0.000198
756 0.000195
757 0.000197
758 0.000199
759 0.000198
760 0.000195
761 0.000194
762 0.000194
763 0.000192
764 0.000184
765 0.000176
766 0.000169
767 0.000167
768 0.000166
769 0.000168
770 0.000174
771 0.000181
772 0.000185
773 0.000188
774 0.000189
775 0.000191
776 0.000192
777 0.000188
778 0.000187
779 0.000187
780 0.000182
781 0.000176
782 0.000173
783 0.000167
784 0.000164
785 0.000161
786 0.000161
787 0.000163
788 0.000163
789 0.000165
790 0.000170
791 0.000169
792 0.000170
793 0.000171
794 0.000171
795 0.000173
796 0.000170
797 0.000167
798 0.000166
799 0.000163
800 0.000158
801 0.000151
802 0.000141
803 0.000135
804 0.000129
805 0.000124
806 0.000121
807 0.000118
808 0.000119
809 0.000119
