# i correlation
1 0.001485
2 0.001437
3 0.001398
4 0.001358
5 0.001322
6 0.001292
7 0.001261
8 0.001233
9 0.001207
10 0.001182
11 0.001160
12 0.001138
13 0.001116
14 0.001101
15 0.001083
16 0.001063
17 0.001050
18 0.001041
19 0.001032
20 0.001019
21 0.001004
22 0.000994
23 0.000986
24 0.000980
25 0.000977
26 0.000979
27 0.000975
28 0.000979
29 0.000986
30 0.000990
31 0.000995
32 0.000999
33 0.000999
34 0.001003
35 0.001003
36 0.001003
37 0.001008
38 0.001005
39 0.001001
40 0.000994
41 0.000990
42 0.000980
43 0.000972
44 0.000959
45 0.000945
46 0.000931
47 0.000920
48 0.000910
49 0.000907
50 0.000903
51 0.000901
52 0.000893
53 0.000883
54 0.000873
55 0.000869
56 0.000862
57 0.000852
58 0.000842
59 0.000834
60 0.000828
61 0.000821
62 0.000820
63 0.000820
64 0.000823
65 0.000825
66 0.000827
67 0.000827
68 0.000824
69 0.000833
70 0.000840
71 0.000846
72 0.000852
73 0.000857
74 0.000855
75 0.000849
76 0.000841
77 0.000832
78 0.000822
79 0.000816
80 0.000811
81 0.000809
82 0.000811
83 0.000808
84 0.000803
85 0.000800
86 0.000796
87 0.000790
88 0.000785
89 0.000772
90 0.000761
91 0.000747
92 0.000739
93 0.000734
94 0.000732
95 0.000728
96 0.000721
97 0.000721
98 0.000721
99 0.000724
100 0.000727
101 0.000733
102 0.000740
103 0.000743
104 0.000743
105 0.000741
106 0.000743
107 0.000746
108 0.000749
109 0.000745
110 0.000748
111 0.000748
112 0.000748
113 0.000752
114 0.000752
115 0.000749
116 0.000752
117 0.000750
118 0.000748
119 0.000749
120 0.000744
121 0.000739
122 0.000733
123 0.000723
124 0.000716
125 0.000710
126 0.000710
127 0.000707
128 0.000697
129 0.000690
130 0.000679
131 0.000667
132 0.000658
133 0.000646
134 0.000641
135 0.000640
136 0.000639
137 0.000638
138 0.000635
139 0.000635
140 0.000628
141 0.000623
142 0.000618
143 0.000617
144 0.000621
145 0.000627
146 0.000629
147 0.000632
148 0.000634
149 0.000631
150 0.000629
151 0.000630
152 0.000631
153 0.000634
154 0.000643
155 0.000652
156 0.000654
157 0.000659
158 0.000657
159 0.000660
160 0.000657
161 0.000657
162 0.000656
163 0.000654
164 0.000650
165 0.000645
166 0.000640
167 0.000636
168 0.000631
169 0.000625
170 0.000612
171 0.000604
172 0.000599
173 0.000598
174 0.000600
175 0.000603
176 0.000605
177 0.000599
178 0.000590
179 0.000580
180 0.000571
181 0.000563
182 0.000560
183 0.000550
184 0.000544
185 0.000545
186 0.000548
187 0.000548
188 0.000549
189 0.000553
190 0.000553
191 0.000554
192 0.000555
193 0.000552
194 0.000548
195 0.000544
196 0.000540
197 0.000532
198 0.000523
199 0.000517
200 0.000521
201 0.000524
202 0.000522
203 0.000527
204 0.000536
205 0.000546
206 0.000557
207 0.000564
208 0.000574
209 0.000580
210 0.000584
211 0.000590
212 0.000596
213 0.000599
214 0.000599
215 0.000601
216 0.000602
217 0.000596
218 0.000595
219 0.000593
220 0.000584
221 0.000576
222 0.000564
223 0.000552
224 0.000541
225 0.000530
226 0.000528
227 0.000527
228 0.000521
229 0.000516
230 0.000515
231 0.000515
232 0.000509
233 0.000502
234 0.000493
235 0.000482
236 0.000475
237 0.000468
238 0.000464
239 0.000461
240 0.000456
241 0.000450
242 0.000449
243 0.000447
244 0.000440
245 0.000440
246 0.000443
247 0.000445
248 0.000443
249 0.000446
250 0.000445
251 0.000445
252 0.000439
253 0.000433
254 0.000429
255 0.000427
256 0.000426
257 0.000427
258 0.000429
259 0.000429
260 0.000425
261 0.000429
262 0.000432
263 0.000435
264 0.000442
265 0.000451
266 0.000454
267 0.000452
268 0.000451
269 0.000451
270 0.000455
271 0.000459
272 0.000461
273 0.000465
274 0.000470
275 0.000478
276 0.000481
277 0.000487
278 0.000490
279 0.000490
280 0.000490
281 0.000492
282 0.000490
283 0.000489
284 0.000483
285 0.000471
286 0.000463
287 0.000457
288 0.000452
289 0.000450
290 0.000448
291 0.000444
292 0.000447
293 0.000446
294 0.000446
295 0.000445
296 0.000439
297 0.000430
298 0.000428
299 0.000424
300 0.000420
301 0.000423
302 0.000423
303 0.000426
304 0.000426
305 0.000423
306 0.000422
307 0.000420
308 0.000420
309 0.000418
310 0.000417
311 0.000414
312 0.000418
313 0.000423
314 0.000428
315 0.000430
316 0.000434
317 0.000434
318 0.000437
319 0.000437
320 0.000440
321 0.000443
322 0.000446
323 0.000442
324 0.000442
325 0.000438
326 0.000431
327 0.000434
328 0.000436
329 0.000439
330 0.000441
331 0.000444
332 0.000449
333 0.000452
334 0.000453
335 0.000459
336 0.000465
337 0.000470
338 0.000473
339 0.000474
340 0.000480
341 0.000483
342 0.000482
343 0.000481
344 0.000482
345 0.000484
346 0.000478
347 0.000473
348 0.000472
349 0.000468
350 0.000469
351 0.000469
352 0.000462
353 0.000459
354 0.000453
355 0.000441
356 0.000431
357 0.000420
358 0.000413
359 0.000408
360 0.000401
361 0.000397
362 0.000390
363 0.000389
364 0.000387
365 0.000388
366 0.000388
367 0.000385
368 0.000386
369 0.000387
370 0.000390
371 0.000390
372 0.000388
373 0.000390
374 0.000392
375 0.000398
376 0.000401
377 0.000408
378 0.000412
379 0.000416
380 0.000420
381 0.000424
382 0.000424
383 0.000423
384 0.000424
385 0.000422
386 0.000418
387 0.000416
388 0.000407
389 0.000392
390 0.000382
391 0.000373
392 0.000368
393 0.000365
394 0.000361
395 0.000356
396 0.000349
397 0.000339
398 0.000328
399 0.000316
400 0.000311
401 0.000310
402 0.000310
403 0.000304
404 0.000298
405 0.000293
406 0.000291
407 0.000288
408 0.000285
409 0.000281
410 0.000280
411 0.000275
412 0.000273
413 0.000271
414 0.000267
415 0.000263
416 0.000265
417 0.000267
418 0.000270
419 0.000275
420 0.000283
421 0.000289
422 0.000295
423 0.000298
424 0.000300
425 0.000301
426 0.000304
427 0.000306
428 0.000304
429 0.000300
430 0.000297
431 0.000295
432 0.000293
433 0.000287
434 0.000281
435 0.000279
436 0.000276
437 0.000275
438 0.000280
439 0.000285
440 0.000287
441 0.000287
442 0.000285
443 0.000282
444 0.000279
445 0.000272
446 0.000266
447 0.000259
448 0.000252
449 0.000241
450 0.000234
451 0.000232
452 0.000229
453 0.000222
454 0.000214
455 0.000211
456 0.000204
457 0.000209
458 0.000215
459 0.000218
460 0.000217
461 0.000218
462 0.000215
463 0.000210
464 0.000206
465 0.000204
466 0.000203
467 0.000209
468 0.000209
469 0.000210
470 0.000211
471 0.000207
472 0.000205
473 0.000203
474 0.000199
475 0.000197
476 0.000196
477 0.000199
478 0.000201
479 0.000205
480 0.000208
481 0.000214
482 0.000214
483 0.000219
484 0.000219
485 0.000216
486 0.000215
487 0.000217
488 0.000217
489 0.000222
490 0.000226
491 0.000227
492 0.000232
493 0.000234
494 0.000237
495 0.000243
496 0.000251
497 0.000253
498 0.000255
499 0.000251
500 0.000247
501 0.000243
502 0.000239
503 0.000233
504 0.000233
505 0.000232
506 0.000229
507 0.000225
508 0.000225
509 0.000223
510 0.000222
511 0.000220
512 0.000216
513 0.000213
514 0.000211
515 0.000207
516 0.000202
517 0.000198
518 0.000194
519 0.000188
520 0.000187
521 0.000186
522 0.000187
523 0.000188
524 0.000189
525 0.000190
526 0.000186
527 0.000186
528 0.000185
529 0.000182
530 0.000180
531 0.000175
532 0.000174
533 0.000174
534 0.000173
535 0.000168
536 0.000166
537 0.000163
538 0.000160
539 0.000158
540 0.000158
541 0.000158
542 0.000159
543 0.000162
544 0.000158
545 0.000161
546 0.000162
547 0.000163
548 0.000166
549 0.000167
550 0.000162
551 0.000164
552 0.000166
553 0.000169
554 0.000173
555 0.000177
556 0.000185
557 0.000190
558 0.000192
559 0.000196
560 0.000197
561 0.000199
562 0.000199
563 0.000194
564 0.000188
565 0.000182
566 0.000180
567 0.000177
568 0.000171
569 0.000167
570 0.000164
571 0.000160
572 0.000152
573 0.000146
574 0.000142
575 0.000140
576 0.000136
577 0.000137
578 0.000137
579 0.000138
580 0.000138
581 0.000139
582 0.000138
583 0.000137
584 0.000136
585 0.000137
586 0.000138
587 0.000142
588 0.000145
589 0.000150
590 0.000151
591 0.000157
592 0.000162
593 0.000168
594 0.000175
595 0.000180
596 0.000187
597 0.000192
598 0.000194
599 0.000198
600 0.000199
601 0.000195
602 0.000192
603 0.000191
604 0.000184
605 0.000180
606 0.000180
607 0.000180
608 0.000180
609 0.000179
610 0.000175
611 0.000169
612 0.000164
613 0.000159
614 0.000156
615 0.000150
616 0.000148
617 0.000147
618 0.000147
619 0.000144
620 0.000143
621 0.000140
622 0.000139
623 0.000137
624 0.000138
625 0.000137
626 0.000138
627 0.000142
628 0.000149
629 0.000156
630 0.000163
631 0.000168
632 0.000173
633 0.000178
634 0.000183
635 0.000188
636 0.000192
637 0.000188
638 0.000187
639 0.000183
640 0.000178
641 0.000172
642 0.000165
643 0.000163
644 0.000163
645 0.000158
646 0.000159
647 0.000158
648 0.000154
649 0.000152
650 0.000148
651 0.000146
652 0.000144
653 0.000145
654 0.000142
655 0.000138
656 0.000134
657 0.000134
658 0.000136
659 0.000140
660 0.000141
661 0.000146
662 0.000148
663 0.000152
664 0.000155
665 0.000159
666 0.000157
667 0.000160
668 0.000164
669 0.000170
670 0.000173
671 0.000174
672 0.000177
673 0.000180
674 0.000183
675 0.000187
676 0.000187
677 0.000186
678 0.000185
679 0.000185
680 0.000184
681 0.000183
682 0.000185
683 0.000188
684 0.000187
685 0.000185
686 0.000183
687 0.000185
688 0.000185
689 0.000186
690 0.000189
691 0.000188
692 0.000183
693 0.000183
694 0.000184
695 0.000186
696 0.000187
697 0.000190
698 0.000191
699 0.000195
700 0.000200
701 0.000206
702 0.000216
703 0.000221
704 0.000228
705 0.000232
706 0.000235
707 0.000236
708 0.000236
709 0.000236
710 0.000237
711 0.000237
712 0.000237
713 0.000237
714 0.000238
715 0.000240
716 0.000244
717 0.000246
718 0.000248
719 0.000248
720 0.000246
721 0.000241
722 0.000235
723 0.000229
724 0.000225
725 0.000219
726 0.000210
727 0.000202
728 0.000197
729 0.000189
730 0.000180
731 0.000171
732 0.000163
733 0.000157
734 0.000153
735 0.000149
736 0.000143
737 0.000137
738 0.000136
739 0.000132
740 0.000128
741 0.000125
742 0.000121
743 0.000117
744 0.000113
745 0.000111
746 0.000113
747 0.000112
748 0.000111
749 0.000109
750 0.000104
751 0.000101
752 0.000098
753 0.000095
754 0.000094
755 0.000092
756 0.000091
757 0.000088
758 0.000085
759 0.000081
760 0.000079
761 0.000075
762 0.000073
763 0.000071
764 0.000068
765 0.000065
766 0.000060
767 0.000059
768 0.000057
769 0.000054
770 0.000053
771 0.000052
772 0.000051
773 0.000052
774 0.000052
775 0.000055
776 0.000054
777 0.000053
778 0.000052
779 0.000052
780 0.000050
781 0.000048
782 0.000048
783 0.000048
784 0.000049
785 0.000050
786 0.000050
787 0.000054
788 0.000059
789 0.000063
790 0.000066
791 0.000066
792 0.000067
793 0.000067
794 0.000067
795 0.000065
796 0.000065
797 0.000066
798 0.000067
799 0.000067
800 0.000065
801 0.000063
802 0.000063
803 0.000063
804 0.000062
805 0.000063
806 0.000062
807 0.000058
808 0.000056
809 0.000055
