# i correlation
1 0.001700
2 0.001637
3 0.001586
4 0.001539
5 0.001495
6 0.001451
7 0.001416
8 0.001387
9 0.001365
10 0.001343
11 0.001330
12 0.001322
13 0.001315
14 0.001308
15 0.001307
16 0.001311
17 0.001306
18 0.001304
19 0.001306
20 0.001302
21 0.001298
22 0.001285
23 0.001279
24 0.001268
25 0.001261
26 0.001265
27 0.001271
28 0.001271
29 0.001265
30 0.001266
31 0.001261
32 0.001261
33 0.001247
34 0.001237
35 0.001233
36 0.001221
37 0.001221
38 0.001220
39 0.001219
40 0.001206
41 0.001195
42 0.001189
43 0.001189
44 0.001186
45 0.001172
46 0.001158
47 0.001153
48 0.001151
49 0.001141
50 0.001127
51 0.001121
52 0.001110
53 0.001106
54 0.001105
55 0.001109
56 0.001109
57 0.001105
58 0.001108
59 0.001108
60 0.001105
61 0.001103
62 0.001106
63 0.001105
64 0.001105
65 0.001107
66 0.001099
67 0.001100
68 0.001095
69 0.001096
70 0.001098
71 0.001091
72 0.001082
73 0.001072
74 0.001069
75 0.001058
76 0.001045
77 0.001027
78 0.001020
79 0.001015
80 0.001009
81 0.001002
82 0.000999
83 0.000999
84 0.000998
85 0.000992
86 0.000995
87 0.001002
88 0.001005
89 0.001002
90 0.000995
91 0.000988
92 0.000984
93 0.000982
94 0.000975
95 0.000971
96 0.000974
97 0.000977
98 0.000977
99 0.000983
100 0.000983
101 0.000985
102 0.000992
103 0.001006
104 0.001015
105 0.001025
106 0.001028
107 0.001030
108 0.001026
109 0.001011
110 0.000988
111 0.000959
112 0.000935
113 0.000920
114 0.000904
115 0.000897
116 0.000880
117 0.000872
118 0.000872
119 0.000871
120 0.000870
121 0.000872
122 0.000874
123 0.000877
124 0.000877
125 0.000877
126 0.000885
127 0.000893
128 0.000892
129 0.000892
130 0.000889
131 0.000880
132 0.000869
133 0.000852
134 0.000851
135 0.000853
136 0.000850
137 0.000849
138 0.000846
139 0.000844
140 0.000843
141 0.000839
142 0.000838
143 0.000835
144 0.000827
145 0.000831
146 0.000829
147 0.000829
148 0.000822
149 0.000817
150 0.000813
151 0.000811
152 0.000806
153 0.000799
154 0.000790
155 0.000785
156 0.000780
157 0.000777
158 0.000784
159 0.000785
160 0.000786
161 0.000791
162 0.000798
163 0.000806
164 0.000809
165 0.000804
166 0.000808
167 0.000813
168 0.000822
169 0.000829
170 0.000833
171 0.000832
172 0.000837
173 0.000845
174 0.000846
175 0.000843
176 0.000840
177 0.000847
178 0.000848
179 0.000847
180 0.000840
181 0.000829
182 0.000825
183 0.000816
184 0.000804
185 0.000796
186 0.000789
187 0.000779
188 0.000776
189 0.000781
190 0.000786
191 0.000791
192 0.000797
193 0.000801
194 0.000806
195 0.000803
196 0.000804
197 0.000797
198 0.000786
199 0.000775
200 0.000765
201 0.000758
202 0.000753
203 0.000746
204 0.000738
205 0.000734
206 0.000732
207 0.000723
208 0.000718
209 0.000714
210 0.000714
211 0.000721
212 0.000722
213 0.000717
214 0.000717
215 0.000715
216 0.000708
217 0.000703
218 0.000699
219 0.000688
220 0.000679
221 0.000675
222 0.000667
223 0.000664
224 0.000666
225 0.000670
226 0.000674
227 0.000676
228 0.000671
229 0.000667
230 0.000663
231 0.000665
232 0.000666
233 0.000673
234 0.000677
235 0.000675
236 0.000672
237 0.000669
238 0.000665
239 0.000655
240 0.000648
241 0.000644
242 0.000646
243 0.000648
244 0.000654
245 0.000658
246 0.000657
247 0.000661
248 0.000662
249 0.000663
250 0.000667
251 0.000667
252 0.000667
253 0.000664
254 0.000661
255 0.000660
256 0.000659
257 0.000661
258 0.000656
259 0.000652
260 0.000647
261 0.000640
262 0.000628
263 0.000623
264 0.000618
265 0.000615
266 0.000616
267 0.000609
268 0.000607
269 0.000610
270 0.000611
271 0.000606
272 0.000607
273 0.000607
274 0.000600
275 0.000594
276 0.000593
277 0.000591
278 0.000582
279 0.000573
280 0.000570
281 0.000565
282 0.000568
283 0.000564
284 0.000558
285 0.000557
286 0.000556
287 0.000561
288 0.000564
289 0.000564
290 0.000563
291 0.000562
292 0.000563
293 0.000564
294 0.000564
295 0.000567
296 0.000569
297 0.000570
298 0.000576
299 0.000584
300 0.000589
301 0.000591
302 0.000591
303 0.000595
304 0.000594
305 0.000589
306 0.000583
307 0.000579
308 0.000574
309 0.000570
310 0.000563
311 0.000553
312 0.000550
313 0.000545
314 0.000545
315 0.000545
316 0.000539
317 0.000537
318 0.000535
319 0.000537
320 0.000537
321 0.000534
322 0.000529
323 0.000526
324 0.000524
325 0.000523
326 0.000521
327 0.000515
328 0.000511
329 0.000508
330 0.000514
331 0.000526
332 0.000534
333 0.000542
334 0.000544
335 0.000546
336 0.000546
337 0.000545
338 0.000543
339 0.000539
340 0.000535
341 0.000535
342 0.000537
343 0.000538
344 0.000536
345 0.000535
346 0.000535
347 0.000531
348 0.000524
349 0.000517
350 0.000512
351 0.000510
352 0.000506
353 0.000511
354 0.000508
355 0.000503
356 0.000504
357 0.000504
358 0.000503
359 0.000497
360 0.000494
361 0.000496
362 0.000506
363 0.000519
364 0.000525
365 0.000530
366 0.000531
367 0.000523
368 0.000518
369 0.000519
370 0.000516
371 0.000510
372 0.000508
373 0.000504
374 0.000499
375 0.000493
376 0.000494
377 0.000492
378 0.000491
379 0.000485
380 0.000479
381 0.000473
382 0.000464
383 0.000460
384 0.000457
385 0.000450
386 0.000442
387 0.000434
388 0.000426
389 0.000417
390 0.000406
391 0.000396
392 0.000390
393 0.000384
394 0.000379
395 0.000385
396 0.000389
397 0.000392
398 0.000393
399 0.000392
400 0.000393
401 0.000394
402 0.000396
403 0.000400
404 0.000407
405 0.000408
406 0.000415
407 0.000420
408 0.000425
409 0.000421
410 0.000412
411 0.000411
412 0.000406
413 0.000399
414 0.000391
415 0.000388
416 0.000385
417 0.000381
418 0.000377
419 0.000377
420 0.000376
421 0.000375
422 0.000379
423 0.000387
424 0.000395
425 0.000401
426 0.000402
427 0.000413
428 0.000415
429 0.000415
430 0.000414
431 0.000409
432 0.000412
433 0.000415
434 0.000416
435 0.000420
436 0.000426
437 0.000423
438 0.000424
439 0.000425
440 0.000425
441 0.000427
442 0.000426
443 0.000424
444 0.000417
445 0.000409
446 0.000411
447 0.000406
448 0.000400
449 0.000395
450 0.000392
451 0.000396
452 0.000397
453 0.000393
454 0.000386
455 0.000381
456 0.000370
457 0.000354
458 0.000338
459 0.000328
460 0.000321
461 0.000321
462 0.000327
463 0.000331
464 0.000333
465 0.000338
466 0.000344
467 0.000354
468 0.000363
469 0.000372
470 0.000384
471 0.000401
472 0.000407
473 0.000408
474 0.000405
475 0.000399
476 0.000392
477 0.000382
478 0.000374
479 0.000368
480 0.000363
481 0.000359
482 0.000350
483 0.000344
484 0.000341
485 0.000337
486 0.000333
487 0.000327
488 0.000323
489 0.000317
490 0.000314
491 0.000315
492 0.000319
493 0.000322
494 0.000323
495 0.000323
496 0.000319
497 0.000315
498 0.000312
499 0.000309
500 0.000308
501 0.000308
502 0.000304
503 0.000306
504 0.000306
505 0.000304
506 0.000306
507 0.000303
508 0.000302
509 0.000304
510 0.000309
511 0.000315
512 0.000316
513 0.000319
514 0.000324
515 0.000328
516 0.000328
517 0.000322
518 0.000317
519 0.000309
520 0.000303
521 0.000302
522 0.000301
523 0.000303
524 0.000305
525 0.000310
526 0.000313
527 0.000316
528 0.000316
529 0.000316
530 0.000318
531 0.000317
532 0.000318
533 0.000321
534 0.000324
535 0.000329
536 0.000335
537 0.000333
538 0.000335
539 0.000335
540 0.000333
541 0.000334
542 0.000337
543 0.000340
544 0.000340
545 0.000342
546 0.000343
547 0.000342
548 0.000342
549 0.000346
550 0.000351
551 0.000356
552 0.000355
553 0.000354
554 0.000356
555 0.000359
556 0.000354
557 0.000354
558 0.000354
559 0.000359
560 0.000358
561 0.000349
562 0.000347
563 0.000337
564 0.000331
565 0.000326
566 0.000322
567 0.000318
568 0.000318
569 0.000320
570 0.000325
571 0.000331
572 0.000340
573 0.000348
574 0.000356
575 0.000365
576 0.000374
577 0.000382
578 0.000391
579 0.000394
580 0.000397
581 0.000397
582 0.000390
583 0.000385
584 0.000376
585 0.000364
586 0.000353
587 0.000339
588 0.000328
589 0.000321
590 0.000315
591 0.000308
592 0.000302
593 0.000298
594 0.000299
595 0.000295
596 0.000299
597 0.000310
598 0.000317
599 0.000321
600 0.000324
601 0.000330
602 0.000337
603 0.000338
604 0.000334
605 0.000328
606 0.000325
607 0.000324
608 0.000322
609 0.000320
610 0.000322
611 0.000320
612 0.000315
613 0.000314
614 0.000316
615 0.000319
616 0.000322
617 0.000320
618 0.000317
619 0.000316
620 0.000320
621 0.000319
622 0.000317
623 0.000312
624 0.000311
625 0.000307
626 0.000301
627 0.000294
628 0.000291
629 0.000294
630 0.000297
631 0.000298
632 0.000296
633 0.000296
634 0.000293
635 0.000290
636 0.000285
637 0.000280
638 0.000279
639 0.000278
640 0.000277
641 0.000280
642 0.000282
643 0.000282
644 0.000282
645 0.000283
646 0.000283
647 0.000281
648 0.000284
649 0.000282
650 0.000278
651 0.000275
652 0.000271
653 0.000268
654 0.000261
655 0.000254
656 0.000251
657 0.000250
658 0.000251
659 0.000251
660 0.000251
661 0.000254
662 0.000250
663 0.000249
664 0.000250
665 0.000253
666 0.000251
667 0.000252
668 0.000255
669 0.000255
670 0.000252
671 0.000245
672 0.000244
673 0.000243
674 0.000240
675 0.000238
676 0.000240
677 0.000245
678 0.000248
679 0.000251
680 0.000253
681 0.000255
682 0.000251
683 0.000246
684 0.000242
685 0.000238
686 0.000238
687 0.000235
688 0.000234
689 0.000233
690 0.000225
691 0.000218
692 0.000209
693 0.000201
694 0.000194
695 0.000189
696 0.000185
697 0.000182
698 0.000181
699 0.000179
700 0.000181
701 0.000180
702 0.000181
703 0.000181
704 0.000183
705 0.000184
706 0.000187
707 0.000193
708 0.000195
709 0.000197
710 0.000192
711 0.000185
712 0.000183
713 0.000178
714 0.000173
715 0.000170
716 0.000168
717 0.000168
718 0.000170
719 0.000174
720 0.000177
721 0.000181
722 0.000178
723 0.000181
724 0.000181
725 0.000180
726 0.000178
727 0.000176
728 0.000178
729 0.000177
730 0.000176
731 0.000171
732 0.000168
733 0.000163
734 0.000159
735 0.000157
736 0.000157
737 0.000161
738 0.000161
739 0.000167
740 0.000168
741 0.000171
742 0.000175
743 0.000176
744 0.000177
745 0.000174
746 0.000174
747 0.000178
748 0.000180
749 0.000180
750 0.000178
751 0.000177
752 0.000175
753 0.000171
754 0.000165
755 0.000161
756 0.000161
757 0.000159
758 0.000154
759 0.000147
760 0.000144
761 0.000139
762 0.000136
763 0.000132
764 0.000127
765 0.000126
766 0.000124
767 0.000125
768 0.000126
769 0.000130
770 0.000135
771 0.000139
772 0.000143
773 0.000146
774 0.000151
775 0.000153
776 0.000157
777 0.000155
778 0.000153
779 0.000153
780 0.000154
781 0.000151
782 0.000148
783 0.000147
784 0.000146
785 0.000145
786 0.000146
787 0.000144
788 0.000143
789 0.000137
790 0.000131
791 0.000128
792 0.000123
793 0.000120
794 0.000116
795 0.000115
796 0.000113
797 0.000112
798 0.000109
799 0.000108
800 0.000106
801 0.000103
802 0.000100
803 0.000097
804 0.000095
805 0.000090
806 0.000090
807 0.000087
808 0.000087
809 0.000086
