# i correlation
1 0.001792
2 0.001731
3 0.001687
4 0.001644
5 0.001604
6 0.001578
7 0.001556
8 0.001535
9 0.001511
10 0.001491
11 0.001484
12 0.001476
13 0.001460
14 0.001447
15 0.001434
16 0.001417
17 0.001397
18 0.001382
19 0.001372
20 0.001364
21 0.001359
22 0.001357
23 0.001358
24 0.001352
25 0.001340
26 0.001333
27 0.001334
28 0.001336
29 0.001331
30 0.001326
31 0.001327
32 0.001321
33 0.001324
34 0.001326
35 0.001329
36 0.001326
37 0.001323
38 0.001323
39 0.001318
40 0.001312
41 0.001305
42 0.001288
43 0.001274
44 0.001259
45 0.001245
46 0.001234
47 0.001222
48 0.001205
49 0.001192
50 0.001187
51 0.001177
52 0.001172
53 0.001165
54 0.001154
55 0.001144
56 0.001131
57 0.001124
58 0.001124
59 0.001122
60 0.001113
61 0.001110
62 0.001116
63 0.001119
64 0.001121
65 0.001119
66 0.001112
67 0.001098
68 0.001085
69 0.001073
70 0.001069
71 0.001071
72 0.001075
73 0.001085
74 0.001096
75 0.001105
76 0.001109
77 0.001113
78 0.001109
79 0.001105
80 0.001099
81 0.001091
82 0.001089
83 0.001086
84 0.001083
85 0.001078
86 0.001072
87 0.001062
88 0.001056
89 0.001049
90 0.001045
91 0.001046
92 0.001044
93 0.001040
94 0.001033
95 0.001023
96 0.001011
97 0.001007
98 0.001003
99 0.001001
100 0.001001
101 0.000998
102 0.000992
103 0.000988
104 0.000986
105 0.000988
106 0.000994
107 0.000992
108 0.000985
109 0.000983
110 0.000986
111 0.000992
112 0.001003
113 0.001014
114 0.001027
115 0.001032
116 0.001037
117 0.001036
118 0.001028
119 0.001017
120 0.001004
121 0.000994
122 0.000984
123 0.000977
124 0.000972
125 0.000971
126 0.000966
127 0.000965
128 0.000968
129 0.000971
130 0.000966
131 0.000956
132 0.000944
133 0.000929
134 0.000922
135 0.000919
136 0.000917
137 0.000915
138 0.000919
139 0.000918
140 0.000909
141 0.000901
142 0.000886
143 0.000880
144 0.000876
145 0.000875
146 0.000876
147 0.000878
148 0.000878
149 0.000880
150 0.000885
151 0.000887
152 0.000889
153 0.000886
154 0.000872
155 0.000861
156 0.000854
157 0.000848
158 0.000842
159 0.000840
160 0.000830
161 0.000825
162 0.000822
163 0.000818
164 0.000814
165 0.000811
166 0.000812
167 0.000814
168 0.000816
169 0.000821
170 0.000825
171 0.000826
172 0.000826
173 0.000826
174 0.000828
175 0.000834
176 0.000834
177 0.000833
178 0.000831
179 0.000827
180 0.000822
181 0.000820
182 0.000817
183 0.000822
184 0.000830
185 0.000828
186 0.000832
187 0.000836
188 0.000840
189 0.000848
190 0.000858
191 0.000864
192 0.000861
193 0.000855
194 0.000852
195 0.000843
196 0.000834
197 0.000830
198 0.000826
199 0.000822
200 0.000820
201 0.000814
202 0.000809
203 0.000804
204 0.000799
205 0.000791
206 0.000783
207 0.000784
208 0.000781
209 0.000778
210 0.000773
211 0.000774
212 0.000778
213 0.000783
214 0.000788
215 0.000788
216 0.000781
217 0.000770
218 0.000765
219 0.000757
220 0.000749
221 0.000744
222 0.000742
223 0.000742
224 0.000743
225 0.000740
226 0.000735
227 0.000731
228 0.000732
229 0.000733
230 0.000739
231 0.000741
232 0.000739
233 0.000734
234 0.000730
235 0.000733
236 0.000736
237 0.000736
238 0.000734
239 0.000724
240 0.000715
241 0.000711
242 0.000712
243 0.000709
244 0.000707
245 0.000704
246 0.000704
247 0.000706
248 0.000709
249 0.000713
250 0.000721
251 0.000719
252 0.000719
253 0.000718
254 0.000712
255 0.000699
256 0.000689
257 0.000681
258 0.000668
259 0.000661
260 0.000656
261 0.000652
262 0.000649
263 0.000652
264 0.000652
265 0.000657
266 0.000663
267 0.000662
268 0.000662
269 0.000658
270 0.000648
271 0.000638
272 0.000627
273 0.000620
274 0.000614
275 0.000613
276 0.000616
277 0.000621
278 0.000622
279 0.000620
280 0.000620
281 0.000619
282 0.000616
283 0.000613
284 0.000612
285 0.000609
286 0.000604
287 0.000603
288 0.000606
289 0.000608
290 0.000606
291 0.000606
292 0.000604
293 0.000598
294 0.000590
295 0.000586
296 0.000585
297 0.000579
298 0.000571
299 0.000563
300 0.000563
301 0.000561
302 0.000558
303 0.000555
304 0.000554
305 0.000552
306 0.000545
307 0.000542
308 0.000535
309 0.000525
310 0.000515
311 0.000504
312 0.000500
313 0.000499
314 0.000498
315 0.000501
316 0.000504
317 0.000499
318 0.000501
319 0.000509
320 0.000512
321 0.000515
322 0.000520
323 0.000519
324 0.000521
325 0.000528
326 0.000534
327 0.000536
328 0.000540
329 0.000544
330 0.000544
331 0.000543
332 0.000535
333 0.000526
334 0.000517
335 0.000509
336 0.000505
337 0.000501
338 0.000503
339 0.000500
340 0.000498
341 0.000501
342 0.000505
343 0.000509
344 0.000506
345 0.000507
346 0.000509
347 0.000507
348 0.000507
349 0.000509
350 0.000507
351 0.000505
352 0.000506
353 0.000505
354 0.000502
355 0.000498
356 0.000488
357 0.000483
358 0.000481
359 0.000487
360 0.000493
361 0.000497
362 0.000503
363 0.000507
364 0.000508
365 0.000510
366 0.000517
367 0.000514
368 0.000503
369 0.000500
370 0.000490
371 0.000478
372 0.000466
373 0.000458
374 0.000449
375 0.000441
376 0.000433
377 0.000429
378 0.000424
379 0.000420
380 0.000418
381 0.000421
382 0.000426
383 0.000425
384 0.000426
385 0.000430
386 0.000432
387 0.000432
388 0.000436
389 0.000436
390 0.000434
391 0.000428
392 0.000422
393 0.000423
394 0.000420
395 0.000416
396 0.000408
397 0.000406
398 0.000405
399 0.000405
400 0.000408
401 0.000410
402 0.000412
403 0.000412
404 0.000413
405 0.000412
406 0.000411
407 0.000409
408 0.000401
409 0.000395
410 0.000385
411 0.000375
412 0.000369
413 0.000362
414 0.000357
415 0.000354
416 0.000356
417 0.000357
418 0.000358
419 0.000359
420 0.000350
421 0.000346
422 0.000345
423 0.000338
424 0.000329
425 0.000326
426 0.000326
427 0.000327
428 0.000327
429 0.000324
430 0.000321
431 0.000317
432 0.000312
433 0.000311
434 0.000309
435 0.000307
436 0.000309
437 0.000313
438 0.000314
439 0.000318
440 0.000327
441 0.000333
442 0.000334
443 0.000337
444 0.000343
445 0.000346
446 0.000344
447 0.000340
448 0.000331
449 0.000321
450 0.000315
451 0.000311
452 0.000308
453 0.000305
454 0.000303
455 0.000300
456 0.000294
457 0.000295
458 0.000291
459 0.000290
460 0.000288
461 0.000285
462 0.000281
463 0.000280
464 0.000281
465 0.000288
466 0.000297
467 0.000302
468 0.000303
469 0.000300
470 0.000295
471 0.000294
472 0.000295
473 0.000295
474 0.000302
475 0.000311
476 0.000316
477 0.000322
478 0.000327
479 0.000333
480 0.000338
481 0.000343
482 0.000343
483 0.000341
484 0.000336
485 0.000326
486 0.000319
487 0.000311
488 0.000304
489 0.000300
490 0.000295
491 0.000295
492 0.000296
493 0.000293
494 0.000293
495 0.000293
496 0.000284
497 0.000276
498 0.000272
499 0.000268
500 0.000266
501 0.000263
502 0.000261
503 0.000261
504 0.000262
505 0.000262
506 0.000259
507 0.000257
508 0.000253
509 0.000251
510 0.000256
511 0.000260
512 0.000262
513 0.000265
514 0.000268
515 0.000270
516 0.000276
517 0.000281
518 0.000288
519 0.000298
520 0.000302
521 0.000303
522 0.000307
523 0.000308
524 0.000306
525 0.000305
526 0.000302
527 0.000298
528 0.000296
529 0.000294
530 0.000293
531 0.000289
532 0.000291
533 0.000295
534 0.000299
535 0.000296
536 0.000295
537 0.000296
538 0.000302
539 0.000303
540 0.000305
541 0.000304
542 0.000301
543 0.000298
544 0.000293
545 0.000294
546 0.000294
547 0.000290
548 0.000283
549 0.000277
550 0.000272
551 0.000268
552 0.000266
553 0.000266
554 0.000269
555 0.000267
556 0.000271
557 0.000281
558 0.000283
559 0.000282
560 0.000280
561 0.000275
562 0.000267
563 0.000260
564 0.000250
565 0.000244
566 0.000238
567 0.000229
568 0.000225
569 0.000224
570 0.000217
571 0.000210
572 0.000203
573 0.000203
574 0.000202
575 0.000203
576 0.000203
577 0.000207
578 0.000207
579 0.000207
580 0.000208
581 0.000215
582 0.000220
583 0.000223
584 0.000227
585 0.000232
586 0.000231
587 0.000229
588 0.000229
589 0.000230
590 0.000230
591 0.000229
592 0.000231
593 0.000233
594 0.000230
595 0.000229
596 0.000231
597 0.000237
598 0.000238
599 0.000233
600 0.000227
601 0.000221
602 0.000218
603 0.000216
604 0.000217
605 0.000217
606 0.000217
607 0.000213
608 0.000209
609 0.000205
610 0.000201
611 0.000199
612 0.000201
613 0.000202
614 0.000198
615 0.000198
616 0.000199
617 0.000197
618 0.000199
619 0.000201
620 0.000205
621 0.000206
622 0.000204
623 0.000206
624 0.000209
625 0.000210
626 0.000212
627 0.000214
628 0.000217
629 0.000216
630 0.000214
631 0.000215
632 0.000215
633 0.000214
634 0.000213
635 0.000210
636 0.000206
637 0.000201
638 0.000201
639 0.000201
640 0.000201
641 0.000203
642 0.000202
643 0.000202
644 0.000199
645 0.000194
646 0.000188
647 0.000184
648 0.000178
649 0.000175
650 0.000174
651 0.000173
652 0.000172
653 0.000173
654 0.000173
655 0.000175
656 0.000179
657 0.000181
658 0.000181
659 0.000181
660 0.000178
661 0.000176
662 0.000174
663 0.000170
664 0.000170
665 0.000169
666 0.000171
667 0.000174
668 0.000180
669 0.000186
670 0.000190
671 0.000192
672 0.000194
673 0.000195
674 0.000190
675 0.000186
676 0.000179
677 0.000175
678 0.000171
679 0.000170
680 0.000166
681 0.000167
682 0.000168
683 0.000168
684 0.000167
685 0.000166
686 0.000165
687 0.000164
688 0.000164
689 0.000165
690 0.000167
691 0.000167
692 0.000165
693 0.000162
694 0.000160
695 0.000162
696 0.000165
697 0.000166
698 0.000166
699 0.000163
700 0.000156
701 0.000153
702 0.000150
703 0.000151
704 0.000157
705 0.000158
706 0.000157
707 0.000162
708 0.000166
709 0.000169
710 0.000176
711 0.000184
712 0.000192
713 0.000198
714 0.000202
715 0.000207
716 0.000209
717 0.000207
718 0.000212
719 0.000218
720 0.000220
721 0.000220
722 0.000223
723 0.000228
724 0.000232
725 0.000231
726 0.000237
727 0.000240
728 0.000242
729 0.000244
730 0.000247
731 0.000251
732 0.000254
733 0.000253
734 0.000253
735 0.000253
736 0.000251
737 0.000248
738 0.000244
739 0.000237
740 0.000230
741 0.000224
742 0.000218
743 0.000217
744 0.000217
745 0.000218
746 0.000218
747 0.000220
748 0.000221
749 0.000219
750 0.000213
751 0.000208
752 0.000206
753 0.000204
754 0.000203
755 0.000206
756 0.000206
757 0.000202
758 0.000198
759 0.000200
760 0.000201
761 0.000199
762 0.000197
763 0.000197
764 0.000196
765 0.000191
766 0.000189
767 0.000188
768 0.000186
769 0.000184
770 0.000185
771 0.000188
772 0.000190
773 0.000189
774 0.000187
775 0.000183
776 0.000180
777 0.000173
778 0.000166
779 0.000158
780 0.000149
781 0.000142
782 0.000137
783 0.000131
784 0.000127
785 0.000124
786 0.000125
787 0.000129
788 0.000132
789 0.000133
790 0.000135
791 0.000132
792 0.000128
793 0.000125
794 0.000123
795 0.000124
796 0.000128
797 0.000132
798 0.000132
799 0.000135
800 0.000134
801 0.000133
802 0.000136
803 0.000139
804 0.000141
805 0.000143
806 0.000145
807 0.000150
808 0.000152
809 0.000156
