# i correlation
1 0.001774
2 0.001717
3 0.001674
4 0.001638
5 0.001600
6 0.001574
7 0.001550
8 0.001530
9 0.001508
10 0.001485
11 0.001472
12 0.001460
13 0.001451
14 0.001439
15 0.001427
16 0.001421
17 0.001405
18 0.001398
19 0.001392
20 0.001388
21 0.001387
22 0.001381
23 0.001375
24 0.001375
25 0.001372
26 0.001375
27 0.001373
28 0.001368
29 0.001360
30 0.001352
31 0.001341
32 0.001340
33 0.001338
34 0.001334
35 0.001332
36 0.001334
37 0.001337
38 0.001333
39 0.001326
40 0.001318
41 0.001303
42 0.001291
43 0.001285
44 0.001286
45 0.001286
46 0.001278
47 0.001271
48 0.001263
49 0.001251
50 0.001243
51 0.001233
52 0.001228
53 0.001223
54 0.001217
55 0.001212
56 0.001211
57 0.001204
58 0.001200
59 0.001204
60 0.001199
61 0.001193
62 0.001183
63 0.001182
64 0.001168
65 0.001161
66 0.001159
67 0.001162
68 0.001161
69 0.001158
70 0.001149
71 0.001144
72 0.001143
73 0.001142
74 0.001144
75 0.001150
76 0.001149
77 0.001142
78 0.001135
79 0.001125
80 0.001119
81 0.001115
82 0.001110
83 0.001103
84 0.001093
85 0.001078
86 0.001067
87 0.001062
88 0.001050
89 0.001041
90 0.001028
91 0.001021
92 0.001010
93 0.001004
94 0.001000
95 0.000999
96 0.001000
97 0.000994
98 0.000989
99 0.000987
100 0.000993
101 0.001003
102 0.001012
103 0.001020
104 0.001029
105 0.001032
106 0.001032
107 0.001034
108 0.001030
109 0.001017
110 0.001003
111 0.000990
112 0.000985
113 0.000983
114 0.000980
115 0.000979
116 0.000976
117 0.000968
118 0.000955
119 0.000949
120 0.000946
121 0.000944
122 0.000936
123 0.000930
124 0.000919
125 0.000906
126 0.000895
127 0.000892
128 0.000895
129 0.000896
130 0.000900
131 0.000905
132 0.000909
133 0.000908
134 0.000913
135 0.000912
136 0.000912
137 0.000911
138 0.000915
139 0.000918
140 0.000924
141 0.000938
142 0.000945
143 0.000951
144 0.000952
145 0.000960
146 0.000966
147 0.000968
148 0.000968
149 0.000971
150 0.000972
151 0.000970
152 0.000979
153 0.000980
154 0.000981
155 0.000977
156 0.000972
157 0.000967
158 0.000961
159 0.000956
160 0.000957
161 0.000947
162 0.000936
163 0.000931
164 0.000926
165 0.000916
166 0.000906
167 0.000903
168 0.000902
169 0.000897
170 0.000895
171 0.000895
172 0.000894
173 0.000893
174 0.000891
175 0.000890
176 0.000891
177 0.000893
178 0.000897
179 0.000895
180 0.000893
181 0.000893
182 0.000893
183 0.000892
184 0.000887
185 0.000877
186 0.000872
187 0.000869
188 0.000871
189 0.000872
190 0.000880
191 0.000879
192 0.000876
193 0.000868
194 0.000865
195 0.000858
196 0.000852
197 0.000854
198 0.000849
199 0.000848
200 0.000845
201 0.000844
202 0.000846
203 0.000848
204 0.000844
205 0.000840
206 0.000837
207 0.000828
208 0.000830
209 0.000831
210 0.000832
211 0.000835
212 0.000835
213 0.000832
214 0.000828
215 0.000825
216 0.000828
217 0.000828
218 0.000822
219 0.000816
220 0.000815
221 0.000817
222 0.000813
223 0.000810
224 0.000807
225 0.000808
226 0.000804
227 0.000806
228 0.000803
229 0.000800
230 0.000797
231 0.000789
232 0.000782
233 0.000776
234 0.000777
235 0.000781
236 0.000787
237 0.000788
238 0.000785
239 0.000779
240 0.000775
241 0.000773
242 0.000772
243 0.000765
244 0.000758
245 0.000749
246 0.000737
247 0.000729
248 0.000726
249 0.000722
250 0.000716
251 0.000709
252 0.000697
253 0.000693
254 0.000690
255 0.000691
256 0.000699
257 0.000713
258 0.000719
259 0.000719
260 0.000724
261 0.000732
262 0.000737
263 0.000737
264 0.000740
265 0.000744
266 0.000739
267 0.000729
268 0.000718
269 0.000713
270 0.000709
271 0.000701
272 0.000690
273 0.000678
274 0.000667
275 0.000660
276 0.000654
277 0.000648
278 0.000638
279 0.000635
280 0.000636
281 0.000639
282 0.000639
283 0.000647
284 0.000658
285 0.000663
286 0.000669
287 0.000674
288 0.000679
289 0.000681
290 0.000686
291 0.000688
292 0.000690
293 0.000692
294 0.000698
295 0.000704
296 0.000702
297 0.000701
298 0.000703
299 0.000702
300 0.000699
301 0.000698
302 0.000698
303 0.000699
304 0.000703
305 0.000704
306 0.000702
307 0.000698
308 0.000692
309 0.000684
310 0.000680
311 0.000676
312 0.000670
313 0.000667
314 0.000664
315 0.000659
316 0.000661
317 0.000662
318 0.000668
319 0.000667
320 0.000662
321 0.000653
322 0.000648
323 0.000645
324 0.000648
325 0.000648
326 0.000653
327 0.000650
328 0.000648
329 0.000643
330 0.000634
331 0.000631
332 0.000634
333 0.000634
334 0.000626
335 0.000621
336 0.000617
337 0.000613
338 0.000612
339 0.000611
340 0.000611
341 0.000612
342 0.000622
343 0.000628
344 0.000640
345 0.000649
346 0.000648
347 0.000641
348 0.000638
349 0.000636
350 0.000632
351 0.000631
352 0.000625
353 0.000618
354 0.000612
355 0.000603
356 0.000589
357 0.000580
358 0.000576
359 0.000570
360 0.000563
361 0.000564
362 0.000572
363 0.000585
364 0.000595
365 0.000604
366 0.000615
367 0.000620
368 0.000616
369 0.000611
370 0.000614
371 0.000615
372 0.000612
373 0.000610
374 0.000607
375 0.000603
376 0.000600
377 0.000598
378 0.000599
379 0.000602
380 0.000601
381 0.000597
382 0.000593
383 0.000589
384 0.000583
385 0.000581
386 0.000581
387 0.000581
388 0.000581
389 0.000585
390 0.000582
391 0.000583
392 0.000585
393 0.000581
394 0.000581
395 0.000579
396 0.000575
397 0.000569
398 0.000565
399 0.000565
400 0.000567
401 0.000564
402 0.000559
403 0.000558
404 0.000556
405 0.000554
406 0.000548
407 0.000549
408 0.000548
409 0.000538
410 0.000531
411 0.000530
412 0.000526
413 0.000522
414 0.000519
415 0.000516
416 0.000509
417 0.000504
418 0.000501
419 0.000499
420 0.000497
421 0.000495
422 0.000493
423 0.000488
424 0.000485
425 0.000487
426 0.000489
427 0.000489
428 0.000487
429 0.000485
430 0.000483
431 0.000480
432 0.000482
433 0.000485
434 0.000484
435 0.000481
436 0.000481
437 0.000482
438 0.000484
439 0.000489
440 0.000492
441 0.000493
442 0.000487
443 0.000479
444 0.000471
445 0.000462
446 0.000458
447 0.000457
448 0.000454
449 0.000447
450 0.000441
451 0.000437
452 0.000435
453 0.000434
454 0.000433
455 0.000431
456 0.000425
457 0.000419
458 0.000415
459 0.000416
460 0.000416
461 0.000413
462 0.000409
463 0.000407
464 0.000402
465 0.000399
466 0.000399
467 0.000403
468 0.000406
469 0.000402
470 0.000402
471 0.000406
472 0.000405
473 0.000405
474 0.000409
475 0.000406
476 0.000405
477 0.000400
478 0.000398
479 0.000394
480 0.000390
481 0.000385
482 0.000382
483 0.000384
484 0.000384
485 0.000385
486 0.000390
487 0.000395
488 0.000395
489 0.000389
490 0.000382
491 0.000373
492 0.000369
493 0.000362
494 0.000359
495 0.000359
496 0.000361
497 0.000369
498 0.000376
499 0.000378
500 0.000378
501 0.000381
502 0.000379
503 0.000377
504 0.000375
505 0.000373
506 0.000370
507 0.000365
508 0.000362
509 0.000359
510 0.000356
511 0.000351
512 0.000346
513 0.000341
514 0.000337
515 0.000332
516 0.000329
517 0.000319
518 0.000309
519 0.000303
520 0.000297
521 0.000296
522 0.000297
523 0.000298
524 0.000300
525 0.000301
526 0.000302
527 0.000306
528 0.000310
529 0.000312
530 0.000313
531 0.000315
532 0.000317
533 0.000314
534 0.000316
535 0.000318
536 0.000319
537 0.000320
538 0.000320
539 0.000317
540 0.000316
541 0.000319
542 0.000324
543 0.000330
544 0.000332
545 0.000335
546 0.000337
547 0.000336
548 0.000339
549 0.000341
550 0.000339
551 0.000339
552 0.000339
553 0.000342
554 0.000346
555 0.000345
556 0.000345
557 0.000344
558 0.000340
559 0.000332
560 0.000330
561 0.000326
562 0.000321
563 0.000314
564 0.000312
565 0.000305
566 0.000299
567 0.000295
568 0.000295
569 0.000294
570 0.000297
571 0.000299
572 0.000298
573 0.000294
574 0.000293
575 0.000297
576 0.000297
577 0.000296
578 0.000295
579 0.000296
580 0.000297
581 0.000297
582 0.000297
583 0.000296
584 0.000300
585 0.000301
586 0.000299
587 0.000294
588 0.000296
589 0.000296
590 0.000295
591 0.000294
592 0.000294
593 0.000293
594 0.000285
595 0.000278
596 0.000268
597 0.000259
598 0.000249
599 0.000245
600 0.000240
601 0.000235
602 0.000234
603 0.000234
604 0.000235
605 0.000236
606 0.000239
607 0.000242
608 0.000247
609 0.000253
610 0.000253
611 0.000251
612 0.000250
613 0.000247
614 0.000242
615 0.000242
616 0.000242
617 0.000238
618 0.000232
619 0.000227
620 0.000225
621 0.000220
622 0.000211
623 0.000203
624 0.000198
625 0.000191
626 0.000184
627 0.000181
628 0.000183
629 0.000184
630 0.000187
631 0.000190
632 0.000195
633 0.000197
634 0.000197
635 0.000198
636 0.000199
637 0.000199
638 0.000198
639 0.000199
640 0.000195
641 0.000191
642 0.000189
643 0.000189
644 0.000192
645 0.000196
646 0.000196
647 0.000197
648 0.000200
649 0.000203
650 0.000205
651 0.000205
652 0.000208
653 0.000207
654 0.000205
655 0.000204
656 0.000202
657 0.000199
658 0.000198
659 0.000195
660 0.000197
661 0.000199
662 0.000200
663 0.000193
664 0.000192
665 0.000191
666 0.000189
667 0.000183
668 0.000184
669 0.000185
670 0.000183
671 0.000183
672 0.000182
673 0.000182
674 0.000176
675 0.000175
676 0.000175
677 0.000175
678 0.000171
679 0.000169
680 0.000169
681 0.000171
682 0.000172
683 0.000171
684 0.000174
685 0.000170
686 0.000165
687 0.000166
688 0.000171
689 0.000174
690 0.000177
691 0.000183
692 0.000186
693 0.000185
694 0.000187
695 0.000190
696 0.000194
697 0.000197
698 0.000202
699 0.000205
700 0.000206
701 0.000203
702 0.000206
703 0.000206
704 0.000207
705 0.000207
706 0.000205
707 0.000201
708 0.000203
709 0.000203
710 0.000202
711 0.000201
712 0.000204
713 0.000204
714 0.000203
715 0.000202
716 0.000203
717 0.000203
718 0.000200
719 0.000194
720 0.000188
721 0.000187
722 0.000184
723 0.000182
724 0.000185
725 0.000186
726 0.000186
727 0.000187
728 0.000188
729 0.000190
730 0.000192
731 0.000199
732 0.000207
733 0.000210
734 0.000213
735 0.000213
736 0.000214
737 0.000215
738 0.000216
739 0.000215
740 0.000220
741 0.000220
742 0.000216
743 0.000215
744 0.000212
745 0.000210
746 0.000207
747 0.000206
748 0.000207
749 0.000209
750 0.000210
751 0.000211
752 0.000214
753 0.000214
754 0.000213
755 0.000211
756 0.000210
757 0.000210
758 0.000208
759 0.000209
760 0.000207
761 0.000205
762 0.000203
763 0.000203
764 0.000204
765 0.000202
766 0.000202
767 0.000203
768 0.000204
769 0.000204
770 0.000202
771 0.000200
772 0.000198
773 0.000196
774 0.000191
775 0.000188
776 0.000185
777 0.000183
778 0.000181
779 0.000181
780 0.000182
781 0.000183
782 0.000182
783 0.000180
784 0.000180
785 0.000183
786 0.000186
787 0.000191
788 0.000192
789 0.000193
790 0.000193
791 0.000193
792 0.000194
793 0.000193
794 0.000190
795 0.000186
796 0.000184
797 0.000180
798 0.000179
799 0.000178
800 0.000179
801 0.000176
802 0.000172
803 0.000169
804 0.000168
805 0.000166
806 0.000164
807 0.000166
808 0.000166
809 0.000166
