# i correlation
1 0.001539
2 0.001480
3 0.001430
4 0.001394
5 0.001365
6 0.001340
7 0.001318
8 0.001301
9 0.001287
10 0.001269
11 0.001247
12 0.001238
13 0.001230
14 0.001217
15 0.001203
16 0.001194
17 0.001185
18 0.001183
19 0.001180
20 0.001170
21 0.001156
22 0.001145
23 0.001141
24 0.001138
25 0.001135
26 0.001131
27 0.001132
28 0.001125
29 0.001112
30 0.001102
31 0.001097
32 0.001095
33 0.001104
34 0.001100
35 0.001096
36 0.001097
37 0.001098
38 0.001105
39 0.001102
40 0.001101
41 0.001100
42 0.001096
43 0.001089
44 0.001081
45 0.001074
46 0.001067
47 0.001068
48 0.001068
49 0.001061
50 0.001060
51 0.001056
52 0.001057
53 0.001058
54 0.001057
55 0.001049
56 0.001032
57 0.001016
58 0.001002
59 0.000989
60 0.000982
61 0.000979
62 0.000971
63 0.000970
64 0.000965
65 0.000963
66 0.000967
67 0.000970
68 0.000969
69 0.000964
70 0.000955
71 0.000951
72 0.000945
73 0.000944
74 0.000943
75 0.000939
76 0.000934
77 0.000928
78 0.000926
79 0.000926
80 0.000926
81 0.000928
82 0.000921
83 0.000915
84 0.000912
85 0.000914
86 0.000920
87 0.000926
88 0.000930
89 0.000927
90 0.000925
91 0.000922
92 0.000920
93 0.000920
94 0.000922
95 0.000916
96 0.000907
97 0.000900
98 0.000895
99 0.000889
100 0.000881
101 0.000881
102 0.000881
103 0.000883
104 0.000883
105 0.000886
106 0.000887
107 0.000886
108 0.000887
109 0.000886
110 0.000882
111 0.000878
112 0.000873
113 0.000874
114 0.000875
115 0.000873
116 0.000867
117 0.000861
118 0.000854
119 0.000849
120 0.000847
121 0.000854
122 0.000857
123 0.000856
124 0.000855
125 0.000856
126 0.000858
127 0.000860
128 0.000861
129 0.000861
130 0.000856
131 0.000847
132 0.000843
133 0.000832
134 0.000825
135 0.000817
136 0.000804
137 0.000794
138 0.000788
139 0.000790
140 0.000795
141 0.000801
142 0.000807
143 0.000810
144 0.000808
145 0.000800
146 0.000795
147 0.000798
148 0.000801
149 0.000802
150 0.000799
151 0.000794
152 0.000791
153 0.000789
154 0.000784
155 0.000783
156 0.000787
157 0.000791
158 0.000788
159 0.000785
160 0.000783
161 0.000781
162 0.000783
163 0.000782
164 0.000777
165 0.000784
166 0.000791
167 0.000794
168 0.000793
169 0.000791
170 0.000789
171 0.000789
172 0.000785
173 0.000780
174 0.000773
175 0.000772
176 0.000776
177 0.000774
178 0.000772
179 0.000773
180 0.000775
181 0.000772
182 0.000773
183 0.000774
184 0.000775
185 0.000775
186 0.000765
187 0.000748
188 0.000731
189 0.000723
190 0.000718
191 0.000717
192 0.000717
193 0.000714
194 0.000718
195 0.000727
196 0.000728
197 0.000722
198 0.000724
199 0.000724
200 0.000720
201 0.000720
202 0.000714
203 0.000712
204 0.000712
205 0.000708
206 0.000699
207 0.000693
208 0.000687
209 0.000685
210 0.000688
211 0.000695
212 0.000699
213 0.000704
214 0.000704
215 0.000703
216 0.000696
217 0.000694
218 0.000694
219 0.000697
220 0.000698
221 0.000695
222 0.000699
223 0.000703
224 0.000701
225 0.000694
226 0.000689
227 0.000683
228 0.000681
229 0.000684
230 0.000685
231 0.000687
232 0.000693
233 0.000693
234 0.000695
235 0.000695
236 0.000697
237 0.000702
238 0.000702
239 0.000705
240 0.000708
241 0.000706
242 0.000701
243 0.000696
244 0.000691
245 0.000687
246 0.000682
247 0.000680
248 0.000672
249 0.000666
250 0.000664
251 0.000665
252 0.000662
253 0.000662
254 0.000660
255 0.000658
256 0.000659
257 0.000655
258 0.000647
259 0.000641
260 0.000637
261 0.000630
262 0.000625
263 0.000621
264 0.000624
265 0.000626
266 0.000628
267 0.000626
268 0.000623
269 0.000620
270 0.000622
271 0.000623
272 0.000625
273 0.000622
274 0.000623
275 0.000618
276 0.000612
277 0.000609
278 0.000604
279 0.000598
280 0.000591
281 0.000589
282 0.000587
283 0.000585
284 0.000587
285 0.000588
286 0.000589
287 0.000589
288 0.000589
289 0.000589
290 0.000592
291 0.000591
292 0.000591
293 0.000591
294 0.000586
295 0.000579
296 0.000574
297 0.000575
298 0.000577
299 0.000579
300 0.000578
301 0.000574
302 0.000565
303 0.000557
304 0.000555
305 0.000554
306 0.000552
307 0.000554
308 0.000560
309 0.000566
310 0.000574
311 0.000584
312 0.000590
313 0.000591
314 0.000591
315 0.000588
316 0.000586
317 0.000580
318 0.000572
319 0.000567
320 0.000562
321 0.000565
322 0.000561
323 0.000560
324 0.000562
325 0.000564
326 0.000569
327 0.000573
328 0.000576
329 0.000572
330 0.000568
331 0.000561
332 0.000552
333 0.000552
334 0.000549
335 0.000549
336 0.000543
337 0.000542
338 0.000544
339 0.000544
340 0.000539
341 0.000537
342 0.000535
343 0.000537
344 0.000535
345 0.000534
346 0.000532
347 0.000535
348 0.000536
349 0.000534
350 0.000533
351 0.000533
352 0.000537
353 0.000540
354 0.000542
355 0.000547
356 0.000549
357 0.000546
358 0.000540
359 0.000533
360 0.000524
361 0.000527
362 0.000526
363 0.000529
364 0.000537
365 0.000544
366 0.000550
367 0.000549
368 0.000546
369 0.000542
370 0.000534
371 0.000530
372 0.000525
373 0.000517
374 0.000513
375 0.000508
376 0.000501
377 0.000497
378 0.000496
379 0.000502
380 0.000510
381 0.000516
382 0.000520
383 0.000524
384 0.000526
385 0.000527
386 0.000523
387 0.000520
388 0.000521
389 0.000521
390 0.000523
391 0.000525
392 0.000520
393 0.000511
394 0.000506
395 0.000504
396 0.000502
397 0.000504
398 0.000501
399 0.000500
400 0.000497
401 0.000492
402 0.000494
403 0.000491
404 0.000490
405 0.000489
406 0.000495
407 0.000498
408 0.000500
409 0.000495
410 0.000490
411 0.000488
412 0.000483
413 0.000477
414 0.000473
415 0.000471
416 0.000473
417 0.000472
418 0.000472
419 0.000475
420 0.000476
421 0.000478
422 0.000482
423 0.000479
424 0.000479
425 0.000474
426 0.000469
427 0.000464
428 0.000457
429 0.000456
430 0.000456
431 0.000457
432 0.000458
433 0.000461
434 0.000460
435 0.000463
436 0.000461
437 0.000459
438 0.000458
439 0.000459
440 0.000460
441 0.000456
442 0.000452
443 0.000449
444 0.000448
445 0.000439
446 0.000432
447 0.000422
448 0.000416
449 0.000417
450 0.000416
451 0.000414
452 0.000412
453 0.000406
454 0.000405
455 0.000405
456 0.000410
457 0.000409
458 0.000408
459 0.000410
460 0.000413
461 0.000413
462 0.000410
463 0.000408
464 0.000406
465 0.000404
466 0.000401
467 0.000398
468 0.000397
469 0.000406
470 0.000411
471 0.000410
472 0.000407
473 0.000406
474 0.000399
475 0.000392
476 0.000389
477 0.000391
478 0.000391
479 0.000390
480 0.000381
481 0.000369
482 0.000363
483 0.000360
484 0.000355
485 0.000351
486 0.000343
487 0.000336
488 0.000333
489 0.000329
490 0.000324
491 0.000320
492 0.000316
493 0.000312
494 0.000307
495 0.000303
496 0.000305
497 0.000311
498 0.000310
499 0.000305
500 0.000299
501 0.000292
502 0.000284
503 0.000280
504 0.000282
505 0.000284
506 0.000291
507 0.000294
508 0.000296
509 0.000300
510 0.000309
511 0.000313
512 0.000314
513 0.000314
514 0.000307
515 0.000299
516 0.000295
517 0.000294
518 0.000293
519 0.000288
520 0.000283
521 0.000280
522 0.000278
523 0.000276
524 0.000275
525 0.000273
526 0.000268
527 0.000266
528 0.000259
529 0.000257
530 0.000256
531 0.000252
532 0.000253
533 0.000254
534 0.000257
535 0.000254
536 0.000250
537 0.000250
538 0.000252
539 0.000255
540 0.000255
541 0.000255
542 0.000253
543 0.000254
544 0.000259
545 0.000264
546 0.000266
547 0.000271
548 0.000274
549 0.000275
550 0.000279
551 0.000285
552 0.000289
553 0.000290
554 0.000289
555 0.000281
556 0.000275
557 0.000276
558 0.000274
559 0.000272
560 0.000270
561 0.000263
562 0.000258
563 0.000259
564 0.000264
565 0.000268
566 0.000268
567 0.000270
568 0.000265
569 0.000253
570 0.000244
571 0.000240
572 0.000239
573 0.000237
574 0.000230
575 0.000226
576 0.000221
577 0.000219
578 0.000217
579 0.000212
580 0.000209
581 0.000206
582 0.000207
583 0.000208
584 0.000210
585 0.000212
586 0.000214
587 0.000218
588 0.000219
589 0.000221
590 0.000227
591 0.000234
592 0.000240
593 0.000242
594 0.000241
595 0.000242
596 0.000243
597 0.000248
598 0.000258
599 0.000265
600 0.000272
601 0.000277
602 0.000280
603 0.000286
604 0.000287
605 0.000290
606 0.000290
607 0.000290
608 0.000284
609 0.000280
610 0.000276
611 0.000276
612 0.000275
613 0.000276
614 0.000274
615 0.000273
616 0.000268
617 0.000263
618 0.000259
619 0.000257
620 0.000259
621 0.000260
622 0.000260
623 0.000258
624 0.000254
625 0.000257
626 0.000263
627 0.000265
628 0.000268
629 0.000262
630 0.000262
631 0.000263
632 0.000262
633 0.000259
634 0.000259
635 0.000260
636 0.000264
637 0.000263
638 0.000268
639 0.000274
640 0.000282
641 0.000283
642 0.000282
643 0.000279
644 0.000278
645 0.000279
646 0.000282
647 0.000282
648 0.000284
649 0.000283
650 0.000283
651 0.000283
652 0.000281
653 0.000281
654 0.000286
655 0.000289
656 0.000289
657 0.000285
658 0.000278
659 0.000275
660 0.000267
661 0.000263
662 0.000260
663 0.000257
664 0.000255
665 0.000249
666 0.000244
667 0.000239
668 0.000236
669 0.000235
670 0.000233
671 0.000232
672 0.000230
673 0.000231
674 0.000231
675 0.000228
676 0.000225
677 0.000220
678 0.000219
679 0.000215
680 0.000216
681 0.000217
682 0.000219
683 0.000219
684 0.000217
685 0.000214
686 0.000211
687 0.000206
688 0.000204
689 0.000204
690 0.000202
691 0.000204
692 0.000210
693 0.000215
694 0.000219
695 0.000222
696 0.000224
697 0.000221
698 0.000217
699 0.000213
700 0.000212
701 0.000217
702 0.000218
703 0.000219
704 0.000220
705 0.000217
706 0.000216
707 0.000216
708 0.000215
709 0.000212
710 0.000208
711 0.000204
712 0.000202
713 0.000196
714 0.000195
715 0.000191
716 0.000189
717 0.000185
718 0.000180
719 0.000176
720 0.000177
721 0.000177
722 0.000177
723 0.000177
724 0.000180
725 0.000179
726 0.000176
727 0.000167
728 0.000159
729 0.000152
730 0.000154
731 0.000151
732 0.000148
733 0.000146
734 0.000145
735 0.000144
736 0.000143
737 0.000140
738 0.000138
739 0.000136
740 0.000132
741 0.000126
742 0.000119
743 0.000118
744 0.000116
745 0.000117
746 0.000114
747 0.000113
748 0.000115
749 0.000119
750 0.000121
751 0.000121
752 0.000121
753 0.000119
754 0.000119
755 0.000121
756 0.000121
757 0.000125
758 0.000126
759 0.000125
760 0.000122
761 0.000121
762 0.000123
763 0.000127
764 0.000131
765 0.000130
766 0.000125
767 0.000122
768 0.000119
769 0.000118
770 0.000117
771 0.000115
772 0.000113
773 0.000111
774 0.000111
775 0.000111
776 0.000112
777 0.000117
778 0.000121
779 0.000121
780 0.000118
781 0.000116
782 0.000114
783 0.000117
784 0.000116
785 0.000115
786 0.000114
787 0.000117
788 0.000121
789 0.000122
790 0.000123
791 0.000126
792 0.000125
793 0.000124
794 0.000126
795 0.000129
796 0.000132
797 0.000136
798 0.000138
799 0.000140
800 0.000138
801 0.000137
802 0.000136
803 0.000136
804 0.000138
805 0.000137
806 0.000134
807 0.000133
808 0.000131
809 0.000128
