# i correlation
1 0.001946
2 0.001885
3 0.001826
4 0.001775
5 0.001729
6 0.001687
7 0.001650
8 0.001621
9 0.001597
10 0.001574
11 0.001551
12 0.001536
13 0.001525
14 0.001518
15 0.001510
16 0.001502
17 0.001492
18 0.001486
19 0.001480
20 0.001472
21 0.001465
22 0.001450
23 0.001431
24 0.001418
25 0.001401
26 0.001386
27 0.001369
28 0.001357
29 0.001341
30 0.001325
31 0.001312
32 0.001303
33 0.001293
34 0.001292
35 0.001291
36 0.001285
37 0.001279
38 0.001276
39 0.001272
40 0.001263
41 0.001252
42 0.001239
43 0.001226
44 0.001218
45 0.001209
46 0.001200
47 0.001194
48 0.001193
49 0.001186
50 0.001173
51 0.001159
52 0.001149
53 0.001140
54 0.001132
55 0.001121
56 0.001110
57 0.001099
58 0.001085
59 0.001077
60 0.001062
61 0.001051
62 0.001044
63 0.001044
64 0.001037
65 0.001025
66 0.001016
67 0.001011
68 0.001006
69 0.001004
70 0.001006
71 0.001010
72 0.001015
73 0.001022
74 0.001021
75 0.001024
76 0.001029
77 0.001030
78 0.001029
79 0.001021
80 0.001011
81 0.000995
82 0.000976
83 0.000961
84 0.000949
85 0.000939
86 0.000930
87 0.000925
88 0.000917
89 0.000906
90 0.000897
91 0.000892
92 0.000891
93 0.000894
94 0.000899
95 0.000897
96 0.000896
97 0.000898
98 0.000900
99 0.000896
100 0.000892
101 0.000892
102 0.000894
103 0.000896
104 0.000894
105 0.000892
106 0.000888
107 0.000883
108 0.000873
109 0.000856
110 0.000840
111 0.000823
112 0.000811
113 0.000802
114 0.000798
115 0.000794
116 0.000789
117 0.000790
118 0.000794
119 0.000796
120 0.000799
121 0.000803
122 0.000808
123 0.000811
124 0.000818
125 0.000820
126 0.000820
127 0.000815
128 0.000811
129 0.000813
130 0.000813
131 0.000805
132 0.000800
133 0.000789
134 0.000782
135 0.000779
136 0.000774
137 0.000766
138 0.000760
139 0.000752
140 0.000743
141 0.000735
142 0.000731
143 0.000731
144 0.000732
145 0.000729
146 0.000732
147 0.000732
148 0.000733
149 0.000737
150 0.000740
151 0.000744
152 0.000744
153 0.000740
154 0.000734
155 0.000727
156 0.000717
157 0.000710
158 0.000702
159 0.000695
160 0.000689
161 0.000676
162 0.000668
163 0.000659
164 0.000654
165 0.000653
166 0.000648
167 0.000650
168 0.000653
169 0.000661
170 0.000669
171 0.000673
172 0.000674
173 0.000671
174 0.000668
175 0.000663
176 0.000654
177 0.000646
178 0.000636
179 0.000625
180 0.000616
181 0.000611
182 0.000603
183 0.000607
184 0.000611
185 0.000613
186 0.000613
187 0.000606
188 0.000601
189 0.000590
190 0.000579
191 0.000569
192 0.000560
193 0.000550
194 0.000534
195 0.000524
196 0.000511
197 0.000505
198 0.000503
199 0.000509
200 0.000511
201 0.000516
202 0.000518
203 0.000517
204 0.000508
205 0.000506
206 0.000505
207 0.000506
208 0.000504
209 0.000503
210 0.000500
211 0.000499
212 0.000498
213 0.000496
214 0.000493
215 0.000496
216 0.000497
217 0.000498
218 0.000497
219 0.000500
220 0.000499
221 0.000501
222 0.000505
223 0.000511
224 0.000516
225 0.000515
226 0.000514
227 0.000517
228 0.000525
229 0.000526
230 0.000522
231 0.000524
232 0.000527
233 0.000530
234 0.000530
235 0.000529
236 0.000530
237 0.000531
238 0.000539
239 0.000544
240 0.000552
241 0.000557
242 0.000559
243 0.000555
244 0.000542
245 0.000527
246 0.000509
247 0.000499
248 0.000491
249 0.000486
250 0.000477
251 0.000469
252 0.000462
253 0.000454
254 0.000456
255 0.000457
256 0.000467
257 0.000476
258 0.000484
259 0.000486
260 0.000487
261 0.000490
262 0.000494
263 0.000490
264 0.000490
265 0.000485
266 0.000486
267 0.000483
268 0.000481
269 0.000477
270 0.000476
271 0.000473
272 0.000470
273 0.000467
274 0.000463
275 0.000466
276 0.000471
277 0.000477
278 0.000485
279 0.000489
280 0.000493
281 0.000489
282 0.000484
283 0.000480
284 0.000474
285 0.000472
286 0.000473
287 0.000473
288 0.000468
289 0.000463
290 0.000459
291 0.000456
292 0.000451
293 0.000447
294 0.000443
295 0.000443
296 0.000441
297 0.000435
298 0.000428
299 0.000426
300 0.000424
301 0.000424
302 0.000422
303 0.000424
304 0.000431
305 0.000440
306 0.000454
307 0.000459
308 0.000462
309 0.000465
310 0.000465
311 0.000463
312 0.000457
313 0.000451
314 0.000452
315 0.000453
316 0.000455
317 0.000457
318 0.000457
319 0.000458
320 0.000464
321 0.000464
322 0.000457
323 0.000455
324 0.000449
325 0.000449
326 0.000448
327 0.000446
328 0.000437
329 0.000432
330 0.000428
331 0.000422
332 0.000418
333 0.000411
334 0.000411
335 0.000410
336 0.000412
337 0.000414
338 0.000415
339 0.000415
340 0.000415
341 0.000415
342 0.000413
343 0.000407
344 0.000405
345 0.000406
346 0.000408
347 0.000402
348 0.000400
349 0.000402
350 0.000406
351 0.000401
352 0.000393
353 0.000379
354 0.000375
355 0.000375
356 0.000372
357 0.000375
358 0.000385
359 0.000397
360 0.000407
361 0.000417
362 0.000430
363 0.000442
364 0.000454
365 0.000456
366 0.000460
367 0.000463
368 0.000461
369 0.000458
370 0.000453
371 0.000449
372 0.000443
373 0.000438
374 0.000436
375 0.000428
376 0.000421
377 0.000414
378 0.000411
379 0.000411
380 0.000411
381 0.000413
382 0.000417
383 0.000424
384 0.000429
385 0.000433
386 0.000440
387 0.000444
388 0.000446
389 0.000443
390 0.000442
391 0.000436
392 0.000431
393 0.000433
394 0.000433
395 0.000431
396 0.000427
397 0.000421
398 0.000418
399 0.000417
400 0.000416
401 0.000415
402 0.000416
403 0.000424
404 0.000429
405 0.000429
406 0.000423
407 0.000424
408 0.000431
409 0.000443
410 0.000450
411 0.000454
412 0.000459
413 0.000463
414 0.000463
415 0.000458
416 0.000451
417 0.000443
418 0.000435
419 0.000428
420 0.000418
421 0.000413
422 0.000408
423 0.000401
424 0.000401
425 0.000402
426 0.000404
427 0.000406
428 0.000407
429 0.000404
430 0.000404
431 0.000404
432 0.000395
433 0.000391
434 0.000384
435 0.000378
436 0.000369
437 0.000365
438 0.000362
439 0.000361
440 0.000359
441 0.000363
442 0.000367
443 0.000370
444 0.000379
445 0.000382
446 0.000384
447 0.000386
448 0.000386
449 0.000388
450 0.000388
451 0.000384
452 0.000385
453 0.000385
454 0.000379
455 0.000378
456 0.000380
457 0.000383
458 0.000383
459 0.000384
460 0.000381
461 0.000378
462 0.000376
463 0.000376
464 0.000380
465 0.000387
466 0.000395
467 0.000397
468 0.000396
469 0.000391
470 0.000386
471 0.000377
472 0.000366
473 0.000356
474 0.000351
475 0.000347
476 0.000349
477 0.000346
478 0.000342
479 0.000337
480 0.000335
481 0.000334
482 0.000328
483 0.000324
484 0.000319
485 0.000316
486 0.000312
487 0.000306
488 0.000301
489 0.000295
490 0.000294
491 0.000291
492 0.000286
493 0.000279
494 0.000274
495 0.000267
496 0.000261
497 0.000260
498 0.000260
499 0.000260
500 0.000258
501 0.000260
502 0.000258
503 0.000257
504 0.000255
505 0.000253
506 0.000253
507 0.000250
508 0.000250
509 0.000250
510 0.000251
511 0.000256
512 0.000259
513 0.000260
514 0.000260
515 0.000260
516 0.000262
517 0.000265
518 0.000272
519 0.000279
520 0.000282
521 0.000280
522 0.000283
523 0.000278
524 0.000274
525 0.000272
526 0.000264
527 0.000257
528 0.000251
529 0.000247
530 0.000241
531 0.000236
532 0.000235
533 0.000240
534 0.000244
535 0.000249
536 0.000252
537 0.000257
538 0.000263
539 0.000271
540 0.000274
541 0.000275
542 0.000274
543 0.000274
544 0.000273
545 0.000273
546 0.000275
547 0.000279
548 0.000279
549 0.000281
550 0.000279
551 0.000282
552 0.000285
553 0.000289
554 0.000289
555 0.000287
556 0.000282
557 0.000276
558 0.000270
559 0.000263
560 0.000258
561 0.000255
562 0.000253
563 0.000255
564 0.000254
565 0.000254
566 0.000254
567 0.000255
568 0.000259
569 0.000258
570 0.000258
571 0.000256
572 0.000254
573 0.000256
574 0.000258
575 0.000251
576 0.000245
577 0.000239
578 0.000237
579 0.000237
580 0.000234
581 0.000234
582 0.000231
583 0.000228
584 0.000224
585 0.000222
586 0.000222
587 0.000222
588 0.000223
589 0.000223
590 0.000219
591 0.000214
592 0.000213
593 0.000210
594 0.000206
595 0.000208
596 0.000208
597 0.000211
598 0.000211
599 0.000213
600 0.000215
601 0.000213
602 0.000215
603 0.000213
604 0.000210
605 0.000212
606 0.000215
607 0.000214
608 0.000212
609 0.000208
610 0.000208
611 0.000208
612 0.000212
613 0.000212
614 0.000213
615 0.000213
616 0.000218
617 0.000219
618 0.000220
619 0.000221
620 0.000221
621 0.000221
622 0.000222
623 0.000223
624 0.000227
625 0.000233
626 0.000242
627 0.000253
628 0.000261
629 0.000265
630 0.000268
631 0.000268
632 0.000270
633 0.000269
634 0.000267
635 0.000267
636 0.000269
637 0.000274
638 0.000276
639 0.000275
640 0.000279
641 0.000284
642 0.000288
643 0.000294
644 0.000304
645 0.000313
646 0.000321
647 0.000325
648 0.000329
649 0.000332
650 0.000337
651 0.000340
652 0.000345
653 0.000349
654 0.000350
655 0.000346
656 0.000339
657 0.000330
658 0.000324
659 0.000318
660 0.000308
661 0.000301
662 0.000292
663 0.000284
664 0.000274
665 0.000270
666 0.000272
667 0.000276
668 0.000282
669 0.000288
670 0.000291
671 0.000298
672 0.000302
673 0.000307
674 0.000309
675 0.000314
676 0.000319
677 0.000320
678 0.000318
679 0.000316
680 0.000313
681 0.000308
682 0.000306
683 0.000305
684 0.000303
685 0.000307
686 0.000309
687 0.000313
688 0.000316
689 0.000323
690 0.000330
691 0.000337
692 0.000343
693 0.000347
694 0.000349
695 0.000348
696 0.000347
697 0.000344
698 0.000340
699 0.000335
700 0.000333
701 0.000327
702 0.000319
703 0.000313
704 0.000308
705 0.000302
706 0.000298
707 0.000290
708 0.000287
709 0.000283
710 0.000279
711 0.000273
712 0.000262
713 0.000253
714 0.000246
715 0.000238
716 0.000232
717 0.000227
718 0.000222
719 0.000220
720 0.000217
721 0.000216
722 0.000215
723 0.000218
724 0.000224
725 0.000231
726 0.000236
727 0.000239
728 0.000238
729 0.000240
730 0.000246
731 0.000249
732 0.000251
733 0.000252
734 0.000251
735 0.000249
736 0.000247
737 0.000243
738 0.000238
739 0.000235
740 0.000234
741 0.000231
742 0.000230
743 0.000227
744 0.000225
745 0.000229
746 0.000235
747 0.000238
748 0.000240
749 0.000240
750 0.000242
751 0.000245
752 0.000250
753 0.000254
754 0.000260
755 0.000264
756 0.000267
757 0.000268
758 0.000271
759 0.000272
760 0.000271
761 0.000271
762 0.000274
763 0.000274
764 0.000276
765 0.000278
766 0.000279
767 0.000283
768 0.000289
769 0.000294
770 0.000304
771 0.000311
772 0.000317
773 0.000325
774 0.000330
775 0.000333
776 0.000336
777 0.000336
778 0.000332
779 0.000329
780 0.000328
781 0.000327
782 0.000326
783 0.000326
784 0.000325
785 0.000322
786 0.000318
787 0.000310
788 0.000303
789 0.000298
790 0.000295
791 0.000291
792 0.000288
793 0.000285
794 0.000285
795 0.000286
796 0.000289
797 0.000293
798 0.000297
799 0.000298
800 0.000296
801 0.000295
802 0.000293
803 0.000293
804 0.000294
805 0.000297
806 0.000298
807 0.000300
808 0.000300
809 0.000299
