# i correlation
1 0.001833
2 0.001769
3 0.001710
4 0.001666
5 0.001628
6 0.001598
7 0.001574
8 0.001555
9 0.001539
10 0.001528
11 0.001516
12 0.001506
13 0.001501
14 0.001489
15 0.001472
16 0.001454
17 0.001437
18 0.001430
19 0.001422
20 0.001417
21 0.001411
22 0.001405
23 0.001393
24 0.001377
25 0.001360
26 0.001344
27 0.001338
28 0.001327
29 0.001314
30 0.001304
31 0.001289
32 0.001285
33 0.001278
34 0.001275
35 0.001273
36 0.001261
37 0.001244
38 0.001228
39 0.001221
40 0.001214
41 0.001216
42 0.001217
43 0.001222
44 0.001231
45 0.001235
46 0.001235
47 0.001237
48 0.001241
49 0.001240
50 0.001233
51 0.001223
52 0.001217
53 0.001207
54 0.001202
55 0.001196
56 0.001195
57 0.001196
58 0.001190
59 0.001186
60 0.001185
61 0.001184
62 0.001184
63 0.001180
64 0.001180
65 0.001175
66 0.001169
67 0.001169
68 0.001161
69 0.001156
70 0.001151
71 0.001146
72 0.001141
73 0.001134
74 0.001132
75 0.001129
76 0.001122
77 0.001111
78 0.001107
79 0.001107
80 0.001107
81 0.001101
82 0.001083
83 0.001064
84 0.001052
85 0.001043
86 0.001036
87 0.001028
88 0.001017
89 0.001016
90 0.001017
91 0.001014
92 0.001012
93 0.001007
94 0.001009
95 0.001005
96 0.001005
97 0.001002
98 0.000992
99 0.000982
100 0.000969
101 0.000960
102 0.000951
103 0.000948
104 0.000939
105 0.000931
106 0.000926
107 0.000916
108 0.000919
109 0.000916
110 0.000911
111 0.000905
112 0.000897
113 0.000893
114 0.000890
115 0.000894
116 0.000897
117 0.000896
118 0.000897
119 0.000897
120 0.000894
121 0.000899
122 0.000900
123 0.000903
124 0.000914
125 0.000922
126 0.000931
127 0.000932
128 0.000933
129 0.000935
130 0.000935
131 0.000938
132 0.000938
133 0.000935
134 0.000928
135 0.000917
136 0.000913
137 0.000906
138 0.000905
139 0.000901
140 0.000897
141 0.000888
142 0.000882
143 0.000880
144 0.000880
145 0.000879
146 0.000876
147 0.000875
148 0.000870
149 0.000867
150 0.000869
151 0.000872
152 0.000867
153 0.000859
154 0.000850
155 0.000841
156 0.000835
157 0.000831
158 0.000825
159 0.000822
160 0.000817
161 0.000813
162 0.000801
163 0.000790
164 0.000785
165 0.000784
166 0.000780
167 0.000771
168 0.000770
169 0.000768
170 0.000765
171 0.000764
172 0.000771
173 0.000782
174 0.000786
175 0.000787
176 0.000781
177 0.000778
178 0.000777
179 0.000776
180 0.000771
181 0.000768
182 0.000771
183 0.000770
184 0.000770
185 0.000768
186 0.000770
187 0.000771
188 0.000774
189 0.000771
190 0.000769
191 0.000765
192 0.000761
193 0.000759
194 0.000755
195 0.000759
196 0.000763
197 0.000759
198 0.000752
199 0.000744
200 0.000740
201 0.000736
202 0.000729
203 0.000728
204 0.000732
205 0.000739
206 0.000740
207 0.000728
208 0.000717
209 0.000709
210 0.000696
211 0.000686
212 0.000679
213 0.000671
214 0.000665
215 0.000655
216 0.000650
217 0.000646
218 0.000650
219 0.000651
220 0.000647
221 0.000640
222 0.000631
223 0.000627
224 0.000628
225 0.000631
226 0.000638
227 0.000639
228 0.000637
229 0.000634
230 0.000625
231 0.000614
232 0.000603
233 0.000592
234 0.000582
235 0.000566
236 0.000556
237 0.000549
238 0.000538
239 0.000542
240 0.000545
241 0.000545
242 0.000542
243 0.000530
244 0.000525
245 0.000520
246 0.000520
247 0.000520
248 0.000518
249 0.000519
250 0.000515
251 0.000506
252 0.000503
253 0.000511
254 0.000512
255 0.000510
256 0.000505
257 0.000501
258 0.000503
259 0.000507
260 0.000517
261 0.000519
262 0.000519
263 0.000513
264 0.000514
265 0.000510
266 0.000506
267 0.000503
268 0.000508
269 0.000515
270 0.000516
271 0.000515
272 0.000511
273 0.000511
274 0.000516
275 0.000518
276 0.000516
277 0.000516
278 0.000512
279 0.000505
280 0.000499
281 0.000495
282 0.000489
283 0.000485
284 0.000484
285 0.000481
286 0.000473
287 0.000469
288 0.000461
289 0.000456
290 0.000457
291 0.000454
292 0.000444
293 0.000433
294 0.000427
295 0.000420
296 0.000415
297 0.000410
298 0.000405
299 0.000400
300 0.000388
301 0.000385
302 0.000386
303 0.000392
304 0.000397
305 0.000400
306 0.000402
307 0.000403
308 0.000405
309 0.000407
310 0.000407
311 0.000400
312 0.000394
313 0.000391
314 0.000393
315 0.000392
316 0.000396
317 0.000402
318 0.000407
319 0.000410
320 0.000417
321 0.000423
322 0.000431
323 0.000439
324 0.000443
325 0.000449
326 0.000451
327 0.000448
328 0.000441
329 0.000443
330 0.000438
331 0.000433
332 0.000428
333 0.000430
334 0.000427
335 0.000421
336 0.000419
337 0.000419
338 0.000423
339 0.000426
340 0.000426
341 0.000421
342 0.000420
343 0.000421
344 0.000424
345 0.000423
346 0.000418
347 0.000419
348 0.000412
349 0.000406
350 0.000402
351 0.000395
352 0.000391
353 0.000387
354 0.000381
355 0.000383
356 0.000388
357 0.000391
358 0.000393
359 0.000390
360 0.000388
361 0.000381
362 0.000367
363 0.000355
364 0.000343
365 0.000338
366 0.000333
367 0.000325
368 0.000321
369 0.000320
370 0.000324
371 0.000331
372 0.000333
373 0.000334
374 0.000333
375 0.000329
376 0.000324
377 0.000327
378 0.000333
379 0.000341
380 0.000342
381 0.000342
382 0.000338
383 0.000335
384 0.000327
385 0.000318
386 0.000306
387 0.000299
388 0.000292
389 0.000289
390 0.000287
391 0.000290
392 0.000297
393 0.000311
394 0.000318
395 0.000324
396 0.000324
397 0.000319
398 0.000316
399 0.000319
400 0.000329
401 0.000341
402 0.000342
403 0.000337
404 0.000331
405 0.000330
406 0.000330
407 0.000328
408 0.000327
409 0.000326
410 0.000323
411 0.000317
412 0.000311
413 0.000304
414 0.000308
415 0.000312
416 0.000311
417 0.000311
418 0.000307
419 0.000308
420 0.000309
421 0.000309
422 0.000310
423 0.000311
424 0.000310
425 0.000306
426 0.000293
427 0.000284
428 0.000282
429 0.000276
430 0.000275
431 0.000270
432 0.000264
433 0.000257
434 0.000255
435 0.000257
436 0.000251
437 0.000248
438 0.000240
439 0.000231
440 0.000224
441 0.000223
442 0.000222
443 0.000226
444 0.000230
445 0.000232
446 0.000239
447 0.000241
448 0.000243
449 0.000249
450 0.000255
451 0.000256
452 0.000260
453 0.000262
454 0.000262
455 0.000269
456 0.000272
457 0.000276
458 0.000278
459 0.000282
460 0.000283
461 0.000274
462 0.000264
463 0.000261
464 0.000260
465 0.000261
466 0.000263
467 0.000264
468 0.000266
469 0.000274
470 0.000276
471 0.000280
472 0.000280
473 0.000285
474 0.000289
475 0.000287
476 0.000285
477 0.000282
478 0.000280
479 0.000280
480 0.000282
481 0.000281
482 0.000284
483 0.000278
484 0.000273
485 0.000265
486 0.000261
487 0.000260
488 0.000256
489 0.000254
490 0.000256
491 0.000255
492 0.000256
493 0.000255
494 0.000256
495 0.000257
496 0.000255
497 0.000251
498 0.000245
499 0.000240
500 0.000236
501 0.000235
502 0.000238
503 0.000239
504 0.000245
505 0.000247
506 0.000253
507 0.000249
508 0.000247
509 0.000245
510 0.000242
511 0.000237
512 0.000228
513 0.000222
514 0.000218
515 0.000219
516 0.000217
517 0.000219
518 0.000215
519 0.000211
520 0.000204
521 0.000199
522 0.000198
523 0.000196
524 0.000197
525 0.000198
526 0.000200
527 0.000203
528 0.000203
529 0.000206
530 0.000211
531 0.000216
532 0.000216
533 0.000221
534 0.000228
535 0.000234
536 0.000240
537 0.000239
538 0.000243
539 0.000244
540 0.000243
541 0.000238
542 0.000235
543 0.000236
544 0.000238
545 0.000238
546 0.000236
547 0.000235
548 0.000238
549 0.000246
550 0.000255
551 0.000262
552 0.000271
553 0.000277
554 0.000278
555 0.000276
556 0.000274
557 0.000269
558 0.000266
559 0.000265
560 0.000262
561 0.000264
562 0.000260
563 0.000259
564 0.000254
565 0.000251
566 0.000253
567 0.000258
568 0.000261
569 0.000261
570 0.000258
571 0.000257
572 0.000254
573 0.000249
574 0.000249
575 0.000250
576 0.000246
577 0.000240
578 0.000237
579 0.000236
580 0.000231
581 0.000227
582 0.000222
583 0.000219
584 0.000220
585 0.000223
586 0.000227
587 0.000230
588 0.000230
589 0.000230
590 0.000228
591 0.000227
592 0.000224
593 0.000224
594 0.000221
595 0.000223
596 0.000228
597 0.000239
598 0.000248
599 0.000255
600 0.000262
601 0.000267
602 0.000268
603 0.000267
604 0.000262
605 0.000260
606 0.000261
607 0.000264
608 0.000264
609 0.000264
610 0.000263
611 0.000262
612 0.000256
613 0.000252
614 0.000249
615 0.000244
616 0.000243
617 0.000243
618 0.000243
619 0.000243
620 0.000243
621 0.000241
622 0.000232
623 0.000223
624 0.000215
625 0.000210
626 0.000201
627 0.000192
628 0.000188
629 0.000184
630 0.000182
631 0.000178
632 0.000177
633 0.000176
634 0.000173
635 0.000171
636 0.000168
637 0.000165
638 0.000159
639 0.000154
640 0.000150
641 0.000149
642 0.000150
643 0.000147
644 0.000136
645 0.000124
646 0.000119
647 0.000118
648 0.000121
649 0.000121
650 0.000120
651 0.000119
652 0.000119
653 0.000122
654 0.000124
655 0.000128
656 0.000130
657 0.000127
658 0.000124
659 0.000118
660 0.000113
661 0.000115
662 0.000114
663 0.000115
664 0.000120
665 0.000124
666 0.000128
667 0.000132
668 0.000134
669 0.000137
670 0.000140
671 0.000138
672 0.000136
673 0.000129
674 0.000129
675 0.000131
676 0.000136
677 0.000142
678 0.000145
679 0.000147
680 0.000150
681 0.000152
682 0.000153
683 0.000157
684 0.000159
685 0.000162
686 0.000161
687 0.000160
688 0.000160
689 0.000158
690 0.000154
691 0.000150
692 0.000143
693 0.000137
694 0.000128
695 0.000120
696 0.000116
697 0.000116
698 0.000113
699 0.000117
700 0.000119
701 0.000116
702 0.000110
703 0.000106
704 0.000102
705 0.000099
706 0.000096
707 0.000089
708 0.000083
709 0.000077
710 0.000073
711 0.000072
712 0.000072
713 0.000073
714 0.000072
715 0.000074
716 0.000074
717 0.000076
718 0.000080
719 0.000082
720 0.000082
721 0.000080
722 0.000082
723 0.000084
724 0.000087
725 0.000087
726 0.000092
727 0.000098
728 0.000099
729 0.000104
730 0.000104
731 0.000104
732 0.000103
733 0.000108
734 0.000115
735 0.000123
736 0.000131
737 0.000136
738 0.000142
739 0.000147
740 0.000152
741 0.000156
742 0.000159
743 0.000160
744 0.000161
745 0.000162
746 0.000160
747 0.000161
748 0.000163
749 0.000162
750 0.000162
751 0.000162
752 0.000158
753 0.000151
754 0.000149
755 0.000146
756 0.000144
757 0.000145
758 0.000146
759 0.000147
760 0.000144
761 0.000144
762 0.000143
763 0.000144
764 0.000150
765 0.000150
766 0.000150
767 0.000147
768 0.000144
769 0.000137
770 0.000134
771 0.000131
772 0.000129
773 0.000128
774 0.000129
775 0.000131
776 0.000131
777 0.000131
778 0.000127
779 0.000125
780 0.000123
781 0.000118
782 0.000114
783 0.000112
784 0.000108
785 0.000108
786 0.000107
787 0.000103
788 0.000097
789 0.000091
790 0.000087
791 0.000082
792 0.000079
793 0.000080
794 0.000082
795 0.000082
796 0.000083
797 0.000083
798 0.000082
799 0.000078
800 0.000077
801 0.000074
802 0.000075
803 0.000075
804 0.000075
805 0.000076
806 0.000075
807 0.000077
808 0.000078
809 0.000084
