# i correlation
1 0.001860
2 0.001801
3 0.001746
4 0.001695
5 0.001652
6 0.001621
7 0.001598
8 0.001582
9 0.001578
10 0.001570
11 0.001557
12 0.001542
13 0.001528
14 0.001516
15 0.001494
16 0.001475
17 0.001458
18 0.001437
19 0.001422
20 0.001409
21 0.001395
22 0.001384
23 0.001368
24 0.001350
25 0.001336
26 0.001325
27 0.001312
28 0.001299
29 0.001291
30 0.001288
31 0.001290
32 0.001294
33 0.001296
34 0.001295
35 0.001292
36 0.001285
37 0.001278
38 0.001274
39 0.001277
40 0.001279
41 0.001277
42 0.001277
43 0.001274
44 0.001270
45 0.001270
46 0.001261
47 0.001256
48 0.001257
49 0.001261
50 0.001263
51 0.001260
52 0.001260
53 0.001263
54 0.001272
55 0.001272
56 0.001269
57 0.001266
58 0.001258
59 0.001247
60 0.001237
61 0.001225
62 0.001218
63 0.001213
64 0.001216
65 0.001214
66 0.001216
67 0.001216
68 0.001217
69 0.001220
70 0.001217
71 0.001215
72 0.001207
73 0.001194
74 0.001181
75 0.001172
76 0.001175
77 0.001169
78 0.001167
79 0.001162
80 0.001154
81 0.001152
82 0.001142
83 0.001135
84 0.001129
85 0.001123
86 0.001118
87 0.001114
88 0.001101
89 0.001090
90 0.001082
91 0.001065
92 0.001054
93 0.001045
94 0.001034
95 0.001019
96 0.001010
97 0.001005
98 0.001005
99 0.001005
100 0.000997
101 0.000994
102 0.000991
103 0.000988
104 0.000981
105 0.000977
106 0.000972
107 0.000969
108 0.000962
109 0.000957
110 0.000952
111 0.000945
112 0.000935
113 0.000922
114 0.000909
115 0.000899
116 0.000892
117 0.000882
118 0.000880
119 0.000877
120 0.000871
121 0.000872
122 0.000871
123 0.000865
124 0.000862
125 0.000857
126 0.000851
127 0.000844
128 0.000836
129 0.000830
130 0.000830
131 0.000829
132 0.000831
133 0.000833
134 0.000829
135 0.000830
136 0.000824
137 0.000819
138 0.000815
139 0.000808
140 0.000804
141 0.000803
142 0.000803
143 0.000803
144 0.000809
145 0.000813
146 0.000810
147 0.000807
148 0.000801
149 0.000789
150 0.000780
151 0.000766
152 0.000760
153 0.000746
154 0.000733
155 0.000726
156 0.000725
157 0.000727
158 0.000732
159 0.000735
160 0.000734
161 0.000736
162 0.000734
163 0.000732
164 0.000728
165 0.000725
166 0.000720
167 0.000715
168 0.000705
169 0.000700
170 0.000691
171 0.000678
172 0.000674
173 0.000674
174 0.000674
175 0.000677
176 0.000681
177 0.000679
178 0.000675
179 0.000676
180 0.000670
181 0.000666
182 0.000667
183 0.000669
184 0.000674
185 0.000676
186 0.000680
187 0.000684
188 0.000685
189 0.000680
190 0.000668
191 0.000657
192 0.000646
193 0.000636
194 0.000620
195 0.000609
196 0.000601
197 0.000596
198 0.000592
199 0.000581
200 0.000567
201 0.000556
202 0.000553
203 0.000549
204 0.000541
205 0.000535
206 0.000531
207 0.000518
208 0.000510
209 0.000503
210 0.000492
211 0.000483
212 0.000478
213 0.000467
214 0.000459
215 0.000455
216 0.000456
217 0.000452
218 0.000446
219 0.000440
220 0.000431
221 0.000421
222 0.000415
223 0.000413
224 0.000412
225 0.000412
226 0.000415
227 0.000414
228 0.000419
229 0.000426
230 0.000426
231 0.000422
232 0.000422
233 0.000422
234 0.000421
235 0.000420
236 0.000423
237 0.000437
238 0.000451
239 0.000463
240 0.000469
241 0.000467
242 0.000464
243 0.000460
244 0.000458
245 0.000456
246 0.000457
247 0.000462
248 0.000471
249 0.000471
250 0.000471
251 0.000474
252 0.000471
253 0.000470
254 0.000475
255 0.000476
256 0.000478
257 0.000479
258 0.000478
259 0.000474
260 0.000474
261 0.000469
262 0.000464
263 0.000459
264 0.000458
265 0.000455
266 0.000454
267 0.000448
268 0.000442
269 0.000439
270 0.000435
271 0.000433
272 0.000426
273 0.000423
274 0.000421
275 0.000413
276 0.000403
277 0.000397
278 0.000390
279 0.000381
280 0.000375
281 0.000372
282 0.000366
283 0.000365
284 0.000356
285 0.000350
286 0.000346
287 0.000344
288 0.000342
289 0.000344
290 0.000344
291 0.000346
292 0.000347
293 0.000351
294 0.000352
295 0.000352
296 0.000354
297 0.000353
298 0.000348
299 0.000346
300 0.000336
301 0.000323
302 0.000309
303 0.000300
304 0.000295
305 0.000289
306 0.000285
307 0.000283
308 0.000284
309 0.000287
310 0.000293
311 0.000297
312 0.000294
313 0.000296
314 0.000294
315 0.000292
316 0.000293
317 0.000292
318 0.000288
319 0.000287
320 0.000291
321 0.000291
322 0.000291
323 0.000294
324 0.000301
325 0.000308
326 0.000320
327 0.000331
328 0.000339
329 0.000345
330 0.000351
331 0.000358
332 0.000362
333 0.000363
334 0.000364
335 0.000366
336 0.000364
337 0.000362
338 0.000366
339 0.000371
340 0.000376
341 0.000384
342 0.000388
343 0.000394
344 0.000400
345 0.000401
346 0.000401
347 0.000401
348 0.000399
349 0.000396
350 0.000392
351 0.000387
352 0.000382
353 0.000375
354 0.000370
355 0.000364
356 0.000355
357 0.000346
358 0.000340
359 0.000335
360 0.000332
361 0.000331
362 0.000332
363 0.000329
364 0.000331
365 0.000332
366 0.000331
367 0.000331
368 0.000329
369 0.000328
370 0.000329
371 0.000328
372 0.000328
373 0.000328
374 0.000326
375 0.000328
376 0.000324
377 0.000319
378 0.000321
379 0.000327
380 0.000336
381 0.000345
382 0.000352
383 0.000352
384 0.000356
385 0.000358
386 0.000358
387 0.000352
388 0.000347
389 0.000347
390 0.000346
391 0.000349
392 0.000351
393 0.000353
394 0.000356
395 0.000363
396 0.000370
397 0.000372
398 0.000375
399 0.000379
400 0.000384
401 0.000388
402 0.000390
403 0.000389
404 0.000390
405 0.000387
406 0.000383
407 0.000378
408 0.000372
409 0.000367
410 0.000364
411 0.000362
412 0.000361
413 0.000363
414 0.000370
415 0.000375
416 0.000380
417 0.000381
418 0.000383
419 0.000380
420 0.000372
421 0.000369
422 0.000370
423 0.000371
424 0.000372
425 0.000376
426 0.000379
427 0.000385
428 0.000389
429 0.000390
430 0.000388
431 0.000388
432 0.000384
433 0.000380
434 0.000377
435 0.000377
436 0.000382
437 0.000385
438 0.000387
439 0.000386
440 0.000389
441 0.000396
442 0.000401
443 0.000406
444 0.000411
445 0.000413
446 0.000410
447 0.000406
448 0.000402
449 0.000400
450 0.000403
451 0.000407
452 0.000411
453 0.000415
454 0.000417
455 0.000416
456 0.000412
457 0.000414
458 0.000417
459 0.000414
460 0.000414
461 0.000411
462 0.000403
463 0.000393
464 0.000379
465 0.000366
466 0.000355
467 0.000347
468 0.000345
469 0.000340
470 0.000339
471 0.000338
472 0.000342
473 0.000342
474 0.000341
475 0.000338
476 0.000334
477 0.000327
478 0.000320
479 0.000315
480 0.000315
481 0.000317
482 0.000317
483 0.000323
484 0.000327
485 0.000332
486 0.000335
487 0.000334
488 0.000330
489 0.000327
490 0.000327
491 0.000327
492 0.000331
493 0.000336
494 0.000343
495 0.000347
496 0.000348
497 0.000347
498 0.000342
499 0.000343
500 0.000349
501 0.000351
502 0.000357
503 0.000361
504 0.000364
505 0.000368
506 0.000373
507 0.000377
508 0.000384
509 0.000387
510 0.000390
511 0.000393
512 0.000397
513 0.000399
514 0.000401
515 0.000403
516 0.000404
517 0.000408
518 0.000409
519 0.000409
520 0.000410
521 0.000411
522 0.000414
523 0.000416
524 0.000421
525 0.000426
526 0.000436
527 0.000442
528 0.000446
529 0.000451
530 0.000458
531 0.000461
532 0.000455
533 0.000446
534 0.000440
535 0.000430
536 0.000423
537 0.000422
538 0.000418
539 0.000419
540 0.000421
541 0.000421
542 0.000416
543 0.000411
544 0.000407
545 0.000399
546 0.000388
547 0.000380
548 0.000370
549 0.000365
550 0.000362
551 0.000359
552 0.000355
553 0.000350
554 0.000345
555 0.000339
556 0.000332
557 0.000329
558 0.000327
559 0.000329
560 0.000334
561 0.000338
562 0.000340
563 0.000342
564 0.000348
565 0.000350
566 0.000352
567 0.000356
568 0.000358
569 0.000360
570 0.000359
571 0.000365
572 0.000368
573 0.000373
574 0.000376
575 0.000378
576 0.000383
577 0.000388
578 0.000392
579 0.000393
580 0.000394
581 0.000394
582 0.000394
583 0.000391
584 0.000393
585 0.000390
586 0.000388
587 0.000389
588 0.000393
589 0.000392
590 0.000395
591 0.000397
592 0.000397
593 0.000400
594 0.000404
595 0.000403
596 0.000396
597 0.000388
598 0.000381
599 0.000376
600 0.000369
601 0.000361
602 0.000359
603 0.000360
604 0.000358
605 0.000358
606 0.000355
607 0.000357
608 0.000356
609 0.000356
610 0.000359
611 0.000357
612 0.000354
613 0.000349
614 0.000340
615 0.000331
616 0.000328
617 0.000327
618 0.000327
619 0.000329
620 0.000331
621 0.000334
622 0.000331
623 0.000324
624 0.000317
625 0.000309
626 0.000305
627 0.000301
628 0.000300
629 0.000300
630 0.000301
631 0.000304
632 0.000305
633 0.000314
634 0.000319
635 0.000324
636 0.000327
637 0.000331
638 0.000334
639 0.000333
640 0.000334
641 0.000333
642 0.000334
643 0.000338
644 0.000341
645 0.000346
646 0.000347
647 0.000349
648 0.000352
649 0.000353
650 0.000352
651 0.000350
652 0.000350
653 0.000347
654 0.000344
655 0.000342
656 0.000340
657 0.000339
658 0.000338
659 0.000340
660 0.000344
661 0.000347
662 0.000349
663 0.000350
664 0.000343
665 0.000339
666 0.000337
667 0.000334
668 0.000330
669 0.000329
670 0.000333
671 0.000336
672 0.000335
673 0.000334
674 0.000335
675 0.000334
676 0.000337
677 0.000335
678 0.000335
679 0.000335
680 0.000333
681 0.000333
682 0.000332
683 0.000334
684 0.000332
685 0.000331
686 0.000328
687 0.000329
688 0.000329
689 0.000334
690 0.000341
691 0.000347
692 0.000355
693 0.000363
694 0.000364
695 0.000365
696 0.000362
697 0.000360
698 0.000356
699 0.000354
700 0.000354
701 0.000353
702 0.000354
703 0.000349
704 0.000346
705 0.000344
706 0.000342
707 0.000337
708 0.000333
709 0.000335
710 0.000339
711 0.000342
712 0.000345
713 0.000347
714 0.000348
715 0.000350
716 0.000350
717 0.000348
718 0.000343
719 0.000338
720 0.000330
721 0.000323
722 0.000315
723 0.000309
724 0.000305
725 0.000300
726 0.000298
727 0.000295
728 0.000292
729 0.000290
730 0.000286
731 0.000282
732 0.000283
733 0.000280
734 0.000278
735 0.000274
736 0.000267
737 0.000259
738 0.000252
739 0.000248
740 0.000246
741 0.000243
742 0.000242
743 0.000242
744 0.000239
745 0.000236
746 0.000235
747 0.000236
748 0.000237
749 0.000239
750 0.000241
751 0.000240
752 0.000240
753 0.000241
754 0.000243
755 0.000249
756 0.000252
757 0.000255
758 0.000255
759 0.000255
760 0.000252
761 0.000246
762 0.000238
763 0.000231
764 0.000229
765 0.000227
766 0.000227
767 0.000226
768 0.000229
769 0.000233
770 0.000237
771 0.000239
772 0.000236
773 0.000232
774 0.000225
775 0.000219
776 0.000215
777 0.000213
778 0.000215
779 0.000220
780 0.000228
781 0.000237
782 0.000242
783 0.000245
784 0.000243
785 0.000242
786 0.000238
787 0.000234
788 0.000228
789 0.000225
790 0.000223
791 0.000221
792 0.000221
793 0.000220
794 0.000218
795 0.000215
796 0.000212
797 0.000210
798 0.000207
799 0.000203
800 0.000202
801 0.000202
802 0.000204
803 0.000204
804 0.000204
805 0.000201
806 0.000195
807 0.000190
808 0.000183
809 0.000176
