# i correlation
1 0.001612
2 0.001552
3 0.001493
4 0.001443
5 0.001402
6 0.001363
7 0.001326
8 0.001297
9 0.001274
10 0.001250
11 0.001239
12 0.001233
13 0.001222
14 0.001215
15 0.001208
16 0.001199
17 0.001194
18 0.001187
19 0.001177
20 0.001161
21 0.001142
22 0.001118
23 0.001105
24 0.001091
25 0.001082
26 0.001072
27 0.001065
28 0.001066
29 0.001069
30 0.001067
31 0.001060
32 0.001057
33 0.001048
34 0.001037
35 0.001029
36 0.001014
37 0.001003
38 0.000990
39 0.000978
40 0.000966
41 0.000953
42 0.000940
43 0.000934
44 0.000921
45 0.000908
46 0.000894
47 0.000885
48 0.000876
49 0.000876
50 0.000877
51 0.000874
52 0.000870
53 0.000863
54 0.000855
55 0.000841
56 0.000828
57 0.000820
58 0.000816
59 0.000807
60 0.000802
61 0.000795
62 0.000789
63 0.000780
64 0.000773
65 0.000767
66 0.000768
67 0.000767
68 0.000761
69 0.000760
70 0.000755
71 0.000750
72 0.000745
73 0.000732
74 0.000719
75 0.000709
76 0.000706
77 0.000708
78 0.000714
79 0.000714
80 0.000713
81 0.000718
82 0.000717
83 0.000714
84 0.000714
85 0.000720
86 0.000723
87 0.000715
88 0.000713
89 0.000709
90 0.000707
91 0.000701
92 0.000698
93 0.000694
94 0.000695
95 0.000703
96 0.000711
97 0.000725
98 0.000734
99 0.000747
100 0.000755
101 0.000771
102 0.000778
103 0.000780
104 0.000789
105 0.000787
106 0.000789
107 0.000789
108 0.000782
109 0.000785
110 0.000783
111 0.000777
112 0.000773
113 0.000768
114 0.000765
115 0.000764
116 0.000761
117 0.000758
118 0.000762
119 0.000759
120 0.000764
121 0.000767
122 0.000766
123 0.000760
124 0.000755
125 0.000755
126 0.000753
127 0.000757
128 0.000762
129 0.000771
130 0.000774
131 0.000770
132 0.000765
133 0.000759
134 0.000753
135 0.000751
136 0.000748
137 0.000739
138 0.000735
139 0.000732
140 0.000726
141 0.000722
142 0.000720
143 0.000717
144 0.000719
145 0.000711
146 0.000702
147 0.000699
148 0.000698
149 0.000700
150 0.000705
151 0.000709
152 0.000710
153 0.000709
154 0.000694
155 0.000689
156 0.000685
157 0.000676
158 0.000672
159 0.000660
160 0.000650
161 0.000644
162 0.000639
163 0.000641
164 0.000647
165 0.000650
166 0.000649
167 0.000649
168 0.000646
169 0.000642
170 0.000643
171 0.000636
172 0.000629
173 0.000625
174 0.000618
175 0.000609
176 0.000607
177 0.000598
178 0.000595
179 0.000592
180 0.000595
181 0.000605
182 0.000623
183 0.000633
184 0.000640
185 0.000648
186 0.000649
187 0.000656
188 0.000662
189 0.000668
190 0.000670
191 0.000667
192 0.000658
193 0.000649
194 0.000642
195 0.000638
196 0.000632
197 0.000628
198 0.000626
199 0.000623
200 0.000622
201 0.000618
202 0.000617
203 0.000613
204 0.000608
205 0.000604
206 0.000600
207 0.000589
208 0.000578
209 0.000564
210 0.000559
211 0.000560
212 0.000557
213 0.000557
214 0.000558
215 0.000554
216 0.000554
217 0.000559
218 0.000558
219 0.000561
220 0.000561
221 0.000564
222 0.000568
223 0.000565
224 0.000559
225 0.000553
226 0.000545
227 0.000541
228 0.000534
229 0.000532
230 0.000534
231 0.000535
232 0.000537
233 0.000541
234 0.000552
235 0.000560
236 0.000565
237 0.000568
238 0.000567
239 0.000576
240 0.000581
241 0.000583
242 0.000584
243 0.000581
244 0.000573
245 0.000560
246 0.000550
247 0.000544
248 0.000543
249 0.000542
250 0.000543
251 0.000549
252 0.000553
253 0.000557
254 0.000561
255 0.000563
256 0.000559
257 0.000560
258 0.000553
259 0.000545
260 0.000537
261 0.000520
262 0.000509
263 0.000496
264 0.000485
265 0.000481
266 0.000473
267 0.000469
268 0.000471
269 0.000471
270 0.000469
271 0.000470
272 0.000474
273 0.000482
274 0.000488
275 0.000484
276 0.000479
277 0.000480
278 0.000476
279 0.000469
280 0.000460
281 0.000449
282 0.000445
283 0.000448
284 0.000453
285 0.000458
286 0.000462
287 0.000460
288 0.000455
289 0.000453
290 0.000440
291 0.000434
292 0.000432
293 0.000430
294 0.000431
295 0.000427
296 0.000430
297 0.000435
298 0.000434
299 0.000429
300 0.000425
301 0.000428
302 0.000435
303 0.000442
304 0.000438
305 0.000433
306 0.000429
307 0.000429
308 0.000432
309 0.000434
310 0.000428
311 0.000428
312 0.000426
313 0.000423
314 0.000425
315 0.000428
316 0.000427
317 0.000430
318 0.000434
319 0.000432
320 0.000440
321 0.000443
322 0.000442
323 0.000439
324 0.000435
325 0.000429
326 0.000431
327 0.000429
328 0.000426
329 0.000424
330 0.000416
331 0.000412
332 0.000405
333 0.000400
334 0.000395
335 0.000389
336 0.000384
337 0.000380
338 0.000377
339 0.000377
340 0.000383
341 0.000389
342 0.000392
343 0.000394
344 0.000388
345 0.000384
346 0.000385
347 0.000383
348 0.000381
349 0.000377
350 0.000378
351 0.000376
352 0.000378
353 0.000383
354 0.000387
355 0.000397
356 0.000405
357 0.000411
358 0.000419
359 0.000421
360 0.000418
361 0.000417
362 0.000413
363 0.000415
364 0.000415
365 0.000411
366 0.000407
367 0.000405
368 0.000404
369 0.000409
370 0.000413
371 0.000415
372 0.000417
373 0.000420
374 0.000425
375 0.000426
376 0.000419
377 0.000414
378 0.000412
379 0.000409
380 0.000408
381 0.000403
382 0.000403
383 0.000406
384 0.000411
385 0.000414
386 0.000420
387 0.000431
388 0.000438
389 0.000437
390 0.000433
391 0.000426
392 0.000426
393 0.000425
394 0.000419
395 0.000415
396 0.000405
397 0.000390
398 0.000378
399 0.000369
400 0.000360
401 0.000352
402 0.000343
403 0.000340
404 0.000340
405 0.000336
406 0.000335
407 0.000336
408 0.000332
409 0.000324
410 0.000316
411 0.000304
412 0.000300
413 0.000297
414 0.000291
415 0.000288
416 0.000288
417 0.000293
418 0.000302
419 0.000310
420 0.000312
421 0.000322
422 0.000328
423 0.000334
424 0.000344
425 0.000354
426 0.000358
427 0.000363
428 0.000365
429 0.000362
430 0.000360
431 0.000356
432 0.000351
433 0.000348
434 0.000339
435 0.000337
436 0.000340
437 0.000345
438 0.000352
439 0.000355
440 0.000355
441 0.000356
442 0.000354
443 0.000347
444 0.000341
445 0.000334
446 0.000328
447 0.000325
448 0.000320
449 0.000319
450 0.000322
451 0.000321
452 0.000324
453 0.000327
454 0.000330
455 0.000335
456 0.000340
457 0.000348
458 0.000351
459 0.000351
460 0.000346
461 0.000341
462 0.000336
463 0.000328
464 0.000324
465 0.000321
466 0.000317
467 0.000318
468 0.000323
469 0.000331
470 0.000340
471 0.000344
472 0.000348
473 0.000353
474 0.000358
475 0.000360
476 0.000366
477 0.000367
478 0.000372
479 0.000374
480 0.000372
481 0.000369
482 0.000368
483 0.000365
484 0.000367
485 0.000372
486 0.000372
487 0.000373
488 0.000372
489 0.000375
490 0.000378
491 0.000386
492 0.000387
493 0.000387
494 0.000388
495 0.000387
496 0.000386
497 0.000390
498 0.000388
499 0.000391
500 0.000390
501 0.000383
502 0.000372
503 0.000367
504 0.000361
505 0.000357
506 0.000358
507 0.000360
508 0.000368
509 0.000377
510 0.000389
511 0.000392
512 0.000393
513 0.000390
514 0.000387
515 0.000382
516 0.000378
517 0.000371
518 0.000361
519 0.000352
520 0.000343
521 0.000336
522 0.000327
523 0.000323
524 0.000323
525 0.000326
526 0.000328
527 0.000333
528 0.000338
529 0.000341
530 0.000342
531 0.000341
532 0.000333
533 0.000325
534 0.000315
535 0.000308
536 0.000304
537 0.000304
538 0.000304
539 0.000306
540 0.000306
541 0.000302
542 0.000299
543 0.000295
544 0.000291
545 0.000291
546 0.000286
547 0.000284
548 0.000281
549 0.000277
550 0.000275
551 0.000278
552 0.000280
553 0.000281
554 0.000284
555 0.000283
556 0.000287
557 0.000297
558 0.000305
559 0.000315
560 0.000320
561 0.000325
562 0.000329
563 0.000334
564 0.000334
565 0.000328
566 0.000326
567 0.000322
568 0.000323
569 0.000323
570 0.000331
571 0.000336
572 0.000338
573 0.000332
574 0.000329
575 0.000327
576 0.000330
577 0.000339
578 0.000342
579 0.000345
580 0.000350
581 0.000354
582 0.000361
583 0.000363
584 0.000361
585 0.000361
586 0.000363
587 0.000363
588 0.000359
589 0.000356
590 0.000348
591 0.000344
592 0.000339
593 0.000333
594 0.000330
595 0.000328
596 0.000324
597 0.000323
598 0.000324
599 0.000325
600 0.000326
601 0.000325
602 0.000323
603 0.000321
604 0.000318
605 0.000317
606 0.000319
607 0.000327
608 0.000327
609 0.000331
610 0.000335
611 0.000338
612 0.000341
613 0.000343
614 0.000345
615 0.000349
616 0.000351
617 0.000351
618 0.000350
619 0.000350
620 0.000348
621 0.000349
622 0.000348
623 0.000343
624 0.000336
625 0.000332
626 0.000331
627 0.000330
628 0.000330
629 0.000327
630 0.000321
631 0.000315
632 0.000309
633 0.000302
634 0.000297
635 0.000295
636 0.000289
637 0.000286
638 0.000285
639 0.000287
640 0.000291
641 0.000292
642 0.000295
643 0.000292
644 0.000292
645 0.000287
646 0.000283
647 0.000279
648 0.000276
649 0.000271
650 0.000266
651 0.000258
652 0.000256
653 0.000248
654 0.000244
655 0.000237
656 0.000233
657 0.000232
658 0.000232
659 0.000230
660 0.000230
661 0.000235
662 0.000233
663 0.000233
664 0.000236
665 0.000240
666 0.000243
667 0.000249
668 0.000250
669 0.000253
670 0.000253
671 0.000254
672 0.000258
673 0.000260
674 0.000260
675 0.000261
676 0.000266
677 0.000271
678 0.000273
679 0.000275
680 0.000275
681 0.000278
682 0.000282
683 0.000282
684 0.000282
685 0.000280
686 0.000275
687 0.000268
688 0.000262
689 0.000258
690 0.000255
691 0.000255
692 0.000257
693 0.000257
694 0.000253
695 0.000251
696 0.000249
697 0.000250
698 0.000248
699 0.000248
700 0.000248
701 0.000248
702 0.000243
703 0.000239
704 0.000238
705 0.000238
706 0.000236
707 0.000234
708 0.000230
709 0.000227
710 0.000227
711 0.000229
712 0.000230
713 0.000229
714 0.000232
715 0.000235
716 0.000239
717 0.000239
718 0.000236
719 0.000232
720 0.000231
721 0.000229
722 0.000226
723 0.000221
724 0.000214
725 0.000205
726 0.000199
727 0.000197
728 0.000195
729 0.000194
730 0.000195
731 0.000190
732 0.000187
733 0.000185
734 0.000186
735 0.000188
736 0.000190
737 0.000187
738 0.000182
739 0.000178
740 0.000173
741 0.000170
742 0.000170
743 0.000169
744 0.000167
745 0.000164
746 0.000162
747 0.000162
748 0.000161
749 0.000160
750 0.000161
751 0.000165
752 0.000163
753 0.000162
754 0.000160
755 0.000158
756 0.000156
757 0.000151
758 0.000148
759 0.000144
760 0.000138
761 0.000134
762 0.000131
763 0.000129
764 0.000127
765 0.000126
766 0.000125
767 0.000125
768 0.000128
769 0.000131
770 0.000139
771 0.000146
772 0.000152
773 0.000155
774 0.000157
775 0.000155
776 0.000152
777 0.000150
778 0.000150
779 0.000149
780 0.000148
781 0.000150
782 0.000150
783 0.000153
784 0.000156
785 0.000161
786 0.000164
787 0.000167
788 0.000167
789 0.000167
790 0.000163
791 0.000160
792 0.000158
793 0.000157
794 0.000155
795 0.000151
796 0.000147
797 0.000148
798 0.000149
799 0.000151
800 0.000153
801 0.000156
802 0.000158
803 0.000158
804 0.000159
805 0.000162
806 0.000165
807 0.000166
808 0.000167
809 0.000168
