# i correlation
1 0.001967
2 0.001901
3 0.001842
4 0.001791
5 0.001740
6 0.001702
7 0.001666
8 0.001637
9 0.001609
10 0.001590
11 0.001576
12 0.001567
13 0.001558
14 0.001544
15 0.001528
16 0.001513
17 0.001497
18 0.001482
19 0.001463
20 0.001443
21 0.001433
22 0.001424
23 0.001421
24 0.001410
25 0.001403
26 0.001403
27 0.001398
28 0.001393
29 0.001395
30 0.001398
31 0.001396
32 0.001394
33 0.001387
34 0.001378
35 0.001368
36 0.001351
37 0.001327
38 0.001298
39 0.001273
40 0.001256
41 0.001244
42 0.001236
43 0.001226
44 0.001220
45 0.001221
46 0.001225
47 0.001225
48 0.001218
49 0.001208
50 0.001201
51 0.001191
52 0.001185
53 0.001181
54 0.001173
55 0.001166
56 0.001165
57 0.001157
58 0.001151
59 0.001145
60 0.001137
61 0.001135
62 0.001134
63 0.001127
64 0.001107
65 0.001092
66 0.001075
67 0.001065
68 0.001061
69 0.001064
70 0.001070
71 0.001076
72 0.001082
73 0.001082
74 0.001082
75 0.001080
76 0.001074
77 0.001063
78 0.001052
79 0.001051
80 0.001048
81 0.001048
82 0.001055
83 0.001064
84 0.001069
85 0.001074
86 0.001087
87 0.001101
88 0.001111
89 0.001117
90 0.001112
91 0.001101
92 0.001090
93 0.001081
94 0.001069
95 0.001058
96 0.001045
97 0.001031
98 0.001027
99 0.001015
100 0.001010
101 0.001013
102 0.001018
103 0.001015
104 0.001016
105 0.001019
106 0.001026
107 0.001024
108 0.001018
109 0.001011
110 0.001002
111 0.000991
112 0.000978
113 0.000963
114 0.000953
115 0.000952
116 0.000958
117 0.000970
118 0.000982
119 0.000998
120 0.001006
121 0.001010
122 0.001003
123 0.000999
124 0.000996
125 0.000987
126 0.000971
127 0.000957
128 0.000946
129 0.000940
130 0.000929
131 0.000922
132 0.000920
133 0.000921
134 0.000919
135 0.000915
136 0.000909
137 0.000906
138 0.000902
139 0.000896
140 0.000887
141 0.000877
142 0.000875
143 0.000864
144 0.000854
145 0.000846
146 0.000841
147 0.000838
148 0.000833
149 0.000825
150 0.000819
151 0.000810
152 0.000805
153 0.000798
154 0.000792
155 0.000785
156 0.000783
157 0.000780
158 0.000782
159 0.000780
160 0.000779
161 0.000783
162 0.000784
163 0.000788
164 0.000789
165 0.000792
166 0.000787
167 0.000779
168 0.000774
169 0.000766
170 0.000754
171 0.000741
172 0.000732
173 0.000721
174 0.000716
175 0.000710
176 0.000701
177 0.000695
178 0.000686
179 0.000682
180 0.000679
181 0.000682
182 0.000685
183 0.000680
184 0.000676
185 0.000671
186 0.000665
187 0.000660
188 0.000659
189 0.000655
190 0.000663
191 0.000672
192 0.000680
193 0.000685
194 0.000690
195 0.000695
196 0.000699
197 0.000700
198 0.000705
199 0.000705
200 0.000702
201 0.000694
202 0.000688
203 0.000680
204 0.000672
205 0.000671
206 0.000664
207 0.000656
208 0.000658
209 0.000660
210 0.000659
211 0.000660
212 0.000663
213 0.000661
214 0.000656
215 0.000652
216 0.000647
217 0.000646
218 0.000637
219 0.000629
220 0.000622
221 0.000619
222 0.000618
223 0.000616
224 0.000611
225 0.000609
226 0.000608
227 0.000601
228 0.000593
229 0.000585
230 0.000577
231 0.000569
232 0.000555
233 0.000548
234 0.000541
235 0.000536
236 0.000529
237 0.000521
238 0.000522
239 0.000524
240 0.000524
241 0.000518
242 0.000509
243 0.000503
244 0.000504
245 0.000506
246 0.000511
247 0.000513
248 0.000511
249 0.000509
250 0.000508
251 0.000511
252 0.000520
253 0.000519
254 0.000520
255 0.000518
256 0.000516
257 0.000510
258 0.000511
259 0.000506
260 0.000496
261 0.000489
262 0.000483
263 0.000478
264 0.000482
265 0.000487
266 0.000491
267 0.000497
268 0.000510
269 0.000521
270 0.000539
271 0.000560
272 0.000570
273 0.000579
274 0.000580
275 0.000575
276 0.000566
277 0.000560
278 0.000548
279 0.000542
280 0.000534
281 0.000536
282 0.000539
283 0.000545
284 0.000552
285 0.000562
286 0.000567
287 0.000569
288 0.000572
289 0.000570
290 0.000559
291 0.000550
292 0.000537
293 0.000528
294 0.000522
295 0.000515
296 0.000510
297 0.000506
298 0.000504
299 0.000497
300 0.000499
301 0.000502
302 0.000510
303 0.000517
304 0.000519
305 0.000520
306 0.000524
307 0.000526
308 0.000526
309 0.000521
310 0.000515
311 0.000507
312 0.000498
313 0.000485
314 0.000479
315 0.000474
316 0.000471
317 0.000471
318 0.000467
319 0.000467
320 0.000466
321 0.000462
322 0.000452
323 0.000446
324 0.000440
325 0.000430
326 0.000423
327 0.000425
328 0.000432
329 0.000437
330 0.000437
331 0.000440
332 0.000443
333 0.000448
334 0.000447
335 0.000443
336 0.000434
337 0.000424
338 0.000420
339 0.000416
340 0.000416
341 0.000418
342 0.000417
343 0.000405
344 0.000399
345 0.000397
346 0.000392
347 0.000390
348 0.000382
349 0.000373
350 0.000369
351 0.000364
352 0.000357
353 0.000362
354 0.000367
355 0.000370
356 0.000369
357 0.000369
358 0.000370
359 0.000374
360 0.000375
361 0.000373
362 0.000371
363 0.000376
364 0.000382
365 0.000384
366 0.000379
367 0.000374
368 0.000363
369 0.000351
370 0.000346
371 0.000340
372 0.000336
373 0.000337
374 0.000337
375 0.000341
376 0.000341
377 0.000344
378 0.000345
379 0.000346
380 0.000346
381 0.000343
382 0.000338
383 0.000337
384 0.000332
385 0.000331
386 0.000337
387 0.000343
388 0.000348
389 0.000360
390 0.000371
391 0.000385
392 0.000391
393 0.000393
394 0.000394
395 0.000396
396 0.000396
397 0.000390
398 0.000378
399 0.000364
400 0.000356
401 0.000348
402 0.000346
403 0.000352
404 0.000360
405 0.000364
406 0.000364
407 0.000369
408 0.000372
409 0.000376
410 0.000386
411 0.000390
412 0.000394
413 0.000395
414 0.000397
415 0.000402
416 0.000410
417 0.000416
418 0.000418
419 0.000417
420 0.000423
421 0.000428
422 0.000427
423 0.000424
424 0.000421
425 0.000419
426 0.000423
427 0.000425
428 0.000423
429 0.000420
430 0.000414
431 0.000408
432 0.000399
433 0.000395
434 0.000392
435 0.000389
436 0.000396
437 0.000406
438 0.000417
439 0.000427
440 0.000436
441 0.000438
442 0.000441
443 0.000442
444 0.000439
445 0.000434
446 0.000432
447 0.000427
448 0.000426
449 0.000425
450 0.000426
451 0.000425
452 0.000430
453 0.000430
454 0.000427
455 0.000418
456 0.000413
457 0.000409
458 0.000402
459 0.000396
460 0.000386
461 0.000381
462 0.000378
463 0.000379
464 0.000376
465 0.000378
466 0.000385
467 0.000391
468 0.000395
469 0.000402
470 0.000407
471 0.000416
472 0.000424
473 0.000435
474 0.000438
475 0.000441
476 0.000445
477 0.000453
478 0.000458
479 0.000468
480 0.000475
481 0.000479
482 0.000482
483 0.000483
484 0.000479
485 0.000478
486 0.000474
487 0.000471
488 0.000465
489 0.000459
490 0.000451
491 0.000448
492 0.000445
493 0.000445
494 0.000444
495 0.000439
496 0.000436
497 0.000434
498 0.000439
499 0.000443
500 0.000445
501 0.000446
502 0.000446
503 0.000445
504 0.000443
505 0.000442
506 0.000440
507 0.000432
508 0.000428
509 0.000424
510 0.000422
511 0.000419
512 0.000419
513 0.000417
514 0.000417
515 0.000414
516 0.000406
517 0.000393
518 0.000378
519 0.000365
520 0.000355
521 0.000341
522 0.000332
523 0.000324
524 0.000318
525 0.000314
526 0.000310
527 0.000309
528 0.000315
529 0.000324
530 0.000324
531 0.000326
532 0.000332
533 0.000335
534 0.000333
535 0.000335
536 0.000336
537 0.000336
538 0.000337
539 0.000339
540 0.000342
541 0.000347
542 0.000350
543 0.000351
544 0.000354
545 0.000361
546 0.000364
547 0.000362
548 0.000352
549 0.000343
550 0.000336
551 0.000325
552 0.000319
553 0.000312
554 0.000310
555 0.000311
556 0.000314
557 0.000316
558 0.000327
559 0.000340
560 0.000348
561 0.000354
562 0.000360
563 0.000365
564 0.000366
565 0.000363
566 0.000362
567 0.000367
568 0.000375
569 0.000380
570 0.000385
571 0.000389
572 0.000395
573 0.000401
574 0.000404
575 0.000411
576 0.000414
577 0.000422
578 0.000431
579 0.000440
580 0.000445
581 0.000450
582 0.000452
583 0.000447
584 0.000442
585 0.000441
586 0.000442
587 0.000443
588 0.000442
589 0.000441
590 0.000438
591 0.000437
592 0.000438
593 0.000436
594 0.000435
595 0.000435
596 0.000431
597 0.000426
598 0.000421
599 0.000418
600 0.000421
601 0.000425
602 0.000430
603 0.000438
604 0.000448
605 0.000455
606 0.000462
607 0.000461
608 0.000463
609 0.000461
610 0.000460
611 0.000458
612 0.000459
613 0.000458
614 0.000458
615 0.000462
616 0.000458
617 0.000458
618 0.000456
619 0.000457
620 0.000455
621 0.000454
622 0.000450
623 0.000444
624 0.000441
625 0.000438
626 0.000433
627 0.000432
628 0.000425
629 0.000422
630 0.000421
631 0.000416
632 0.000408
633 0.000403
634 0.000401
635 0.000400
636 0.000398
637 0.000394
638 0.000394
639 0.000390
640 0.000387
641 0.000386
642 0.000385
643 0.000382
644 0.000374
645 0.000366
646 0.000355
647 0.000346
648 0.000343
649 0.000343
650 0.000341
651 0.000340
652 0.000339
653 0.000339
654 0.000337
655 0.000335
656 0.000339
657 0.000342
658 0.000340
659 0.000338
660 0.000336
661 0.000340
662 0.000345
663 0.000346
664 0.000352
665 0.000356
666 0.000358
667 0.000360
668 0.000364
669 0.000364
670 0.000365
671 0.000365
672 0.000365
673 0.000368
674 0.000371
675 0.000375
676 0.000379
677 0.000380
678 0.000378
679 0.000381
680 0.000381
681 0.000376
682 0.000373
683 0.000373
684 0.000372
685 0.000369
686 0.000368
687 0.000367
688 0.000371
689 0.000377
690 0.000384
691 0.000391
692 0.000400
693 0.000405
694 0.000409
695 0.000411
696 0.000414
697 0.000418
698 0.000427
699 0.000434
700 0.000438
701 0.000443
702 0.000450
703 0.000456
704 0.000462
705 0.000464
706 0.000470
707 0.000474
708 0.000477
709 0.000475
710 0.000475
711 0.000475
712 0.000475
713 0.000471
714 0.000470
715 0.000466
716 0.000466
717 0.000463
718 0.000459
719 0.000455
720 0.000453
721 0.000450
722 0.000448
723 0.000446
724 0.000446
725 0.000447
726 0.000443
727 0.000442
728 0.000442
729 0.000440
730 0.000437
731 0.000437
732 0.000433
733 0.000429
734 0.000423
735 0.000421
736 0.000419
737 0.000418
738 0.000420
739 0.000418
740 0.000414
741 0.000405
742 0.000397
743 0.000393
744 0.000393
745 0.000395
746 0.000397
747 0.000395
748 0.000395
749 0.000392
750 0.000394
751 0.000397
752 0.000400
753 0.000401
754 0.000405
755 0.000406
756 0.000404
757 0.000399
758 0.000399
759 0.000399
760 0.000397
761 0.000397
762 0.000396
763 0.000396
764 0.000394
765 0.000392
766 0.000389
767 0.000389
768 0.000386
769 0.000385
770 0.000381
771 0.000379
772 0.000373
773 0.000368
774 0.000366
775 0.000366
776 0.000363
777 0.000363
778 0.000361
779 0.000359
780 0.000363
781 0.000367
782 0.000369
783 0.000369
784 0.000367
785 0.000364
786 0.000360
787 0.000358
788 0.000353
789 0.000346
790 0.000339
791 0.000335
792 0.000328
793 0.000322
794 0.000317
795 0.000310
796 0.000307
797 0.000304
798 0.000299
799 0.000296
800 0.000293
801 0.000291
802 0.000287
803 0.000286
804 0.000282
805 0.000280
806 0.000279
807 0.000279
808 0.000277
809 0.000277
