# i correlation
1 0.001966
2 0.001900
3 0.001845
4 0.001793
5 0.001750
6 0.001716
7 0.001682
8 0.001646
9 0.001622
10 0.001600
11 0.001580
12 0.001555
13 0.001542
14 0.001532
15 0.001524
16 0.001515
17 0.001509
18 0.001498
19 0.001491
20 0.001486
21 0.001487
22 0.001482
23 0.001478
24 0.001473
25 0.001463
26 0.001450
27 0.001437
28 0.001421
29 0.001407
30 0.001401
31 0.001391
32 0.001388
33 0.001378
34 0.001369
35 0.001360
36 0.001345
37 0.001330
38 0.001315
39 0.001302
40 0.001289
41 0.001276
42 0.001271
43 0.001265
44 0.001253
45 0.001240
46 0.001228
47 0.001220
48 0.001212
49 0.001201
50 0.001188
51 0.001182
52 0.001177
53 0.001180
54 0.001187
55 0.001191
56 0.001196
57 0.001203
58 0.001210
59 0.001213
60 0.001214
61 0.001211
62 0.001203
63 0.001198
64 0.001202
65 0.001201
66 0.001204
67 0.001205
68 0.001205
69 0.001206
70 0.001201
71 0.001191
72 0.001183
73 0.001178
74 0.001177
75 0.001181
76 0.001184
77 0.001185
78 0.001190
79 0.001190
80 0.001181
81 0.001181
82 0.001177
83 0.001178
84 0.001178
85 0.001180
86 0.001179
87 0.001182
88 0.001183
89 0.001185
90 0.001189
91 0.001192
92 0.001193
93 0.001189
94 0.001190
95 0.001189
96 0.001182
97 0.001172
98 0.001162
99 0.001154
100 0.001145
101 0.001134
102 0.001123
103 0.001118
104 0.001116
105 0.001114
106 0.001112
107 0.001105
108 0.001097
109 0.001091
110 0.001090
111 0.001090
112 0.001090
113 0.001090
114 0.001084
115 0.001084
116 0.001081
117 0.001075
118 0.001069
119 0.001063
120 0.001057
121 0.001050
122 0.001049
123 0.001048
124 0.001041
125 0.001035
126 0.001036
127 0.001037
128 0.001032
129 0.001030
130 0.001024
131 0.001015
132 0.001007
133 0.001007
134 0.001008
135 0.000999
136 0.000995
137 0.000990
138 0.000982
139 0.000975
140 0.000962
141 0.000947
142 0.000941
143 0.000944
144 0.000947
145 0.000950
146 0.000948
147 0.000952
148 0.000959
149 0.000962
150 0.000966
151 0.000970
152 0.000971
153 0.000973
154 0.000976
155 0.000978
156 0.000970
157 0.000960
158 0.000951
159 0.000946
160 0.000944
161 0.000943
162 0.000938
163 0.000936
164 0.000932
165 0.000929
166 0.000931
167 0.000928
168 0.000936
169 0.000947
170 0.000954
171 0.000961
172 0.000958
173 0.000949
174 0.000941
175 0.000934
176 0.000930
177 0.000930
178 0.000922
179 0.000918
180 0.000920
181 0.000924
182 0.000930
183 0.000931
184 0.000930
185 0.000933
186 0.000934
187 0.000933
188 0.000928
189 0.000929
190 0.000926
191 0.000933
192 0.000939
193 0.000944
194 0.000948
195 0.000949
196 0.000947
197 0.000943
198 0.000934
199 0.000924
200 0.000924
201 0.000921
202 0.000920
203 0.000924
204 0.000926
205 0.000921
206 0.000915
207 0.000905
208 0.000897
209 0.000894
210 0.000898
211 0.000900
212 0.000907
213 0.000912
214 0.000918
215 0.000923
216 0.000927
217 0.000930
218 0.000928
219 0.000924
220 0.000923
221 0.000924
222 0.000916
223 0.000911
224 0.000901
225 0.000894
226 0.000892
227 0.000889
228 0.000882
229 0.000873
230 0.000864
231 0.000853
232 0.000845
233 0.000837
234 0.000831
235 0.000823
236 0.000818
237 0.000811
238 0.000807
239 0.000803
240 0.000800
241 0.000798
242 0.000794
243 0.000784
244 0.000773
245 0.000766
246 0.000762
247 0.000765
248 0.000763
249 0.000762
250 0.000756
251 0.000751
252 0.000743
253 0.000728
254 0.000709
255 0.000690
256 0.000671
257 0.000660
258 0.000651
259 0.000648
260 0.000647
261 0.000646
262 0.000649
263 0.000647
264 0.000647
265 0.000641
266 0.000630
267 0.000620
268 0.000613
269 0.000605
270 0.000603
271 0.000600
272 0.000600
273 0.000598
274 0.000598
275 0.000600
276 0.000599
277 0.000595
278 0.000596
279 0.000597
280 0.000588
281 0.000589
282 0.000591
283 0.000591
284 0.000594
285 0.000593
286 0.000592
287 0.000593
288 0.000591
289 0.000587
290 0.000582
291 0.000576
292 0.000574
293 0.000569
294 0.000567
295 0.000571
296 0.000569
297 0.000568
298 0.000570
299 0.000574
300 0.000578
301 0.000572
302 0.000571
303 0.000570
304 0.000572
305 0.000578
306 0.000587
307 0.000588
308 0.000587
309 0.000583
310 0.000582
311 0.000581
312 0.000570
313 0.000566
314 0.000562
315 0.000564
316 0.000568
317 0.000575
318 0.000577
319 0.000576
320 0.000573
321 0.000571
322 0.000569
323 0.000564
324 0.000557
325 0.000546
326 0.000536
327 0.000527
328 0.000523
329 0.000519
330 0.000520
331 0.000519
332 0.000521
333 0.000522
334 0.000520
335 0.000515
336 0.000512
337 0.000511
338 0.000511
339 0.000515
340 0.000525
341 0.000527
342 0.000526
343 0.000531
344 0.000526
345 0.000526
346 0.000523
347 0.000518
348 0.000514
349 0.000510
350 0.000504
351 0.000500
352 0.000492
353 0.000484
354 0.000478
355 0.000471
356 0.000464
357 0.000464
358 0.000460
359 0.000453
360 0.000446
361 0.000435
362 0.000428
363 0.000426
364 0.000425
365 0.000427
366 0.000434
367 0.000435
368 0.000437
369 0.000435
370 0.000436
371 0.000434
372 0.000432
373 0.000435
374 0.000442
375 0.000451
376 0.000454
377 0.000455
378 0.000451
379 0.000440
380 0.000436
381 0.000438
382 0.000439
383 0.000444
384 0.000451
385 0.000457
386 0.000461
387 0.000465
388 0.000468
389 0.000473
390 0.000475
391 0.000478
392 0.000477
393 0.000473
394 0.000477
395 0.000475
396 0.000473
397 0.000477
398 0.000479
399 0.000477
400 0.000477
401 0.000477
402 0.000477
403 0.000474
404 0.000466
405 0.000462
406 0.000461
407 0.000459
408 0.000456
409 0.000456
410 0.000456
411 0.000452
412 0.000455
413 0.000459
414 0.000462
415 0.000466
416 0.000472
417 0.000483
418 0.000498
419 0.000510
420 0.000513
421 0.000522
422 0.000529
423 0.000539
424 0.000547
425 0.000549
426 0.000550
427 0.000550
428 0.000550
429 0.000549
430 0.000545
431 0.000540
432 0.000539
433 0.000539
434 0.000534
435 0.000528
436 0.000522
437 0.000516
438 0.000509
439 0.000502
440 0.000493
441 0.000484
442 0.000478
443 0.000471
444 0.000471
445 0.000474
446 0.000474
447 0.000470
448 0.000467
449 0.000465
450 0.000462
451 0.000461
452 0.000456
453 0.000454
454 0.000457
455 0.000459
456 0.000455
457 0.000447
458 0.000438
459 0.000428
460 0.000421
461 0.000422
462 0.000419
463 0.000418
464 0.000416
465 0.000412
466 0.000409
467 0.000410
468 0.000408
469 0.000409
470 0.000412
471 0.000407
472 0.000406
473 0.000403
474 0.000401
475 0.000397
476 0.000398
477 0.000400
478 0.000403
479 0.000408
480 0.000410
481 0.000411
482 0.000405
483 0.000403
484 0.000405
485 0.000407
486 0.000405
487 0.000408
488 0.000414
489 0.000414
490 0.000415
491 0.000416
492 0.000415
493 0.000415
494 0.000415
495 0.000410
496 0.000402
497 0.000398
498 0.000396
499 0.000393
500 0.000394
501 0.000394
502 0.000395
503 0.000392
504 0.000393
505 0.000392
506 0.000389
507 0.000385
508 0.000384
509 0.000386
510 0.000387
511 0.000392
512 0.000398
513 0.000404
514 0.000410
515 0.000414
516 0.000415
517 0.000416
518 0.000416
519 0.000414
520 0.000411
521 0.000409
522 0.000401
523 0.000396
524 0.000390
525 0.000385
526 0.000379
527 0.000380
528 0.000382
529 0.000382
530 0.000378
531 0.000374
532 0.000374
533 0.000373
534 0.000375
535 0.000376
536 0.000379
537 0.000380
538 0.000380
539 0.000377
540 0.000382
541 0.000378
542 0.000372
543 0.000367
544 0.000365
545 0.000368
546 0.000373
547 0.000374
548 0.000369
549 0.000368
550 0.000362
551 0.000358
552 0.000357
553 0.000359
554 0.000359
555 0.000361
556 0.000359
557 0.000358
558 0.000360
559 0.000362
560 0.000368
561 0.000371
562 0.000376
563 0.000374
564 0.000373
565 0.000372
566 0.000376
567 0.000381
568 0.000383
569 0.000385
570 0.000391
571 0.000394
572 0.000393
573 0.000393
574 0.000395
575 0.000395
576 0.000396
577 0.000397
578 0.000402
579 0.000412
580 0.000416
581 0.000420
582 0.000419
583 0.000419
584 0.000420
585 0.000420
586 0.000413
587 0.000406
588 0.000401
589 0.000399
590 0.000396
591 0.000392
592 0.000393
593 0.000389
594 0.000388
595 0.000388
596 0.000386
597 0.000382
598 0.000382
599 0.000383
600 0.000388
601 0.000389
602 0.000391
603 0.000393
604 0.000395
605 0.000391
606 0.000389
607 0.000384
608 0.000380
609 0.000376
610 0.000375
611 0.000369
612 0.000359
613 0.000353
614 0.000348
615 0.000347
616 0.000346
617 0.000349
618 0.000353
619 0.000356
620 0.000359
621 0.000362
622 0.000366
623 0.000372
624 0.000381
625 0.000383
626 0.000377
627 0.000376
628 0.000376
629 0.000369
630 0.000360
631 0.000353
632 0.000350
633 0.000348
634 0.000349
635 0.000351
636 0.000352
637 0.000349
638 0.000353
639 0.000358
640 0.000363
641 0.000363
642 0.000364
643 0.000366
644 0.000365
645 0.000368
646 0.000370
647 0.000370
648 0.000367
649 0.000369
650 0.000371
651 0.000365
652 0.000360
653 0.000355
654 0.000347
655 0.000340
656 0.000338
657 0.000332
658 0.000327
659 0.000323
660 0.000320
661 0.000314
662 0.000308
663 0.000302
664 0.000293
665 0.000288
666 0.000286
667 0.000283
668 0.000277
669 0.000272
670 0.000267
671 0.000260
672 0.000254
673 0.000250
674 0.000245
675 0.000237
676 0.000232
677 0.000226
678 0.000222
679 0.000218
680 0.000216
681 0.000214
682 0.000211
683 0.000211
684 0.000211
685 0.000208
686 0.000200
687 0.000195
688 0.000191
689 0.000186
690 0.000183
691 0.000182
692 0.000178
693 0.000175
694 0.000172
695 0.000170
696 0.000172
697 0.000177
698 0.000180
699 0.000179
700 0.000180
701 0.000177
702 0.000173
703 0.000171
704 0.000170
705 0.000170
706 0.000170
707 0.000167
708 0.000168
709 0.000169
710 0.000172
711 0.000176
712 0.000178
713 0.000180
714 0.000180
715 0.000186
716 0.000188
717 0.000191
718 0.000194
719 0.000195
720 0.000196
721 0.000197
722 0.000196
723 0.000194
724 0.000194
725 0.000194
726 0.000192
727 0.000195
728 0.000197
729 0.000201
730 0.000201
731 0.000202
732 0.000206
733 0.000210
734 0.000213
735 0.000218
736 0.000218
737 0.000218
738 0.000217
739 0.000215
740 0.000215
741 0.000214
742 0.000213
743 0.000213
744 0.000212
745 0.000209
746 0.000205
747 0.000200
748 0.000195
749 0.000191
750 0.000190
751 0.000191
752 0.000191
753 0.000190
754 0.000194
755 0.000195
756 0.000196
757 0.000197
758 0.000195
759 0.000194
760 0.000193
761 0.000191
762 0.000187
763 0.000184
764 0.000177
765 0.000173
766 0.000170
767 0.000166
768 0.000162
769 0.000157
770 0.000152
771 0.000146
772 0.000145
773 0.000142
774 0.000138
775 0.000137
776 0.000138
777 0.000137
778 0.000135
779 0.000134
780 0.000132
781 0.000126
782 0.000123
783 0.000121
784 0.000119
785 0.000120
786 0.000119
787 0.000120
788 0.000121
789 0.000124
790 0.000122
791 0.000120
792 0.000118
793 0.000120
794 0.000124
795 0.000125
796 0.000131
797 0.000135
798 0.000135
799 0.000134
800 0.000137
801 0.000137
802 0.000137
803 0.000139
804 0.000142
805 0.000143
806 0.000145
807 0.000149
808 0.000150
809 0.000151
