# i correlation
1 0.001719
2 0.001662
3 0.001607
4 0.001563
5 0.001530
6 0.001507
7 0.001490
8 0.001474
9 0.001456
10 0.001435
11 0.001406
12 0.001381
13 0.001361
14 0.001346
15 0.001327
16 0.001311
17 0.001292
18 0.001274
19 0.001254
20 0.001229
21 0.001220
22 0.001204
23 0.001200
24 0.001190
25 0.001182
26 0.001170
27 0.001159
28 0.001149
29 0.001130
30 0.001111
31 0.001098
32 0.001079
33 0.001065
34 0.001050
35 0.001039
36 0.001026
37 0.001017
38 0.001007
39 0.000998
40 0.000992
41 0.000984
42 0.000975
43 0.000964
44 0.000959
45 0.000954
46 0.000947
47 0.000940
48 0.000936
49 0.000934
50 0.000932
51 0.000931
52 0.000933
53 0.000942
54 0.000949
55 0.000951
56 0.000945
57 0.000944
58 0.000936
59 0.000929
60 0.000923
61 0.000917
62 0.000911
63 0.000916
64 0.000917
65 0.000915
66 0.000914
67 0.000910
68 0.000909
69 0.000909
70 0.000907
71 0.000906
72 0.000900
73 0.000896
74 0.000889
75 0.000883
76 0.000885
77 0.000886
78 0.000891
79 0.000886
80 0.000884
81 0.000876
82 0.000870
83 0.000862
84 0.000856
85 0.000856
86 0.000853
87 0.000846
88 0.000841
89 0.000827
90 0.000814
91 0.000803
92 0.000802
93 0.000800
94 0.000802
95 0.000797
96 0.000786
97 0.000776
98 0.000763
99 0.000755
100 0.000743
101 0.000739
102 0.000733
103 0.000733
104 0.000733
105 0.000735
106 0.000730
107 0.000724
108 0.000722
109 0.000720
110 0.000720
111 0.000724
112 0.000721
113 0.000716
114 0.000713
115 0.000711
116 0.000705
117 0.000701
118 0.000704
119 0.000708
120 0.000713
121 0.000713
122 0.000717
123 0.000718
124 0.000715
125 0.000709
126 0.000706
127 0.000701
128 0.000702
129 0.000701
130 0.000702
131 0.000707
132 0.000713
133 0.000721
134 0.000735
135 0.000740
136 0.000744
137 0.000746
138 0.000744
139 0.000743
140 0.000742
141 0.000745
142 0.000749
143 0.000756
144 0.000753
145 0.000748
146 0.000745
147 0.000746
148 0.000743
149 0.000741
150 0.000738
151 0.000739
152 0.000748
153 0.000752
154 0.000753
155 0.000753
156 0.000749
157 0.000753
158 0.000761
159 0.000766
160 0.000768
161 0.000765
162 0.000762
163 0.000758
164 0.000753
165 0.000748
166 0.000750
167 0.000747
168 0.000743
169 0.000731
170 0.000725
171 0.000724
172 0.000717
173 0.000713
174 0.000712
175 0.000705
176 0.000698
177 0.000688
178 0.000675
179 0.000666
180 0.000654
181 0.000649
182 0.000634
183 0.000625
184 0.000616
185 0.000609
186 0.000601
187 0.000597
188 0.000598
189 0.000597
190 0.000592
191 0.000591
192 0.000590
193 0.000582
194 0.000570
195 0.000563
196 0.000556
197 0.000560
198 0.000563
199 0.000570
200 0.000572
201 0.000567
202 0.000565
203 0.000554
204 0.000551
205 0.000544
206 0.000543
207 0.000542
208 0.000543
209 0.000537
210 0.000524
211 0.000521
212 0.000519
213 0.000519
214 0.000520
215 0.000526
216 0.000539
217 0.000545
218 0.000542
219 0.000537
220 0.000533
221 0.000529
222 0.000527
223 0.000531
224 0.000529
225 0.000533
226 0.000536
227 0.000536
228 0.000536
229 0.000534
230 0.000534
231 0.000532
232 0.000530
233 0.000529
234 0.000525
235 0.000520
236 0.000518
237 0.000515
238 0.000514
239 0.000519
240 0.000522
241 0.000525
242 0.000526
243 0.000520
244 0.000516
245 0.000512
246 0.000516
247 0.000516
248 0.000511
249 0.000509
250 0.000503
251 0.000501
252 0.000504
253 0.000502
254 0.000503
255 0.000498
256 0.000494
257 0.000490
258 0.000485
259 0.000482
260 0.000480
261 0.000474
262 0.000470
263 0.000467
264 0.000463
265 0.000464
266 0.000467
267 0.000470
268 0.000477
269 0.000479
270 0.000482
271 0.000480
272 0.000476
273 0.000472
274 0.000470
275 0.000472
276 0.000478
277 0.000490
278 0.000492
279 0.000492
280 0.000492
281 0.000489
282 0.000490
283 0.000489
284 0.000488
285 0.000487
286 0.000492
287 0.000494
288 0.000493
289 0.000499
290 0.000503
291 0.000504
292 0.000506
293 0.000514
294 0.000525
295 0.000532
296 0.000539
297 0.000538
298 0.000535
299 0.000536
300 0.000536
301 0.000542
302 0.000543
303 0.000545
304 0.000543
305 0.000541
306 0.000538
307 0.000539
308 0.000540
309 0.000540
310 0.000545
311 0.000544
312 0.000541
313 0.000539
314 0.000536
315 0.000537
316 0.000532
317 0.000535
318 0.000535
319 0.000533
320 0.000531
321 0.000529
322 0.000529
323 0.000528
324 0.000527
325 0.000529
326 0.000530
327 0.000530
328 0.000529
329 0.000527
330 0.000522
331 0.000522
332 0.000520
333 0.000517
334 0.000519
335 0.000524
336 0.000523
337 0.000522
338 0.000517
339 0.000511
340 0.000507
341 0.000502
342 0.000495
343 0.000490
344 0.000481
345 0.000475
346 0.000468
347 0.000466
348 0.000466
349 0.000461
350 0.000460
351 0.000460
352 0.000455
353 0.000448
354 0.000442
355 0.000432
356 0.000423
357 0.000414
358 0.000406
359 0.000399
360 0.000392
361 0.000388
362 0.000388
363 0.000385
364 0.000382
365 0.000380
366 0.000374
367 0.000369
368 0.000360
369 0.000353
370 0.000350
371 0.000350
372 0.000354
373 0.000351
374 0.000351
375 0.000347
376 0.000341
377 0.000333
378 0.000326
379 0.000321
380 0.000315
381 0.000313
382 0.000312
383 0.000308
384 0.000296
385 0.000290
386 0.000283
387 0.000278
388 0.000284
389 0.000293
390 0.000297
391 0.000297
392 0.000294
393 0.000286
394 0.000280
395 0.000275
396 0.000272
397 0.000269
398 0.000268
399 0.000270
400 0.000273
401 0.000274
402 0.000272
403 0.000270
404 0.000275
405 0.000280
406 0.000285
407 0.000290
408 0.000295
409 0.000298
410 0.000294
411 0.000290
412 0.000288
413 0.000287
414 0.000288
415 0.000288
416 0.000290
417 0.000293
418 0.000294
419 0.000291
420 0.000290
421 0.000281
422 0.000272
423 0.000268
424 0.000262
425 0.000263
426 0.000263
427 0.000265
428 0.000265
429 0.000265
430 0.000263
431 0.000262
432 0.000263
433 0.000265
434 0.000264
435 0.000263
436 0.000263
437 0.000259
438 0.000258
439 0.000259
440 0.000259
441 0.000261
442 0.000266
443 0.000268
444 0.000268
445 0.000269
446 0.000269
447 0.000267
448 0.000272
449 0.000274
450 0.000274
451 0.000278
452 0.000277
453 0.000277
454 0.000278
455 0.000282
456 0.000289
457 0.000295
458 0.000304
459 0.000314
460 0.000322
461 0.000329
462 0.000339
463 0.000347
464 0.000355
465 0.000362
466 0.000367
467 0.000376
468 0.000381
469 0.000391
470 0.000396
471 0.000397
472 0.000399
473 0.000398
474 0.000400
475 0.000397
476 0.000396
477 0.000395
478 0.000394
479 0.000392
480 0.000389
481 0.000387
482 0.000390
483 0.000391
484 0.000395
485 0.000396
486 0.000399
487 0.000393
488 0.000394
489 0.000389
490 0.000383
491 0.000374
492 0.000369
493 0.000369
494 0.000371
495 0.000373
496 0.000372
497 0.000371
498 0.000371
499 0.000369
500 0.000369
501 0.000369
502 0.000371
503 0.000372
504 0.000365
505 0.000359
506 0.000356
507 0.000353
508 0.000348
509 0.000349
510 0.000351
511 0.000355
512 0.000362
513 0.000368
514 0.000372
515 0.000370
516 0.000367
517 0.000364
518 0.000360
519 0.000360
520 0.000359
521 0.000357
522 0.000357
523 0.000359
524 0.000361
525 0.000358
526 0.000356
527 0.000352
528 0.000353
529 0.000354
530 0.000354
531 0.000351
532 0.000344
533 0.000339
534 0.000337
535 0.000336
536 0.000334
537 0.000334
538 0.000334
539 0.000333
540 0.000335
541 0.000336
542 0.000336
543 0.000337
544 0.000333
545 0.000330
546 0.000327
547 0.000325
548 0.000327
549 0.000323
550 0.000317
551 0.000311
552 0.000304
553 0.000295
554 0.000289
555 0.000287
556 0.000288
557 0.000288
558 0.000280
559 0.000275
560 0.000272
561 0.000268
562 0.000265
563 0.000257
564 0.000250
565 0.000240
566 0.000238
567 0.000238
568 0.000235
569 0.000236
570 0.000240
571 0.000241
572 0.000236
573 0.000231
574 0.000225
575 0.000216
576 0.000210
577 0.000204
578 0.000202
579 0.000202
580 0.000204
581 0.000204
582 0.000203
583 0.000204
584 0.000205
585 0.000206
586 0.000203
587 0.000202
588 0.000201
589 0.000203
590 0.000206
591 0.000207
592 0.000207
593 0.000207
594 0.000207
595 0.000207
596 0.000204
597 0.000208
598 0.000209
599 0.000214
600 0.000218
601 0.000222
602 0.000222
603 0.000222
604 0.000223
605 0.000226
606 0.000232
607 0.000238
608 0.000247
609 0.000250
610 0.000246
611 0.000243
612 0.000238
613 0.000235
614 0.000230
615 0.000225
616 0.000221
617 0.000220
618 0.000218
619 0.000213
620 0.000207
621 0.000202
622 0.000201
623 0.000202
624 0.000208
625 0.000219
626 0.000226
627 0.000233
628 0.000234
629 0.000234
630 0.000230
631 0.000230
632 0.000229
633 0.000232
634 0.000235
635 0.000242
636 0.000248
637 0.000249
638 0.000248
639 0.000247
640 0.000247
641 0.000243
642 0.000244
643 0.000242
644 0.000241
645 0.000235
646 0.000230
647 0.000224
648 0.000226
649 0.000223
650 0.000224
651 0.000218
652 0.000216
653 0.000214
654 0.000216
655 0.000218
656 0.000222
657 0.000224
658 0.000229
659 0.000230
660 0.000230
661 0.000228
662 0.000227
663 0.000226
664 0.000227
665 0.000230
666 0.000234
667 0.000238
668 0.000237
669 0.000236
670 0.000227
671 0.000226
672 0.000224
673 0.000224
674 0.000218
675 0.000217
676 0.000215
677 0.000217
678 0.000217
679 0.000214
680 0.000213
681 0.000215
682 0.000219
683 0.000225
684 0.000227
685 0.000230
686 0.000230
687 0.000228
688 0.000226
689 0.000225
690 0.000226
691 0.000225
692 0.000223
693 0.000222
694 0.000219
695 0.000213
696 0.000205
697 0.000195
698 0.000187
699 0.000179
700 0.000173
701 0.000164
702 0.000156
703 0.000149
704 0.000141
705 0.000135
706 0.000129
707 0.000124
708 0.000119
709 0.000117
710 0.000113
711 0.000110
712 0.000105
713 0.000101
714 0.000101
715 0.000103
716 0.000103
717 0.000103
718 0.000101
719 0.000100
720 0.000097
721 0.000095
722 0.000093
723 0.000091
724 0.000091
725 0.000089
726 0.000089
727 0.000091
728 0.000095
729 0.000095
730 0.000095
731 0.000090
732 0.000084
733 0.000079
734 0.000078
735 0.000077
736 0.000079
737 0.000080
738 0.000082
739 0.000084
740 0.000087
741 0.000095
742 0.000103
743 0.000110
744 0.000117
745 0.000123
746 0.000129
747 0.000135
748 0.000139
749 0.000143
750 0.000145
751 0.000150
752 0.000153
753 0.000158
754 0.000159
755 0.000162
756 0.000162
757 0.000164
758 0.000165
759 0.000168
760 0.000174
761 0.000182
762 0.000189
763 0.000195
764 0.000198
765 0.000201
766 0.000206
767 0.000206
768 0.000211
769 0.000214
770 0.000219
771 0.000223
772 0.000228
773 0.000227
774 0.000225
775 0.000221
776 0.000217
777 0.000214
778 0.000216
779 0.000218
780 0.000218
781 0.000217
782 0.000218
783 0.000214
784 0.000207
785 0.000199
786 0.000194
787 0.000191
788 0.000188
789 0.000187
790 0.000184
791 0.000181
792 0.000179
793 0.000175
794 0.000173
795 0.000169
796 0.000166
797 0.000165
798 0.000161
799 0.000160
800 0.000159
801 0.000158
802 0.000157
803 0.000156
804 0.000155
805 0.000154
806 0.000153
807 0.000153
808 0.000152
809 0.000151
