# i correlation
1 0.001693
2 0.001630
3 0.001583
4 0.001539
5 0.001506
6 0.001470
7 0.001436
8 0.001413
9 0.001389
10 0.001366
11 0.001351
12 0.001334
13 0.001314
14 0.001300
15 0.001280
16 0.001263
17 0.001250
18 0.001237
19 0.001224
20 0.001210
21 0.001200
22 0.001197
23 0.001195
24 0.001190
25 0.001190
26 0.001188
27 0.001183
28 0.001176
29 0.001169
30 0.001164
31 0.001157
32 0.001151
33 0.001148
34 0.001141
35 0.001135
36 0.001125
37 0.001118
38 0.001111
39 0.001102
40 0.001093
41 0.001083
42 0.001069
43 0.001056
44 0.001047
45 0.001045
46 0.001041
47 0.001037
48 0.001031
49 0.001027
50 0.001023
51 0.001018
52 0.001014
53 0.001012
54 0.001002
55 0.000991
56 0.000982
57 0.000973
58 0.000967
59 0.000967
60 0.000966
61 0.000969
62 0.000967
63 0.000961
64 0.000954
65 0.000946
66 0.000935
67 0.000927
68 0.000921
69 0.000915
70 0.000917
71 0.000912
72 0.000906
73 0.000901
74 0.000895
75 0.000902
76 0.000909
77 0.000903
78 0.000902
79 0.000901
80 0.000898
81 0.000896
82 0.000889
83 0.000890
84 0.000892
85 0.000886
86 0.000884
87 0.000888
88 0.000884
89 0.000874
90 0.000865
91 0.000857
92 0.000856
93 0.000856
94 0.000853
95 0.000850
96 0.000846
97 0.000843
98 0.000844
99 0.000842
100 0.000833
101 0.000827
102 0.000817
103 0.000804
104 0.000798
105 0.000794
106 0.000790
107 0.000782
108 0.000777
109 0.000775
110 0.000775
111 0.000774
112 0.000770
113 0.000768
114 0.000765
115 0.000765
116 0.000764
117 0.000761
118 0.000757
119 0.000750
120 0.000751
121 0.000748
122 0.000744
123 0.000740
124 0.000735
125 0.000729
126 0.000725
127 0.000715
128 0.000704
129 0.000693
130 0.000680
131 0.000674
132 0.000672
133 0.000668
134 0.000667
135 0.000662
136 0.000655
137 0.000652
138 0.000647
139 0.000645
140 0.000644
141 0.000636
142 0.000625
143 0.000622
144 0.000620
145 0.000624
146 0.000632
147 0.000634
148 0.000638
149 0.000647
150 0.000646
151 0.000648
152 0.000655
153 0.000653
154 0.000651
155 0.000643
156 0.000640
157 0.000639
158 0.000641
159 0.000646
160 0.000650
161 0.000652
162 0.000652
163 0.000652
164 0.000646
165 0.000636
166 0.000624
167 0.000616
168 0.000608
169 0.000598
170 0.000588
171 0.000583
172 0.000576
173 0.000566
174 0.000556
175 0.000549
176 0.000540
177 0.000535
178 0.000533
179 0.000534
180 0.000535
181 0.000538
182 0.000541
183 0.000545
184 0.000543
185 0.000545
186 0.000544
187 0.000542
188 0.000542
189 0.000538
190 0.000532
191 0.000531
192 0.000529
193 0.000526
194 0.000525
195 0.000518
196 0.000511
197 0.000508
198 0.000503
199 0.000500
200 0.000500
201 0.000501
202 0.000500
203 0.000506
204 0.000509
205 0.000512
206 0.000512
207 0.000505
208 0.000501
209 0.000499
210 0.000501
211 0.000505
212 0.000511
213 0.000510
214 0.000509
215 0.000512
216 0.000514
217 0.000512
218 0.000500
219 0.000493
220 0.000489
221 0.000493
222 0.000497
223 0.000496
224 0.000491
225 0.000484
226 0.000481
227 0.000476
228 0.000474
229 0.000471
230 0.000472
231 0.000475
232 0.000476
233 0.000477
234 0.000479
235 0.000481
236 0.000481
237 0.000478
238 0.000475
239 0.000472
240 0.000475
241 0.000473
242 0.000473
243 0.000466
244 0.000464
245 0.000464
246 0.000464
247 0.000464
248 0.000466
249 0.000462
250 0.000463
251 0.000462
252 0.000458
253 0.000457
254 0.000455
255 0.000453
256 0.000455
257 0.000454
258 0.000458
259 0.000461
260 0.000461
261 0.000459
262 0.000460
263 0.000455
264 0.000458
265 0.000458
266 0.000448
267 0.000444
268 0.000443
269 0.000445
270 0.000450
271 0.000450
272 0.000451
273 0.000450
274 0.000447
275 0.000451
276 0.000460
277 0.000465
278 0.000471
279 0.000472
280 0.000474
281 0.000479
282 0.000476
283 0.000471
284 0.000465
285 0.000461
286 0.000457
287 0.000458
288 0.000455
289 0.000448
290 0.000440
291 0.000436
292 0.000432
293 0.000425
294 0.000412
295 0.000402
296 0.000396
297 0.000393
298 0.000393
299 0.000388
300 0.000379
301 0.000372
302 0.000366
303 0.000362
304 0.000351
305 0.000349
306 0.000349
307 0.000351
308 0.000353
309 0.000356
310 0.000367
311 0.000375
312 0.000376
313 0.000374
314 0.000371
315 0.000374
316 0.000378
317 0.000385
318 0.000392
319 0.000395
320 0.000399
321 0.000410
322 0.000417
323 0.000420
324 0.000421
325 0.000426
326 0.000434
327 0.000436
328 0.000438
329 0.000442
330 0.000445
331 0.000453
332 0.000460
333 0.000463
334 0.000470
335 0.000470
336 0.000465
337 0.000464
338 0.000463
339 0.000461
340 0.000464
341 0.000464
342 0.000464
343 0.000469
344 0.000470
345 0.000463
346 0.000461
347 0.000459
348 0.000456
349 0.000451
350 0.000441
351 0.000440
352 0.000442
353 0.000436
354 0.000427
355 0.000422
356 0.000417
357 0.000417
358 0.000414
359 0.000412
360 0.000408
361 0.000401
362 0.000396
363 0.000395
364 0.000393
365 0.000391
366 0.000392
367 0.000392
368 0.000398
369 0.000404
370 0.000405
371 0.000409
372 0.000410
373 0.000410
374 0.000411
375 0.000409
376 0.000408
377 0.000405
378 0.000400
379 0.000396
380 0.000390
381 0.000387
382 0.000384
383 0.000380
384 0.000375
385 0.000371
386 0.000365
387 0.000361
388 0.000353
389 0.000346
390 0.000339
391 0.000332
392 0.000324
393 0.000318
394 0.000314
395 0.000307
396 0.000303
397 0.000300
398 0.000293
399 0.000285
400 0.000279
401 0.000273
402 0.000274
403 0.000273
404 0.000277
405 0.000280
406 0.000274
407 0.000265
408 0.000261
409 0.000263
410 0.000261
411 0.000255
412 0.000251
413 0.000250
414 0.000252
415 0.000252
416 0.000255
417 0.000259
418 0.000262
419 0.000265
420 0.000265
421 0.000267
422 0.000271
423 0.000271
424 0.000268
425 0.000259
426 0.000250
427 0.000251
428 0.000249
429 0.000244
430 0.000243
431 0.000249
432 0.000257
433 0.000259
434 0.000253
435 0.000253
436 0.000251
437 0.000247
438 0.000246
439 0.000247
440 0.000246
441 0.000245
442 0.000243
443 0.000241
444 0.000243
445 0.000248
446 0.000251
447 0.000252
448 0.000247
449 0.000243
450 0.000238
451 0.000231
452 0.000223
453 0.000208
454 0.000198
455 0.000187
456 0.000178
457 0.000175
458 0.000170
459 0.000171
460 0.000172
461 0.000168
462 0.000166
463 0.000165
464 0.000167
465 0.000168
466 0.000166
467 0.000164
468 0.000162
469 0.000164
470 0.000171
471 0.000174
472 0.000175
473 0.000176
474 0.000175
475 0.000175
476 0.000174
477 0.000173
478 0.000173
479 0.000177
480 0.000184
481 0.000193
482 0.000197
483 0.000196
484 0.000197
485 0.000196
486 0.000195
487 0.000191
488 0.000187
489 0.000181
490 0.000176
491 0.000173
492 0.000180
493 0.000188
494 0.000194
495 0.000196
496 0.000197
497 0.000200
498 0.000201
499 0.000200
500 0.000198
501 0.000195
502 0.000193
503 0.000196
504 0.000200
505 0.000197
506 0.000195
507 0.000190
508 0.000189
509 0.000190
510 0.000191
511 0.000193
512 0.000193
513 0.000192
514 0.000193
515 0.000192
516 0.000187
517 0.000183
518 0.000180
519 0.000177
520 0.000172
521 0.000164
522 0.000162
523 0.000163
524 0.000161
525 0.000159
526 0.000158
527 0.000161
528 0.000163
529 0.000167
530 0.000169
531 0.000171
532 0.000178
533 0.000183
534 0.000190
535 0.000191
536 0.000188
537 0.000184
538 0.000181
539 0.000179
540 0.000180
541 0.000180
542 0.000176
543 0.000176
544 0.000172
545 0.000167
546 0.000161
547 0.000152
548 0.000143
549 0.000141
550 0.000136
551 0.000127
552 0.000119
553 0.000110
554 0.000102
555 0.000100
556 0.000101
557 0.000105
558 0.000108
559 0.000106
560 0.000103
561 0.000099
562 0.000098
563 0.000099
564 0.000099
565 0.000101
566 0.000103
567 0.000108
568 0.000114
569 0.000118
570 0.000118
571 0.000117
572 0.000115
573 0.000110
574 0.000105
575 0.000100
576 0.000094
577 0.000086
578 0.000081
579 0.000078
580 0.000080
581 0.000081
582 0.000080
583 0.000076
584 0.000074
585 0.000072
586 0.000067
587 0.000064
588 0.000059
589 0.000055
590 0.000054
591 0.000058
592 0.000059
593 0.000062
594 0.000065
595 0.000067
596 0.000070
597 0.000071
598 0.000074
599 0.000079
600 0.000081
601 0.000079
602 0.000082
603 0.000088
604 0.000092
605 0.000095
606 0.000097
607 0.000094
608 0.000098
609 0.000101
610 0.000106
611 0.000109
612 0.000110
613 0.000110
614 0.000108
615 0.000102
616 0.000102
617 0.000104
618 0.000106
619 0.000112
620 0.000113
621 0.000115
622 0.000115
623 0.000112
624 0.000113
625 0.000115
626 0.000112
627 0.000112
628 0.000113
629 0.000116
630 0.000117
631 0.000118
632 0.000119
633 0.000126
634 0.000130
635 0.000130
636 0.000129
637 0.000131
638 0.000129
639 0.000126
640 0.000122
641 0.000115
642 0.000114
643 0.000116
644 0.000121
645 0.000129
646 0.000132
647 0.000133
648 0.000133
649 0.000138
650 0.000143
651 0.000149
652 0.000154
653 0.000155
654 0.000161
655 0.000166
656 0.000167
657 0.000171
658 0.000175
659 0.000177
660 0.000180
661 0.000182
662 0.000185
663 0.000188
664 0.000188
665 0.000187
666 0.000185
667 0.000185
668 0.000182
669 0.000179
670 0.000173
671 0.000166
672 0.000166
673 0.000165
674 0.000164
675 0.000165
676 0.000164
677 0.000160
678 0.000156
679 0.000150
680 0.000147
681 0.000149
682 0.000153
683 0.000155
684 0.000157
685 0.000158
686 0.000163
687 0.000164
688 0.000162
689 0.000164
690 0.000163
691 0.000162
692 0.000164
693 0.000163
694 0.000161
695 0.000161
696 0.000160
697 0.000164
698 0.000166
699 0.000167
700 0.000172
701 0.000177
702 0.000179
703 0.000182
704 0.000185
705 0.000188
706 0.000189
707 0.000188
708 0.000185
709 0.000181
710 0.000175
711 0.000171
712 0.000168
713 0.000163
714 0.000159
715 0.000152
716 0.000147
717 0.000146
718 0.000148
719 0.000148
720 0.000149
721 0.000155
722 0.000157
723 0.000158
724 0.000160
725 0.000163
726 0.000167
727 0.000170
728 0.000172
729 0.000172
730 0.000173
731 0.000172
732 0.000171
733 0.000167
734 0.000166
735 0.000166
736 0.000164
737 0.000162
738 0.000161
739 0.000158
740 0.000156
741 0.000149
742 0.000143
743 0.000139
744 0.000137
745 0.000137
746 0.000135
747 0.000128
748 0.000125
749 0.000120
750 0.000116
751 0.000113
752 0.000106
753 0.000101
754 0.000097
755 0.000088
756 0.000085
757 0.000085
758 0.000081
759 0.000077
760 0.000075
761 0.000072
762 0.000075
763 0.000075
764 0.000074
765 0.000075
766 0.000071
767 0.000065
768 0.000060
769 0.000054
770 0.000051
771 0.000052
772 0.000052
773 0.000055
774 0.000058
775 0.000059
776 0.000059
777 0.000057
778 0.000054
779 0.000052
780 0.000050
781 0.000049
782 0.000046
783 0.000048
784 0.000050
785 0.000052
786 0.000052
787 0.000050
788 0.000047
789 0.000044
790 0.000040
791 0.000038
792 0.000035
793 0.000027
794 0.000020
795 0.000013
796 0.000007
797 0.000004
798 0.000002
799 0.000001
800 -0.000003
801 -0.000005
802 -0.000004
803 -0.000002
804 0.000004
805 0.000008
806 0.000015
807 0.000022
808 0.000028
809 0.000033
