# i correlation
1 0.001754
2 0.001679
3 0.001613
4 0.001558
5 0.001512
6 0.001480
7 0.001454
8 0.001433
9 0.001415
10 0.001397
11 0.001380
12 0.001367
13 0.001361
14 0.001357
15 0.001358
16 0.001358
17 0.001354
18 0.001331
19 0.001311
20 0.001299
21 0.001287
22 0.001272
23 0.001263
24 0.001257
25 0.001247
26 0.001233
27 0.001228
28 0.001227
29 0.001212
30 0.001203
31 0.001196
32 0.001201
33 0.001208
34 0.001216
35 0.001213
36 0.001212
37 0.001206
38 0.001197
39 0.001189
40 0.001183
41 0.001169
42 0.001157
43 0.001142
44 0.001128
45 0.001111
46 0.001103
47 0.001097
48 0.001096
49 0.001094
50 0.001092
51 0.001091
52 0.001095
53 0.001094
54 0.001093
55 0.001092
56 0.001081
57 0.001075
58 0.001068
59 0.001065
60 0.001063
61 0.001074
62 0.001084
63 0.001094
64 0.001102
65 0.001101
66 0.001097
67 0.001105
68 0.001108
69 0.001110
70 0.001115
71 0.001119
72 0.001117
73 0.001106
74 0.001093
75 0.001078
76 0.001080
77 0.001074
78 0.001062
79 0.001047
80 0.001035
81 0.001019
82 0.001005
83 0.001000
84 0.001001
85 0.001011
86 0.001011
87 0.001012
88 0.001009
89 0.001010
90 0.001000
91 0.000998
92 0.001002
93 0.001002
94 0.000998
95 0.000996
96 0.000987
97 0.000980
98 0.000971
99 0.000961
100 0.000951
101 0.000945
102 0.000931
103 0.000921
104 0.000922
105 0.000924
106 0.000924
107 0.000922
108 0.000916
109 0.000915
110 0.000917
111 0.000909
112 0.000899
113 0.000888
114 0.000871
115 0.000860
116 0.000852
117 0.000846
118 0.000833
119 0.000824
120 0.000819
121 0.000814
122 0.000806
123 0.000793
124 0.000786
125 0.000783
126 0.000786
127 0.000789
128 0.000786
129 0.000783
130 0.000782
131 0.000778
132 0.000779
133 0.000778
134 0.000783
135 0.000784
136 0.000783
137 0.000786
138 0.000788
139 0.000784
140 0.000781
141 0.000775
142 0.000766
143 0.000769
144 0.000769
145 0.000766
146 0.000755
147 0.000747
148 0.000732
149 0.000721
150 0.000714
151 0.000707
152 0.000704
153 0.000704
154 0.000705
155 0.000713
156 0.000718
157 0.000716
158 0.000722
159 0.000725
160 0.000731
161 0.000742
162 0.000752
163 0.000765
164 0.000776
165 0.000784
166 0.000791
167 0.000790
168 0.000789
169 0.000784
170 0.000781
171 0.000777
172 0.000777
173 0.000770
174 0.000770
175 0.000774
176 0.000772
177 0.000772
178 0.000778
179 0.000784
180 0.000787
181 0.000784
182 0.000779
183 0.000775
184 0.000772
185 0.000768
186 0.000763
187 0.000760
188 0.000753
189 0.000749
190 0.000738
191 0.000723
192 0.000712
193 0.000699
194 0.000685
195 0.000668
196 0.000652
197 0.000638
198 0.000634
199 0.000632
200 0.000633
201 0.000637
202 0.000645
203 0.000642
204 0.000639
205 0.000637
206 0.000639
207 0.000635
208 0.000632
209 0.000620
210 0.000610
211 0.000604
212 0.000602
213 0.000596
214 0.000599
215 0.000603
216 0.000607
217 0.000617
218 0.000618
219 0.000619
220 0.000620
221 0.000627
222 0.000635
223 0.000642
224 0.000639
225 0.000638
226 0.000630
227 0.000623
228 0.000612
229 0.000604
230 0.000605
231 0.000606
232 0.000607
233 0.000608
234 0.000609
235 0.000609
236 0.000608
237 0.000603
238 0.000597
239 0.000598
240 0.000608
241 0.000612
242 0.000614
243 0.000612
244 0.000610
245 0.000605
246 0.000600
247 0.000599
248 0.000606
249 0.000608
250 0.000614
251 0.000621
252 0.000626
253 0.000631
254 0.000630
255 0.000634
256 0.000641
257 0.000651
258 0.000654
259 0.000651
260 0.000643
261 0.000633
262 0.000623
263 0.000615
264 0.000610
265 0.000615
266 0.000610
267 0.000610
268 0.000608
269 0.000611
270 0.000610
271 0.000615
272 0.000617
273 0.000620
274 0.000616
275 0.000614
276 0.000614
277 0.000608
278 0.000603
279 0.000601
280 0.000595
281 0.000590
282 0.000589
283 0.000585
284 0.000585
285 0.000590
286 0.000598
287 0.000608
288 0.000618
289 0.000621
290 0.000622
291 0.000620
292 0.000621
293 0.000622
294 0.000618
295 0.000618
296 0.000614
297 0.000616
298 0.000620
299 0.000629
300 0.000630
301 0.000628
302 0.000618
303 0.000607
304 0.000599
305 0.000590
306 0.000579
307 0.000570
308 0.000560
309 0.000551
310 0.000551
311 0.000551
312 0.000548
313 0.000543
314 0.000542
315 0.000537
316 0.000530
317 0.000528
318 0.000526
319 0.000529
320 0.000535
321 0.000544
322 0.000546
323 0.000547
324 0.000547
325 0.000547
326 0.000546
327 0.000546
328 0.000546
329 0.000548
330 0.000545
331 0.000538
332 0.000534
333 0.000529
334 0.000530
335 0.000532
336 0.000533
337 0.000531
338 0.000534
339 0.000538
340 0.000534
341 0.000536
342 0.000534
343 0.000534
344 0.000534
345 0.000542
346 0.000548
347 0.000548
348 0.000548
349 0.000552
350 0.000563
351 0.000568
352 0.000573
353 0.000575
354 0.000581
355 0.000582
356 0.000584
357 0.000589
358 0.000591
359 0.000594
360 0.000593
361 0.000595
362 0.000598
363 0.000597
364 0.000602
365 0.000605
366 0.000612
367 0.000616
368 0.000616
369 0.000615
370 0.000604
371 0.000594
372 0.000582
373 0.000574
374 0.000565
375 0.000561
376 0.000554
377 0.000549
378 0.000550
379 0.000544
380 0.000540
381 0.000539
382 0.000543
383 0.000546
384 0.000548
385 0.000548
386 0.000549
387 0.000548
388 0.000544
389 0.000538
390 0.000526
391 0.000522
392 0.000515
393 0.000515
394 0.000510
395 0.000506
396 0.000506
397 0.000515
398 0.000522
399 0.000527
400 0.000530
401 0.000530
402 0.000526
403 0.000522
404 0.000515
405 0.000513
406 0.000520
407 0.000520
408 0.000526
409 0.000533
410 0.000536
411 0.000534
412 0.000527
413 0.000522
414 0.000523
415 0.000523
416 0.000519
417 0.000514
418 0.000507
419 0.000502
420 0.000503
421 0.000505
422 0.000504
423 0.000505
424 0.000505
425 0.000502
426 0.000500
427 0.000500
428 0.000499
429 0.000498
430 0.000499
431 0.000506
432 0.000506
433 0.000511
434 0.000520
435 0.000532
436 0.000539
437 0.000552
438 0.000560
439 0.000560
440 0.000556
441 0.000553
442 0.000550
443 0.000545
444 0.000541
445 0.000541
446 0.000540
447 0.000540
448 0.000538
449 0.000537
450 0.000537
451 0.000544
452 0.000547
453 0.000548
454 0.000550
455 0.000552
456 0.000554
457 0.000553
458 0.000557
459 0.000557
460 0.000558
461 0.000557
462 0.000553
463 0.000552
464 0.000547
465 0.000547
466 0.000542
467 0.000544
468 0.000545
469 0.000547
470 0.000548
471 0.000543
472 0.000534
473 0.000529
474 0.000521
475 0.000517
476 0.000520
477 0.000522
478 0.000525
479 0.000525
480 0.000521
481 0.000513
482 0.000509
483 0.000502
484 0.000496
485 0.000494
486 0.000492
487 0.000481
488 0.000473
489 0.000460
490 0.000449
491 0.000441
492 0.000431
493 0.000432
494 0.000435
495 0.000437
496 0.000432
497 0.000424
498 0.000416
499 0.000414
500 0.000409
501 0.000410
502 0.000412
503 0.000413
504 0.000415
505 0.000418
506 0.000418
507 0.000420
508 0.000416
509 0.000418
510 0.000426
511 0.000430
512 0.000433
513 0.000438
514 0.000441
515 0.000453
516 0.000458
517 0.000455
518 0.000457
519 0.000462
520 0.000469
521 0.000473
522 0.000482
523 0.000489
524 0.000488
525 0.000486
526 0.000484
527 0.000483
528 0.000483
529 0.000483
530 0.000481
531 0.000480
532 0.000477
533 0.000472
534 0.000465
535 0.000461
536 0.000458
537 0.000456
538 0.000452
539 0.000449
540 0.000448
541 0.000450
542 0.000443
543 0.000446
544 0.000451
545 0.000455
546 0.000456
547 0.000461
548 0.000463
549 0.000463
550 0.000460
551 0.000451
552 0.000444
553 0.000442
554 0.000441
555 0.000436
556 0.000437
557 0.000436
558 0.000434
559 0.000427
560 0.000414
561 0.000402
562 0.000393
563 0.000386
564 0.000381
565 0.000380
566 0.000376
567 0.000372
568 0.000367
569 0.000366
570 0.000365
571 0.000365
572 0.000364
573 0.000361
574 0.000361
575 0.000363
576 0.000361
577 0.000364
578 0.000365
579 0.000360
580 0.000357
581 0.000358
582 0.000359
583 0.000362
584 0.000356
585 0.000352
586 0.000354
587 0.000357
588 0.000355
589 0.000353
590 0.000354
591 0.000355
592 0.000357
593 0.000358
594 0.000353
595 0.000343
596 0.000331
597 0.000319
598 0.000313
599 0.000317
600 0.000319
601 0.000318
602 0.000321
603 0.000320
604 0.000313
605 0.000311
606 0.000311
607 0.000314
608 0.000320
609 0.000329
610 0.000337
611 0.000342
612 0.000341
613 0.000335
614 0.000330
615 0.000325
616 0.000324
617 0.000322
618 0.000319
619 0.000321
620 0.000327
621 0.000337
622 0.000346
623 0.000355
624 0.000357
625 0.000357
626 0.000360
627 0.000354
628 0.000342
629 0.000327
630 0.000315
631 0.000304
632 0.000291
633 0.000283
634 0.000276
635 0.000272
636 0.000269
637 0.000266
638 0.000265
639 0.000267
640 0.000270
641 0.000274
642 0.000277
643 0.000278
644 0.000274
645 0.000270
646 0.000269
647 0.000265
648 0.000262
649 0.000258
650 0.000254
651 0.000251
652 0.000242
653 0.000233
654 0.000234
655 0.000234
656 0.000236
657 0.000240
658 0.000247
659 0.000250
660 0.000256
661 0.000254
662 0.000251
663 0.000250
664 0.000246
665 0.000238
666 0.000231
667 0.000219
668 0.000210
669 0.000198
670 0.000191
671 0.000187
672 0.000179
673 0.000173
674 0.000171
675 0.000175
676 0.000175
677 0.000174
678 0.000176
679 0.000175
680 0.000171
681 0.000169
682 0.000169
683 0.000170
684 0.000176
685 0.000182
686 0.000190
687 0.000198
688 0.000200
689 0.000194
690 0.000190
691 0.000187
692 0.000183
693 0.000183
694 0.000188
695 0.000192
696 0.000196
697 0.000200
698 0.000204
699 0.000207
700 0.000214
701 0.000218
702 0.000224
703 0.000232
704 0.000232
705 0.000225
706 0.000213
707 0.000210
708 0.000209
709 0.000206
710 0.000207
711 0.000210
712 0.000215
713 0.000216
714 0.000213
715 0.000209
716 0.000206
717 0.000201
718 0.000195
719 0.000190
720 0.000188
721 0.000188
722 0.000189
723 0.000188
724 0.000182
725 0.000177
726 0.000174
727 0.000178
728 0.000181
729 0.000182
730 0.000185
731 0.000182
732 0.000182
733 0.000183
734 0.000183
735 0.000183
736 0.000187
737 0.000194
738 0.000197
739 0.000197
740 0.000194
741 0.000190
742 0.000185
743 0.000186
744 0.000184
745 0.000184
746 0.000185
747 0.000185
748 0.000182
749 0.000179
750 0.000179
751 0.000183
752 0.000190
753 0.000191
754 0.000191
755 0.000195
756 0.000196
757 0.000194
758 0.000192
759 0.000186
760 0.000184
761 0.000183
762 0.000181
763 0.000178
764 0.000177
765 0.000173
766 0.000176
767 0.000178
768 0.000182
769 0.000181
770 0.000183
771 0.000183
772 0.000181
773 0.000178
774 0.000175
775 0.000174
776 0.000174
777 0.000175
778 0.000172
779 0.000169
780 0.000171
781 0.000171
782 0.000164
783 0.000158
784 0.000156
785 0.000155
786 0.000153
787 0.000152
788 0.000155
789 0.000158
790 0.000157
791 0.000156
792 0.000156
793 0.000153
794 0.000153
795 0.000153
796 0.000150
797 0.000146
798 0.000142
799 0.000135
800 0.000129
801 0.000130
802 0.000130
803 0.000128
804 0.000130
805 0.000134
806 0.000136
807 0.000137
808 0.000140
809 0.000142
