# i correlation
1 0.001856
2 0.001786
3 0.001732
4 0.001687
5 0.001649
6 0.001613
7 0.001576
8 0.001532
9 0.001500
10 0.001471
11 0.001444
12 0.001419
13 0.001403
14 0.001386
15 0.001372
16 0.001354
17 0.001332
18 0.001314
19 0.001309
20 0.001309
21 0.001316
22 0.001311
23 0.001306
24 0.001297
25 0.001281
26 0.001265
27 0.001249
28 0.001234
29 0.001223
30 0.001205
31 0.001184
32 0.001167
33 0.001151
34 0.001138
35 0.001129
36 0.001120
37 0.001106
38 0.001101
39 0.001099
40 0.001092
41 0.001083
42 0.001078
43 0.001072
44 0.001062
45 0.001057
46 0.001050
47 0.001040
48 0.001025
49 0.001007
50 0.000991
51 0.000982
52 0.000974
53 0.000962
54 0.000949
55 0.000938
56 0.000932
57 0.000935
58 0.000937
59 0.000936
60 0.000942
61 0.000954
62 0.000962
63 0.000966
64 0.000968
65 0.000967
66 0.000973
67 0.000979
68 0.000979
69 0.000974
70 0.000966
71 0.000957
72 0.000952
73 0.000947
74 0.000944
75 0.000940
76 0.000933
77 0.000930
78 0.000928
79 0.000931
80 0.000931
81 0.000932
82 0.000926
83 0.000916
84 0.000903
85 0.000891
86 0.000884
87 0.000881
88 0.000876
89 0.000871
90 0.000875
91 0.000874
92 0.000872
93 0.000865
94 0.000859
95 0.000853
96 0.000852
97 0.000853
98 0.000845
99 0.000838
100 0.000834
101 0.000828
102 0.000828
103 0.000836
104 0.000840
105 0.000843
106 0.000848
107 0.000849
108 0.000853
109 0.000856
110 0.000851
111 0.000842
112 0.000829
113 0.000821
114 0.000813
115 0.000804
116 0.000803
117 0.000799
118 0.000803
119 0.000796
120 0.000788
121 0.000780
122 0.000762
123 0.000751
124 0.000740
125 0.000734
126 0.000727
127 0.000715
128 0.000712
129 0.000709
130 0.000707
131 0.000699
132 0.000691
133 0.000683
134 0.000674
135 0.000669
136 0.000660
137 0.000652
138 0.000646
139 0.000645
140 0.000643
141 0.000650
142 0.000658
143 0.000659
144 0.000660
145 0.000659
146 0.000655
147 0.000649
148 0.000648
149 0.000645
150 0.000632
151 0.000620
152 0.000607
153 0.000590
154 0.000580
155 0.000578
156 0.000570
157 0.000559
158 0.000551
159 0.000541
160 0.000529
161 0.000526
162 0.000524
163 0.000517
164 0.000509
165 0.000502
166 0.000497
167 0.000487
168 0.000481
169 0.000483
170 0.000485
171 0.000490
172 0.000495
173 0.000496
174 0.000491
175 0.000485
176 0.000479
177 0.000478
178 0.000481
179 0.000486
180 0.000493
181 0.000493
182 0.000496
183 0.000496
184 0.000498
185 0.000500
186 0.000499
187 0.000506
188 0.000509
189 0.000511
190 0.000512
191 0.000505
192 0.000494
193 0.000487
194 0.000482
195 0.000487
196 0.000493
197 0.000500
198 0.000513
199 0.000519
200 0.000522
201 0.000532
202 0.000537
203 0.000540
204 0.000543
205 0.000552
206 0.000558
207 0.000555
208 0.000560
209 0.000569
210 0.000577
211 0.000583
212 0.000592
213 0.000596
214 0.000594
215 0.000590
216 0.000590
217 0.000590
218 0.000591
219 0.000592
220 0.000585
221 0.000580
222 0.000584
223 0.000593
224 0.000604
225 0.000609
226 0.000615
227 0.000621
228 0.000629
229 0.000636
230 0.000637
231 0.000628
232 0.000622
233 0.000613
234 0.000607
235 0.000602
236 0.000589
237 0.000577
238 0.000566
239 0.000565
240 0.000557
241 0.000554
242 0.000551
243 0.000547
244 0.000541
245 0.000537
246 0.000533
247 0.000527
248 0.000527
249 0.000527
250 0.000523
251 0.000523
252 0.000526
253 0.000526
254 0.000524
255 0.000522
256 0.000518
257 0.000513
258 0.000513
259 0.000508
260 0.000501
261 0.000492
262 0.000493
263 0.000496
264 0.000494
265 0.000494
266 0.000489
267 0.000481
268 0.000478
269 0.000473
270 0.000473
271 0.000481
272 0.000483
273 0.000480
274 0.000477
275 0.000474
276 0.000474
277 0.000478
278 0.000482
279 0.000489
280 0.000488
281 0.000488
282 0.000483
283 0.000483
284 0.000486
285 0.000485
286 0.000487
287 0.000495
288 0.000497
289 0.000493
290 0.000489
291 0.000486
292 0.000494
293 0.000494
294 0.000491
295 0.000486
296 0.000478
297 0.000467
298 0.000468
299 0.000467
300 0.000462
301 0.000457
302 0.000449
303 0.000445
304 0.000445
305 0.000454
306 0.000459
307 0.000463
308 0.000470
309 0.000472
310 0.000472
311 0.000471
312 0.000464
313 0.000461
314 0.000466
315 0.000472
316 0.000477
317 0.000475
318 0.000474
319 0.000476
320 0.000481
321 0.000487
322 0.000493
323 0.000494
324 0.000496
325 0.000490
326 0.000485
327 0.000481
328 0.000483
329 0.000487
330 0.000489
331 0.000493
332 0.000500
333 0.000504
334 0.000511
335 0.000516
336 0.000515
337 0.000520
338 0.000523
339 0.000523
340 0.000523
341 0.000520
342 0.000519
343 0.000520
344 0.000528
345 0.000535
346 0.000537
347 0.000537
348 0.000530
349 0.000523
350 0.000522
351 0.000521
352 0.000519
353 0.000528
354 0.000528
355 0.000523
356 0.000520
357 0.000515
358 0.000513
359 0.000515
360 0.000518
361 0.000516
362 0.000511
363 0.000506
364 0.000500
365 0.000495
366 0.000489
367 0.000488
368 0.000490
369 0.000495
370 0.000494
371 0.000496
372 0.000494
373 0.000495
374 0.000498
375 0.000497
376 0.000490
377 0.000481
378 0.000475
379 0.000471
380 0.000469
381 0.000467
382 0.000462
383 0.000463
384 0.000471
385 0.000475
386 0.000479
387 0.000485
388 0.000492
389 0.000500
390 0.000508
391 0.000513
392 0.000514
393 0.000516
394 0.000515
395 0.000514
396 0.000516
397 0.000515
398 0.000516
399 0.000512
400 0.000504
401 0.000500
402 0.000494
403 0.000491
404 0.000487
405 0.000484
406 0.000475
407 0.000472
408 0.000469
409 0.000461
410 0.000455
411 0.000450
412 0.000448
413 0.000449
414 0.000457
415 0.000466
416 0.000470
417 0.000473
418 0.000473
419 0.000472
420 0.000465
421 0.000456
422 0.000453
423 0.000447
424 0.000442
425 0.000439
426 0.000440
427 0.000436
428 0.000434
429 0.000431
430 0.000427
431 0.000420
432 0.000414
433 0.000404
434 0.000393
435 0.000384
436 0.000377
437 0.000369
438 0.000358
439 0.000345
440 0.000339
441 0.000335
442 0.000327
443 0.000318
444 0.000311
445 0.000305
446 0.000297
447 0.000296
448 0.000290
449 0.000286
450 0.000290
451 0.000299
452 0.000303
453 0.000313
454 0.000319
455 0.000325
456 0.000332
457 0.000337
458 0.000339
459 0.000337
460 0.000337
461 0.000339
462 0.000335
463 0.000333
464 0.000335
465 0.000333
466 0.000328
467 0.000323
468 0.000318
469 0.000311
470 0.000308
471 0.000302
472 0.000298
473 0.000287
474 0.000281
475 0.000273
476 0.000270
477 0.000275
478 0.000275
479 0.000280
480 0.000282
481 0.000280
482 0.000279
483 0.000282
484 0.000283
485 0.000288
486 0.000290
487 0.000289
488 0.000286
489 0.000285
490 0.000286
491 0.000280
492 0.000276
493 0.000278
494 0.000279
495 0.000281
496 0.000283
497 0.000279
498 0.000275
499 0.000270
500 0.000262
501 0.000260
502 0.000264
503 0.000263
504 0.000259
505 0.000257
506 0.000255
507 0.000250
508 0.000244
509 0.000238
510 0.000228
511 0.000222
512 0.000216
513 0.000207
514 0.000205
515 0.000201
516 0.000202
517 0.000204
518 0.000206
519 0.000209
520 0.000208
521 0.000207
522 0.000209
523 0.000212
524 0.000210
525 0.000210
526 0.000211
527 0.000213
528 0.000213
529 0.000210
530 0.000205
531 0.000200
532 0.000195
533 0.000196
534 0.000197
535 0.000200
536 0.000199
537 0.000196
538 0.000194
539 0.000184
540 0.000178
541 0.000173
542 0.000168
543 0.000168
544 0.000170
545 0.000167
546 0.000164
547 0.000164
548 0.000162
549 0.000159
550 0.000160
551 0.000163
552 0.000165
553 0.000161
554 0.000158
555 0.000151
556 0.000148
557 0.000146
558 0.000146
559 0.000147
560 0.000144
561 0.000137
562 0.000132
563 0.000134
564 0.000135
565 0.000134
566 0.000127
567 0.000123
568 0.000116
569 0.000117
570 0.000118
571 0.000121
572 0.000122
573 0.000126
574 0.000134
575 0.000141
576 0.000146
577 0.000150
578 0.000147
579 0.000142
580 0.000139
581 0.000133
582 0.000126
583 0.000119
584 0.000111
585 0.000102
586 0.000098
587 0.000093
588 0.000092
589 0.000087
590 0.000078
591 0.000062
592 0.000050
593 0.000047
594 0.000046
595 0.000050
596 0.000051
597 0.000059
598 0.000067
599 0.000077
600 0.000085
601 0.000087
602 0.000092
603 0.000099
604 0.000103
605 0.000102
606 0.000099
607 0.000092
608 0.000086
609 0.000083
610 0.000080
611 0.000073
612 0.000064
613 0.000058
614 0.000054
615 0.000056
616 0.000063
617 0.000066
618 0.000069
619 0.000072
620 0.000075
621 0.000075
622 0.000078
623 0.000080
624 0.000082
625 0.000081
626 0.000081
627 0.000084
628 0.000085
629 0.000079
630 0.000072
631 0.000068
632 0.000065
633 0.000060
634 0.000052
635 0.000044
636 0.000036
637 0.000032
638 0.000027
639 0.000024
640 0.000018
641 0.000015
642 0.000014
643 0.000011
644 0.000009
645 0.000003
646 -0.000003
647 -0.000014
648 -0.000021
649 -0.000029
650 -0.000038
651 -0.000044
652 -0.000049
653 -0.000059
654 -0.000070
655 -0.000079
656 -0.000087
657 -0.000092
658 -0.000095
659 -0.000096
660 -0.000101
661 -0.000101
662 -0.000100
663 -0.000097
664 -0.000093
665 -0.000088
666 -0.000080
667 -0.000072
668 -0.000066
669 -0.000067
670 -0.000069
671 -0.000072
672 -0.000074
673 -0.000078
674 -0.000078
675 -0.000077
676 -0.000078
677 -0.000076
678 -0.000076
679 -0.000076
680 -0.000073
681 -0.000070
682 -0.000065
683 -0.000063
684 -0.000064
685 -0.000063
686 -0.000060
687 -0.000062
688 -0.000060
689 -0.000057
690 -0.000057
691 -0.000059
692 -0.000061
693 -0.000063
694 -0.000063
695 -0.000060
696 -0.000062
697 -0.000065
698 -0.000066
699 -0.000066
700 -0.000062
701 -0.000059
702 -0.000056
703 -0.000046
704 -0.000043
705 -0.000042
706 -0.000032
707 -0.000021
708 -0.000015
709 -0.000007
710 -0.000004
711 -0.000003
712 -0.000003
713 0.000003
714 0.000005
715 0.000007
716 0.000006
717 0.000000
718 0.000003
719 0.000002
720 0.000001
721 -0.000001
722 -0.000001
723 -0.000003
724 0.000002
725 0.000007
726 0.000010
727 0.000011
728 0.000014
729 0.000017
730 0.000018
731 0.000017
732 0.000018
733 0.000018
734 0.000020
735 0.000021
736 0.000019
737 0.000014
738 0.000009
739 0.000004
740 -0.000000
741 -0.000004
742 -0.000003
743 -0.000004
744 -0.000006
745 -0.000006
746 -0.000003
747 0.000001
748 0.000006
749 0.000012
750 0.000015
751 0.000019
752 0.000022
753 0.000024
754 0.000025
755 0.000027
756 0.000028
757 0.000030
758 0.000030
759 0.000029
760 0.000027
761 0.000028
762 0.000027
763 0.000020
764 0.000018
765 0.000014
766 0.000011
767 0.000010
768 0.000006
769 0.000006
770 0.000007
771 0.000009
772 0.000011
773 0.000015
774 0.000017
775 0.000023
776 0.000028
777 0.000035
778 0.000040
779 0.000043
780 0.000047
781 0.000049
782 0.000057
783 0.000063
784 0.000068
785 0.000074
786 0.000082
787 0.000089
788 0.000092
789 0.000095
790 0.000098
791 0.000099
792 0.000100
793 0.000100
794 0.000100
795 0.000100
796 0.000096
797 0.000094
798 0.000092
799 0.000090
800 0.000091
801 0.000088
802 0.000082
803 0.000081
804 0.000080
805 0.000079
806 0.000083
807 0.000084
808 0.000084
809 0.000086
