# i correlation
1 0.001525
2 0.001449
3 0.001382
4 0.001323
5 0.001278
6 0.001237
7 0.001210
8 0.001186
9 0.001171
10 0.001156
11 0.001136
12 0.001124
13 0.001110
14 0.001091
15 0.001080
16 0.001065
17 0.001053
18 0.001038
19 0.001032
20 0.001027
21 0.001030
22 0.001032
23 0.001028
24 0.001028
25 0.001020
26 0.001007
27 0.000996
28 0.000978
29 0.000955
30 0.000941
31 0.000927
32 0.000912
33 0.000895
34 0.000885
35 0.000870
36 0.000858
37 0.000846
38 0.000824
39 0.000801
40 0.000786
41 0.000772
42 0.000763
43 0.000760
44 0.000753
45 0.000751
46 0.000751
47 0.000757
48 0.000758
49 0.000761
50 0.000765
51 0.000763
52 0.000759
53 0.000746
54 0.000733
55 0.000723
56 0.000721
57 0.000728
58 0.000732
59 0.000733
60 0.000739
61 0.000741
62 0.000743
63 0.000746
64 0.000753
65 0.000755
66 0.000755
67 0.000748
68 0.000739
69 0.000735
70 0.000732
71 0.000731
72 0.000726
73 0.000726
74 0.000723
75 0.000718
76 0.000712
77 0.000709
78 0.000697
79 0.000690
80 0.000690
81 0.000688
82 0.000693
83 0.000694
84 0.000694
85 0.000696
86 0.000686
87 0.000682
88 0.000680
89 0.000674
90 0.000666
91 0.000657
92 0.000650
93 0.000646
94 0.000634
95 0.000620
96 0.000614
97 0.000612
98 0.000607
99 0.000601
100 0.000595
101 0.000592
102 0.000585
103 0.000578
104 0.000570
105 0.000557
106 0.000545
107 0.000536
108 0.000534
109 0.000532
110 0.000529
111 0.000531
112 0.000534
113 0.000538
114 0.000542
115 0.000543
116 0.000542
117 0.000540
118 0.000541
119 0.000541
120 0.000544
121 0.000548
122 0.000549
123 0.000552
124 0.000552
125 0.000548
126 0.000536
127 0.000531
128 0.000532
129 0.000527
130 0.000526
131 0.000530
132 0.000536
133 0.000543
134 0.000547
135 0.000554
136 0.000550
137 0.000551
138 0.000547
139 0.000549
140 0.000550
141 0.000550
142 0.000548
143 0.000549
144 0.000555
145 0.000561
146 0.000567
147 0.000575
148 0.000582
149 0.000590
150 0.000592
151 0.000587
152 0.000586
153 0.000589
154 0.000590
155 0.000586
156 0.000588
157 0.000593
158 0.000591
159 0.000590
160 0.000586
161 0.000585
162 0.000581
163 0.000579
164 0.000571
165 0.000571
166 0.000570
167 0.000564
168 0.000553
169 0.000542
170 0.000537
171 0.000530
172 0.000522
173 0.000512
174 0.000507
175 0.000504
176 0.000503
177 0.000504
178 0.000500
179 0.000496
180 0.000493
181 0.000491
182 0.000484
183 0.000478
184 0.000483
185 0.000483
186 0.000485
187 0.000484
188 0.000480
189 0.000476
190 0.000472
191 0.000467
192 0.000461
193 0.000460
194 0.000456
195 0.000450
196 0.000448
197 0.000445
198 0.000433
199 0.000427
200 0.000418
201 0.000412
202 0.000406
203 0.000402
204 0.000400
205 0.000399
206 0.000404
207 0.000406
208 0.000415
209 0.000426
210 0.000436
211 0.000440
212 0.000445
213 0.000446
214 0.000452
215 0.000461
216 0.000465
217 0.000475
218 0.000482
219 0.000479
220 0.000479
221 0.000479
222 0.000480
223 0.000479
224 0.000477
225 0.000469
226 0.000459
227 0.000458
228 0.000457
229 0.000459
230 0.000470
231 0.000485
232 0.000496
233 0.000503
234 0.000511
235 0.000512
236 0.000516
237 0.000518
238 0.000520
239 0.000517
240 0.000517
241 0.000515
242 0.000511
243 0.000509
244 0.000507
245 0.000512
246 0.000518
247 0.000519
248 0.000517
249 0.000513
250 0.000515
251 0.000517
252 0.000523
253 0.000525
254 0.000522
255 0.000524
256 0.000518
257 0.000515
258 0.000511
259 0.000510
260 0.000506
261 0.000499
262 0.000491
263 0.000473
264 0.000459
265 0.000453
266 0.000446
267 0.000445
268 0.000441
269 0.000440
270 0.000438
271 0.000437
272 0.000440
273 0.000435
274 0.000441
275 0.000441
276 0.000442
277 0.000445
278 0.000443
279 0.000445
280 0.000447
281 0.000454
282 0.000460
283 0.000454
284 0.000446
285 0.000431
286 0.000420
287 0.000409
288 0.000400
289 0.000396
290 0.000390
291 0.000390
292 0.000391
293 0.000392
294 0.000397
295 0.000400
296 0.000407
297 0.000413
298 0.000416
299 0.000417
300 0.000421
301 0.000429
302 0.000434
303 0.000436
304 0.000447
305 0.000456
306 0.000463
307 0.000466
308 0.000465
309 0.000470
310 0.000475
311 0.000480
312 0.000482
313 0.000477
314 0.000471
315 0.000471
316 0.000472
317 0.000475
318 0.000479
319 0.000483
320 0.000482
321 0.000480
322 0.000475
323 0.000476
324 0.000482
325 0.000484
326 0.000487
327 0.000490
328 0.000490
329 0.000489
330 0.000489
331 0.000490
332 0.000495
333 0.000500
334 0.000506
335 0.000507
336 0.000509
337 0.000509
338 0.000510
339 0.000508
340 0.000508
341 0.000505
342 0.000501
343 0.000495
344 0.000484
345 0.000472
346 0.000468
347 0.000472
348 0.000468
349 0.000467
350 0.000466
351 0.000466
352 0.000467
353 0.000469
354 0.000470
355 0.000470
356 0.000473
357 0.000469
358 0.000464
359 0.000462
360 0.000459
361 0.000449
362 0.000442
363 0.000437
364 0.000434
365 0.000435
366 0.000434
367 0.000428
368 0.000424
369 0.000422
370 0.000418
371 0.000425
372 0.000428
373 0.000431
374 0.000433
375 0.000434
376 0.000432
377 0.000434
378 0.000439
379 0.000435
380 0.000437
381 0.000439
382 0.000432
383 0.000429
384 0.000434
385 0.000438
386 0.000443
387 0.000449
388 0.000453
389 0.000458
390 0.000463
391 0.000456
392 0.000451
393 0.000449
394 0.000447
395 0.000441
396 0.000435
397 0.000437
398 0.000435
399 0.000437
400 0.000434
401 0.000431
402 0.000432
403 0.000427
404 0.000422
405 0.000416
406 0.000408
407 0.000405
408 0.000402
409 0.000402
410 0.000392
411 0.000384
412 0.000379
413 0.000370
414 0.000365
415 0.000360
416 0.000356
417 0.000351
418 0.000345
419 0.000337
420 0.000333
421 0.000331
422 0.000327
423 0.000324
424 0.000325
425 0.000321
426 0.000318
427 0.000312
428 0.000299
429 0.000294
430 0.000286
431 0.000283
432 0.000279
433 0.000272
434 0.000265
435 0.000258
436 0.000255
437 0.000256
438 0.000257
439 0.000259
440 0.000257
441 0.000256
442 0.000256
443 0.000257
444 0.000260
445 0.000263
446 0.000264
447 0.000263
448 0.000263
449 0.000260
450 0.000258
451 0.000262
452 0.000261
453 0.000263
454 0.000268
455 0.000272
456 0.000271
457 0.000264
458 0.000257
459 0.000250
460 0.000240
461 0.000232
462 0.000231
463 0.000238
464 0.000247
465 0.000257
466 0.000263
467 0.000271
468 0.000278
469 0.000283
470 0.000287
471 0.000290
472 0.000293
473 0.000293
474 0.000293
475 0.000290
476 0.000285
477 0.000283
478 0.000283
479 0.000281
480 0.000274
481 0.000270
482 0.000266
483 0.000261
484 0.000255
485 0.000247
486 0.000246
487 0.000247
488 0.000251
489 0.000260
490 0.000270
491 0.000279
492 0.000283
493 0.000286
494 0.000284
495 0.000277
496 0.000274
497 0.000271
498 0.000261
499 0.000248
500 0.000239
501 0.000239
502 0.000237
503 0.000233
504 0.000229
505 0.000223
506 0.000219
507 0.000207
508 0.000194
509 0.000182
510 0.000168
511 0.000161
512 0.000166
513 0.000175
514 0.000187
515 0.000196
516 0.000203
517 0.000211
518 0.000214
519 0.000215
520 0.000214
521 0.000217
522 0.000219
523 0.000216
524 0.000212
525 0.000211
526 0.000208
527 0.000207
528 0.000206
529 0.000203
530 0.000202
531 0.000197
532 0.000192
533 0.000189
534 0.000193
535 0.000198
536 0.000207
537 0.000217
538 0.000227
539 0.000237
540 0.000242
541 0.000249
542 0.000255
543 0.000266
544 0.000277
545 0.000280
546 0.000286
547 0.000292
548 0.000300
549 0.000308
550 0.000311
551 0.000314
552 0.000318
553 0.000323
554 0.000330
555 0.000333
556 0.000333
557 0.000330
558 0.000325
559 0.000318
560 0.000305
561 0.000292
562 0.000283
563 0.000278
564 0.000282
565 0.000287
566 0.000291
567 0.000294
568 0.000301
569 0.000304
570 0.000312
571 0.000321
572 0.000326
573 0.000327
574 0.000331
575 0.000332
576 0.000329
577 0.000325
578 0.000323
579 0.000322
580 0.000322
581 0.000320
582 0.000315
583 0.000314
584 0.000310
585 0.000306
586 0.000310
587 0.000313
588 0.000314
589 0.000310
590 0.000305
591 0.000296
592 0.000288
593 0.000280
594 0.000273
595 0.000271
596 0.000267
597 0.000260
598 0.000261
599 0.000259
600 0.000259
601 0.000262
602 0.000268
603 0.000272
604 0.000273
605 0.000276
606 0.000284
607 0.000287
608 0.000292
609 0.000290
610 0.000292
611 0.000297
612 0.000304
613 0.000305
614 0.000303
615 0.000306
616 0.000304
617 0.000302
618 0.000300
619 0.000296
620 0.000290
621 0.000287
622 0.000284
623 0.000280
624 0.000276
625 0.000275
626 0.000272
627 0.000271
628 0.000270
629 0.000268
630 0.000270
631 0.000273
632 0.000273
633 0.000270
634 0.000263
635 0.000257
636 0.000255
637 0.000256
638 0.000259
639 0.000264
640 0.000267
641 0.000263
642 0.000262
643 0.000256
644 0.000248
645 0.000241
646 0.000234
647 0.000232
648 0.000229
649 0.000227
650 0.000224
651 0.000218
652 0.000218
653 0.000221
654 0.000226
655 0.000230
656 0.000228
657 0.000226
658 0.000226
659 0.000228
660 0.000227
661 0.000223
662 0.000223
663 0.000222
664 0.000223
665 0.000225
666 0.000223
667 0.000223
668 0.000224
669 0.000224
670 0.000225
671 0.000229
672 0.000231
673 0.000229
674 0.000227
675 0.000223
676 0.000223
677 0.000221
678 0.000220
679 0.000222
680 0.000221
681 0.000220
682 0.000216
683 0.000214
684 0.000212
685 0.000210
686 0.000210
687 0.000211
688 0.000214
689 0.000221
690 0.000225
691 0.000229
692 0.000227
693 0.000227
694 0.000226
695 0.000223
696 0.000224
697 0.000224
698 0.000224
699 0.000227
700 0.000227
701 0.000227
702 0.000225
703 0.000228
704 0.000231
705 0.000232
706 0.000232
707 0.000233
708 0.000234
709 0.000231
710 0.000225
711 0.000220
712 0.000213
713 0.000211
714 0.000209
715 0.000211
716 0.000211
717 0.000205
718 0.000200
719 0.000198
720 0.000197
721 0.000196
722 0.000193
723 0.000191
724 0.000194
725 0.000200
726 0.000200
727 0.000201
728 0.000197
729 0.000194
730 0.000195
731 0.000198
732 0.000197
733 0.000194
734 0.000195
735 0.000194
736 0.000195
737 0.000191
738 0.000183
739 0.000178
740 0.000176
741 0.000176
742 0.000173
743 0.000171
744 0.000168
745 0.000165
746 0.000161
747 0.000160
748 0.000155
749 0.000150
750 0.000143
751 0.000137
752 0.000133
753 0.000126
754 0.000116
755 0.000107
756 0.000103
757 0.000096
758 0.000090
759 0.000085
760 0.000078
761 0.000076
762 0.000069
763 0.000063
764 0.000062
765 0.000058
766 0.000055
767 0.000051
768 0.000052
769 0.000050
770 0.000044
771 0.000038
772 0.000035
773 0.000035
774 0.000037
775 0.000034
776 0.000032
777 0.000029
778 0.000026
779 0.000024
780 0.000022
781 0.000019
782 0.000017
783 0.000018
784 0.000017
785 0.000015
786 0.000012
787 0.000010
788 0.000006
789 0.000005
790 0.000005
791 0.000004
792 0.000006
793 0.000009
794 0.000012
795 0.000017
796 0.000021
797 0.000025
798 0.000029
799 0.000030
800 0.000026
801 0.000024
802 0.000023
803 0.000020
804 0.000023
805 0.000025
806 0.000028
807 0.000033
808 0.000036
809 0.000036
