# i correlation
1 0.001737
2 0.001683
3 0.001635
4 0.001589
5 0.001549
6 0.001511
7 0.001480
8 0.001452
9 0.001434
10 0.001417
11 0.001403
12 0.001390
13 0.001378
14 0.001372
15 0.001360
16 0.001349
17 0.001340
18 0.001333
19 0.001327
20 0.001317
21 0.001309
22 0.001298
23 0.001297
24 0.001293
25 0.001292
26 0.001287
27 0.001281
28 0.001273
29 0.001268
30 0.001262
31 0.001250
32 0.001240
33 0.001236
34 0.001234
35 0.001243
36 0.001249
37 0.001255
38 0.001258
39 0.001252
40 0.001249
41 0.001238
42 0.001229
43 0.001221
44 0.001214
45 0.001204
46 0.001196
47 0.001192
48 0.001187
49 0.001184
50 0.001185
51 0.001185
52 0.001184
53 0.001184
54 0.001182
55 0.001180
56 0.001168
57 0.001154
58 0.001140
59 0.001121
60 0.001101
61 0.001081
62 0.001067
63 0.001055
64 0.001045
65 0.001037
66 0.001028
67 0.001024
68 0.001020
69 0.001014
70 0.001013
71 0.001012
72 0.001013
73 0.001021
74 0.001029
75 0.001030
76 0.001023
77 0.001025
78 0.001028
79 0.001028
80 0.001018
81 0.001007
82 0.001000
83 0.000997
84 0.000986
85 0.000979
86 0.000969
87 0.000960
88 0.000956
89 0.000952
90 0.000952
91 0.000948
92 0.000947
93 0.000949
94 0.000949
95 0.000951
96 0.000952
97 0.000948
98 0.000950
99 0.000946
100 0.000943
101 0.000938
102 0.000935
103 0.000933
104 0.000933
105 0.000933
106 0.000929
107 0.000922
108 0.000915
109 0.000910
110 0.000907
111 0.000901
112 0.000895
113 0.000889
114 0.000881
115 0.000876
116 0.000868
117 0.000873
118 0.000876
119 0.000879
120 0.000883
121 0.000885
122 0.000888
123 0.000892
124 0.000892
125 0.000887
126 0.000880
127 0.000869
128 0.000861
129 0.000850
130 0.000842
131 0.000837
132 0.000836
133 0.000835
134 0.000836
135 0.000835
136 0.000835
137 0.000836
138 0.000834
139 0.000830
140 0.000831
141 0.000837
142 0.000841
143 0.000841
144 0.000837
145 0.000833
146 0.000831
147 0.000835
148 0.000837
149 0.000836
150 0.000833
151 0.000834
152 0.000839
153 0.000844
154 0.000843
155 0.000844
156 0.000845
157 0.000846
158 0.000842
159 0.000836
160 0.000833
161 0.000835
162 0.000838
163 0.000841
164 0.000845
165 0.000844
166 0.000839
167 0.000831
168 0.000820
169 0.000811
170 0.000805
171 0.000796
172 0.000788
173 0.000781
174 0.000772
175 0.000777
176 0.000786
177 0.000798
178 0.000810
179 0.000824
180 0.000834
181 0.000839
182 0.000838
183 0.000836
184 0.000828
185 0.000818
186 0.000804
187 0.000790
188 0.000784
189 0.000780
190 0.000780
191 0.000783
192 0.000785
193 0.000785
194 0.000786
195 0.000789
196 0.000800
197 0.000806
198 0.000809
199 0.000809
200 0.000810
201 0.000815
202 0.000826
203 0.000831
204 0.000831
205 0.000834
206 0.000836
207 0.000833
208 0.000831
209 0.000824
210 0.000816
211 0.000808
212 0.000800
213 0.000792
214 0.000782
215 0.000784
216 0.000782
217 0.000782
218 0.000780
219 0.000781
220 0.000783
221 0.000787
222 0.000788
223 0.000784
224 0.000777
225 0.000766
226 0.000759
227 0.000754
228 0.000746
229 0.000739
230 0.000732
231 0.000735
232 0.000742
233 0.000745
234 0.000744
235 0.000744
236 0.000744
237 0.000738
238 0.000733
239 0.000728
240 0.000723
241 0.000719
242 0.000719
243 0.000714
244 0.000708
245 0.000701
246 0.000695
247 0.000688
248 0.000681
249 0.000674
250 0.000666
251 0.000659
252 0.000657
253 0.000660
254 0.000657
255 0.000654
256 0.000658
257 0.000657
258 0.000661
259 0.000666
260 0.000667
261 0.000666
262 0.000665
263 0.000658
264 0.000645
265 0.000638
266 0.000628
267 0.000615
268 0.000602
269 0.000589
270 0.000578
271 0.000566
272 0.000553
273 0.000543
274 0.000537
275 0.000539
276 0.000541
277 0.000543
278 0.000544
279 0.000551
280 0.000553
281 0.000559
282 0.000565
283 0.000565
284 0.000565
285 0.000559
286 0.000556
287 0.000551
288 0.000544
289 0.000538
290 0.000534
291 0.000523
292 0.000511
293 0.000499
294 0.000492
295 0.000485
296 0.000485
297 0.000481
298 0.000479
299 0.000476
300 0.000476
301 0.000478
302 0.000476
303 0.000473
304 0.000471
305 0.000472
306 0.000473
307 0.000474
308 0.000473
309 0.000466
310 0.000459
311 0.000455
312 0.000448
313 0.000443
314 0.000444
315 0.000444
316 0.000444
317 0.000445
318 0.000445
319 0.000446
320 0.000449
321 0.000447
322 0.000444
323 0.000437
324 0.000429
325 0.000422
326 0.000419
327 0.000417
328 0.000414
329 0.000413
330 0.000413
331 0.000406
332 0.000411
333 0.000417
334 0.000420
335 0.000421
336 0.000427
337 0.000428
338 0.000429
339 0.000429
340 0.000427
341 0.000426
342 0.000419
343 0.000416
344 0.000419
345 0.000423
346 0.000425
347 0.000423
348 0.000414
349 0.000404
350 0.000396
351 0.000387
352 0.000381
353 0.000376
354 0.000374
355 0.000380
356 0.000387
357 0.000397
358 0.000403
359 0.000408
360 0.000418
361 0.000425
362 0.000429
363 0.000434
364 0.000437
365 0.000435
366 0.000430
367 0.000422
368 0.000408
369 0.000400
370 0.000390
371 0.000382
372 0.000376
373 0.000375
374 0.000376
375 0.000373
376 0.000371
377 0.000365
378 0.000361
379 0.000361
380 0.000363
381 0.000362
382 0.000363
383 0.000363
384 0.000367
385 0.000378
386 0.000383
387 0.000386
388 0.000393
389 0.000392
390 0.000393
391 0.000386
392 0.000381
393 0.000376
394 0.000375
395 0.000374
396 0.000372
397 0.000371
398 0.000366
399 0.000367
400 0.000369
401 0.000369
402 0.000367
403 0.000366
404 0.000364
405 0.000357
406 0.000349
407 0.000344
408 0.000339
409 0.000337
410 0.000330
411 0.000328
412 0.000322
413 0.000316
414 0.000310
415 0.000307
416 0.000300
417 0.000295
418 0.000296
419 0.000295
420 0.000290
421 0.000282
422 0.000280
423 0.000278
424 0.000278
425 0.000279
426 0.000276
427 0.000271
428 0.000270
429 0.000271
430 0.000270
431 0.000268
432 0.000267
433 0.000264
434 0.000265
435 0.000265
436 0.000266
437 0.000270
438 0.000276
439 0.000282
440 0.000288
441 0.000293
442 0.000297
443 0.000299
444 0.000299
445 0.000294
446 0.000288
447 0.000283
448 0.000279
449 0.000270
450 0.000261
451 0.000255
452 0.000247
453 0.000240
454 0.000232
455 0.000226
456 0.000216
457 0.000209
458 0.000203
459 0.000203
460 0.000203
461 0.000203
462 0.000205
463 0.000207
464 0.000208
465 0.000209
466 0.000207
467 0.000205
468 0.000200
469 0.000190
470 0.000179
471 0.000171
472 0.000163
473 0.000155
474 0.000148
475 0.000144
476 0.000139
477 0.000138
478 0.000143
479 0.000144
480 0.000148
481 0.000152
482 0.000157
483 0.000164
484 0.000173
485 0.000184
486 0.000193
487 0.000196
488 0.000196
489 0.000195
490 0.000193
491 0.000185
492 0.000183
493 0.000179
494 0.000173
495 0.000166
496 0.000159
497 0.000158
498 0.000159
499 0.000162
500 0.000168
501 0.000169
502 0.000175
503 0.000181
504 0.000182
505 0.000184
506 0.000180
507 0.000174
508 0.000174
509 0.000175
510 0.000175
511 0.000182
512 0.000189
513 0.000199
514 0.000206
515 0.000211
516 0.000211
517 0.000209
518 0.000210
519 0.000207
520 0.000205
521 0.000208
522 0.000211
523 0.000212
524 0.000208
525 0.000209
526 0.000209
527 0.000206
528 0.000203
529 0.000202
530 0.000200
531 0.000196
532 0.000191
533 0.000185
534 0.000181
535 0.000182
536 0.000184
537 0.000189
538 0.000197
539 0.000204
540 0.000217
541 0.000230
542 0.000244
543 0.000256
544 0.000262
545 0.000263
546 0.000256
547 0.000247
548 0.000237
549 0.000234
550 0.000232
551 0.000231
552 0.000231
553 0.000229
554 0.000226
555 0.000225
556 0.000224
557 0.000224
558 0.000224
559 0.000224
560 0.000224
561 0.000226
562 0.000223
563 0.000225
564 0.000224
565 0.000225
566 0.000231
567 0.000231
568 0.000236
569 0.000234
570 0.000233
571 0.000231
572 0.000229
573 0.000227
574 0.000221
575 0.000221
576 0.000222
577 0.000223
578 0.000224
579 0.000227
580 0.000232
581 0.000233
582 0.000233
583 0.000230
584 0.000228
585 0.000228
586 0.000227
587 0.000227
588 0.000232
589 0.000236
590 0.000240
591 0.000244
592 0.000247
593 0.000252
594 0.000255
595 0.000261
596 0.000264
597 0.000266
598 0.000271
599 0.000273
600 0.000273
601 0.000271
602 0.000265
603 0.000261
604 0.000256
605 0.000251
606 0.000248
607 0.000242
608 0.000240
609 0.000239
610 0.000237
611 0.000234
612 0.000229
613 0.000224
614 0.000220
615 0.000216
616 0.000212
617 0.000213
618 0.000213
619 0.000215
620 0.000218
621 0.000219
622 0.000219
623 0.000222
624 0.000224
625 0.000220
626 0.000219
627 0.000217
628 0.000216
629 0.000213
630 0.000211
631 0.000211
632 0.000209
633 0.000207
634 0.000205
635 0.000203
636 0.000198
637 0.000190
638 0.000181
639 0.000170
640 0.000162
641 0.000153
642 0.000148
643 0.000146
644 0.000147
645 0.000148
646 0.000151
647 0.000153
648 0.000159
649 0.000163
650 0.000167
651 0.000169
652 0.000163
653 0.000159
654 0.000154
655 0.000152
656 0.000149
657 0.000145
658 0.000140
659 0.000137
660 0.000131
661 0.000130
662 0.000132
663 0.000137
664 0.000139
665 0.000142
666 0.000144
667 0.000140
668 0.000139
669 0.000137
670 0.000135
671 0.000132
672 0.000126
673 0.000120
674 0.000119
675 0.000119
676 0.000118
677 0.000118
678 0.000117
679 0.000112
680 0.000106
681 0.000101
682 0.000096
683 0.000094
684 0.000094
685 0.000094
686 0.000095
687 0.000093
688 0.000089
689 0.000081
690 0.000076
691 0.000071
692 0.000066
693 0.000067
694 0.000067
695 0.000066
696 0.000064
697 0.000062
698 0.000060
699 0.000059
700 0.000058
701 0.000063
702 0.000068
703 0.000070
704 0.000071
705 0.000073
706 0.000077
707 0.000079
708 0.000078
709 0.000076
710 0.000077
711 0.000075
712 0.000074
713 0.000073
714 0.000068
715 0.000063
716 0.000058
717 0.000057
718 0.000055
719 0.000054
720 0.000057
721 0.000066
722 0.000073
723 0.000080
724 0.000088
725 0.000090
726 0.000090
727 0.000089
728 0.000085
729 0.000081
730 0.000079
731 0.000078
732 0.000074
733 0.000071
734 0.000066
735 0.000059
736 0.000056
737 0.000052
738 0.000049
739 0.000043
740 0.000039
741 0.000038
742 0.000038
743 0.000036
744 0.000036
745 0.000039
746 0.000041
747 0.000044
748 0.000047
749 0.000049
750 0.000048
751 0.000045
752 0.000043
753 0.000041
754 0.000040
755 0.000038
756 0.000039
757 0.000040
758 0.000041
759 0.000042
760 0.000041
761 0.000042
762 0.000041
763 0.000039
764 0.000038
765 0.000037
766 0.000035
767 0.000035
768 0.000041
769 0.000043
770 0.000045
771 0.000051
772 0.000055
773 0.000058
774 0.000061
775 0.000065
776 0.000070
777 0.000070
778 0.000072
779 0.000074
780 0.000075
781 0.000075
782 0.000075
783 0.000075
784 0.000078
785 0.000084
786 0.000085
787 0.000084
788 0.000084
789 0.000083
790 0.000080
791 0.000077
792 0.000077
793 0.000077
794 0.000078
795 0.000079
796 0.000081
797 0.000085
798 0.000088
799 0.000092
800 0.000098
801 0.000101
802 0.000101
803 0.000102
804 0.000101
805 0.000100
806 0.000099
807 0.000098
808 0.000097
809 0.000093
