# i correlation
1 0.001811
2 0.001754
3 0.001703
4 0.001659
5 0.001635
6 0.001611
7 0.001590
8 0.001571
9 0.001557
10 0.001545
11 0.001530
12 0.001515
13 0.001497
14 0.001485
15 0.001474
16 0.001463
17 0.001456
18 0.001450
19 0.001446
20 0.001442
21 0.001436
22 0.001431
23 0.001434
24 0.001433
25 0.001433
26 0.001430
27 0.001428
28 0.001427
29 0.001426
30 0.001427
31 0.001425
32 0.001414
33 0.001404
34 0.001389
35 0.001382
36 0.001377
37 0.001379
38 0.001377
39 0.001367
40 0.001355
41 0.001342
42 0.001329
43 0.001313
44 0.001299
45 0.001290
46 0.001281
47 0.001279
48 0.001278
49 0.001280
50 0.001286
51 0.001289
52 0.001284
53 0.001279
54 0.001277
55 0.001269
56 0.001270
57 0.001273
58 0.001274
59 0.001280
60 0.001282
61 0.001287
62 0.001294
63 0.001297
64 0.001299
65 0.001298
66 0.001295
67 0.001294
68 0.001292
69 0.001287
70 0.001271
71 0.001261
72 0.001241
73 0.001229
74 0.001221
75 0.001213
76 0.001203
77 0.001190
78 0.001184
79 0.001185
80 0.001181
81 0.001180
82 0.001175
83 0.001175
84 0.001177
85 0.001184
86 0.001192
87 0.001200
88 0.001212
89 0.001217
90 0.001219
91 0.001221
92 0.001221
93 0.001220
94 0.001216
95 0.001211
96 0.001212
97 0.001205
98 0.001203
99 0.001197
100 0.001191
101 0.001177
102 0.001167
103 0.001158
104 0.001148
105 0.001137
106 0.001131
107 0.001115
108 0.001103
109 0.001090
110 0.001078
111 0.001072
112 0.001067
113 0.001056
114 0.001040
115 0.001026
116 0.001026
117 0.001022
118 0.001024
119 0.001027
120 0.001028
121 0.001025
122 0.001020
123 0.001008
124 0.000993
125 0.000980
126 0.000970
127 0.000965
128 0.000962
129 0.000962
130 0.000957
131 0.000951
132 0.000943
133 0.000937
134 0.000929
135 0.000924
136 0.000920
137 0.000913
138 0.000906
139 0.000898
140 0.000887
141 0.000880
142 0.000876
143 0.000867
144 0.000864
145 0.000860
146 0.000857
147 0.000861
148 0.000866
149 0.000871
150 0.000885
151 0.000893
152 0.000894
153 0.000896
154 0.000900
155 0.000899
156 0.000900
157 0.000902
158 0.000900
159 0.000905
160 0.000909
161 0.000910
162 0.000908
163 0.000901
164 0.000894
165 0.000884
166 0.000873
167 0.000865
168 0.000861
169 0.000856
170 0.000855
171 0.000857
172 0.000854
173 0.000848
174 0.000841
175 0.000829
176 0.000818
177 0.000814
178 0.000806
179 0.000811
180 0.000817
181 0.000817
182 0.000818
183 0.000816
184 0.000818
185 0.000822
186 0.000823
187 0.000832
188 0.000836
189 0.000840
190 0.000840
191 0.000844
192 0.000842
193 0.000832
194 0.000822
195 0.000808
196 0.000799
197 0.000795
198 0.000792
199 0.000785
200 0.000776
201 0.000773
202 0.000768
203 0.000762
204 0.000757
205 0.000745
206 0.000732
207 0.000727
208 0.000723
209 0.000715
210 0.000714
211 0.000712
212 0.000711
213 0.000704
214 0.000695
215 0.000692
216 0.000691
217 0.000690
218 0.000691
219 0.000688
220 0.000684
221 0.000684
222 0.000688
223 0.000691
224 0.000692
225 0.000694
226 0.000688
227 0.000685
228 0.000677
229 0.000666
230 0.000654
231 0.000638
232 0.000625
233 0.000614
234 0.000607
235 0.000603
236 0.000597
237 0.000590
238 0.000589
239 0.000593
240 0.000604
241 0.000614
242 0.000619
243 0.000620
244 0.000623
245 0.000628
246 0.000634
247 0.000642
248 0.000649
249 0.000653
250 0.000660
251 0.000667
252 0.000670
253 0.000674
254 0.000674
255 0.000677
256 0.000677
257 0.000675
258 0.000679
259 0.000677
260 0.000679
261 0.000680
262 0.000677
263 0.000671
264 0.000661
265 0.000648
266 0.000641
267 0.000630
268 0.000625
269 0.000626
270 0.000627
271 0.000626
272 0.000630
273 0.000632
274 0.000631
275 0.000631
276 0.000632
277 0.000634
278 0.000638
279 0.000643
280 0.000648
281 0.000648
282 0.000646
283 0.000650
284 0.000647
285 0.000648
286 0.000653
287 0.000652
288 0.000655
289 0.000653
290 0.000652
291 0.000651
292 0.000650
293 0.000648
294 0.000643
295 0.000637
296 0.000633
297 0.000626
298 0.000619
299 0.000612
300 0.000608
301 0.000606
302 0.000601
303 0.000598
304 0.000594
305 0.000588
306 0.000584
307 0.000586
308 0.000588
309 0.000591
310 0.000598
311 0.000601
312 0.000598
313 0.000593
314 0.000587
315 0.000584
316 0.000581
317 0.000577
318 0.000579
319 0.000582
320 0.000587
321 0.000588
322 0.000583
323 0.000582
324 0.000574
325 0.000568
326 0.000560
327 0.000554
328 0.000547
329 0.000540
330 0.000531
331 0.000526
332 0.000520
333 0.000522
334 0.000524
335 0.000522
336 0.000518
337 0.000513
338 0.000511
339 0.000508
340 0.000508
341 0.000508
342 0.000509
343 0.000512
344 0.000514
345 0.000520
346 0.000526
347 0.000532
348 0.000539
349 0.000546
350 0.000553
351 0.000558
352 0.000559
353 0.000559
354 0.000558
355 0.000551
356 0.000546
357 0.000546
358 0.000546
359 0.000549
360 0.000550
361 0.000553
362 0.000559
363 0.000559
364 0.000561
365 0.000559
366 0.000554
367 0.000547
368 0.000542
369 0.000541
370 0.000540
371 0.000539
372 0.000541
373 0.000542
374 0.000547
375 0.000551
376 0.000557
377 0.000560
378 0.000565
379 0.000569
380 0.000568
381 0.000564
382 0.000564
383 0.000558
384 0.000554
385 0.000551
386 0.000547
387 0.000541
388 0.000541
389 0.000542
390 0.000540
391 0.000542
392 0.000539
393 0.000534
394 0.000530
395 0.000530
396 0.000533
397 0.000539
398 0.000540
399 0.000542
400 0.000539
401 0.000536
402 0.000542
403 0.000540
404 0.000539
405 0.000534
406 0.000530
407 0.000530
408 0.000530
409 0.000531
410 0.000529
411 0.000530
412 0.000532
413 0.000530
414 0.000532
415 0.000534
416 0.000533
417 0.000525
418 0.000518
419 0.000514
420 0.000507
421 0.000504
422 0.000496
423 0.000490
424 0.000480
425 0.000471
426 0.000466
427 0.000465
428 0.000462
429 0.000461
430 0.000461
431 0.000458
432 0.000458
433 0.000457
434 0.000450
435 0.000443
436 0.000437
437 0.000435
438 0.000439
439 0.000444
440 0.000449
441 0.000451
442 0.000455
443 0.000460
444 0.000462
445 0.000466
446 0.000469
447 0.000470
448 0.000467
449 0.000469
450 0.000469
451 0.000469
452 0.000471
453 0.000475
454 0.000478
455 0.000473
456 0.000468
457 0.000462
458 0.000453
459 0.000452
460 0.000452
461 0.000453
462 0.000456
463 0.000460
464 0.000465
465 0.000472
466 0.000474
467 0.000476
468 0.000475
469 0.000472
470 0.000475
471 0.000479
472 0.000479
473 0.000477
474 0.000471
475 0.000465
476 0.000462
477 0.000465
478 0.000466
479 0.000465
480 0.000464
481 0.000463
482 0.000465
483 0.000466
484 0.000465
485 0.000461
486 0.000459
487 0.000457
488 0.000454
489 0.000449
490 0.000448
491 0.000443
492 0.000433
493 0.000423
494 0.000414
495 0.000410
496 0.000409
497 0.000405
498 0.000408
499 0.000406
500 0.000404
501 0.000407
502 0.000406
503 0.000405
504 0.000401
505 0.000399
506 0.000398
507 0.000399
508 0.000403
509 0.000403
510 0.000403
511 0.000401
512 0.000394
513 0.000393
514 0.000389
515 0.000386
516 0.000379
517 0.000377
518 0.000374
519 0.000373
520 0.000373
521 0.000371
522 0.000368
523 0.000365
524 0.000362
525 0.000358
526 0.000357
527 0.000357
528 0.000359
529 0.000359
530 0.000361
531 0.000361
532 0.000361
533 0.000364
534 0.000362
535 0.000361
536 0.000365
537 0.000360
538 0.000364
539 0.000364
540 0.000362
541 0.000366
542 0.000367
543 0.000367
544 0.000364
545 0.000357
546 0.000353
547 0.000351
548 0.000351
549 0.000357
550 0.000368
551 0.000372
552 0.000379
553 0.000383
554 0.000382
555 0.000381
556 0.000379
557 0.000379
558 0.000383
559 0.000389
560 0.000387
561 0.000387
562 0.000388
563 0.000385
564 0.000378
565 0.000378
566 0.000376
567 0.000378
568 0.000379
569 0.000383
570 0.000385
571 0.000385
572 0.000385
573 0.000388
574 0.000389
575 0.000388
576 0.000387
577 0.000383
578 0.000378
579 0.000371
580 0.000368
581 0.000367
582 0.000363
583 0.000362
584 0.000359
585 0.000350
586 0.000344
587 0.000341
588 0.000334
589 0.000332
590 0.000330
591 0.000326
592 0.000321
593 0.000316
594 0.000315
595 0.000315
596 0.000314
597 0.000309
598 0.000305
599 0.000303
600 0.000303
601 0.000306
602 0.000303
603 0.000302
604 0.000304
605 0.000300
606 0.000299
607 0.000296
608 0.000288
609 0.000285
610 0.000277
611 0.000268
612 0.000260
613 0.000250
614 0.000243
615 0.000237
616 0.000230
617 0.000223
618 0.000218
619 0.000222
620 0.000224
621 0.000225
622 0.000221
623 0.000217
624 0.000218
625 0.000219
626 0.000223
627 0.000221
628 0.000218
629 0.000213
630 0.000208
631 0.000204
632 0.000199
633 0.000195
634 0.000197
635 0.000195
636 0.000197
637 0.000200
638 0.000207
639 0.000214
640 0.000220
641 0.000222
642 0.000226
643 0.000224
644 0.000227
645 0.000229
646 0.000230
647 0.000228
648 0.000228
649 0.000229
650 0.000232
651 0.000234
652 0.000234
653 0.000232
654 0.000234
655 0.000237
656 0.000238
657 0.000241
658 0.000243
659 0.000241
660 0.000237
661 0.000234
662 0.000232
663 0.000229
664 0.000222
665 0.000221
666 0.000223
667 0.000224
668 0.000228
669 0.000233
670 0.000240
671 0.000245
672 0.000249
673 0.000250
674 0.000249
675 0.000247
676 0.000241
677 0.000238
678 0.000236
679 0.000237
680 0.000237
681 0.000234
682 0.000229
683 0.000224
684 0.000217
685 0.000213
686 0.000204
687 0.000201
688 0.000199
689 0.000199
690 0.000202
691 0.000199
692 0.000199
693 0.000200
694 0.000200
695 0.000200
696 0.000192
697 0.000189
698 0.000183
699 0.000180
700 0.000180
701 0.000177
702 0.000174
703 0.000173
704 0.000172
705 0.000171
706 0.000171
707 0.000173
708 0.000175
709 0.000177
710 0.000174
711 0.000171
712 0.000172
713 0.000174
714 0.000172
715 0.000173
716 0.000173
717 0.000175
718 0.000176
719 0.000173
720 0.000169
721 0.000165
722 0.000163
723 0.000166
724 0.000168
725 0.000169
726 0.000171
727 0.000171
728 0.000169
729 0.000170
730 0.000171
731 0.000174
732 0.000178
733 0.000180
734 0.000183
735 0.000183
736 0.000183
737 0.000184
738 0.000186
739 0.000189
740 0.000193
741 0.000197
742 0.000203
743 0.000204
744 0.000206
745 0.000204
746 0.000206
747 0.000205
748 0.000203
749 0.000202
750 0.000201
751 0.000202
752 0.000200
753 0.000196
754 0.000197
755 0.000192
756 0.000191
757 0.000189
758 0.000188
759 0.000190
760 0.000192
761 0.000194
762 0.000193
763 0.000190
764 0.000186
765 0.000183
766 0.000184
767 0.000181
768 0.000179
769 0.000178
770 0.000175
771 0.000175
772 0.000174
773 0.000174
774 0.000174
775 0.000173
776 0.000169
777 0.000167
778 0.000164
779 0.000160
780 0.000156
781 0.000152
782 0.000147
783 0.000144
784 0.000140
785 0.000137
786 0.000135
787 0.000133
788 0.000133
789 0.000133
790 0.000131
791 0.000129
792 0.000128
793 0.000125
794 0.000124
795 0.000120
796 0.000116
797 0.000115
798 0.000112
799 0.000113
800 0.000115
801 0.000117
802 0.000116
803 0.000117
804 0.000115
805 0.000113
806 0.000113
807 0.000111
808 0.000113
809 0.000115
