# i correlation
1 0.001669
2 0.001607
3 0.001548
4 0.001497
5 0.001450
6 0.001409
7 0.001382
8 0.001366
9 0.001339
10 0.001317
11 0.001303
12 0.001290
13 0.001285
14 0.001271
15 0.001262
16 0.001248
17 0.001242
18 0.001233
19 0.001226
20 0.001223
21 0.001220
22 0.001215
23 0.001201
24 0.001185
25 0.001172
26 0.001157
27 0.001151
28 0.001140
29 0.001139
30 0.001134
31 0.001114
32 0.001101
33 0.001089
34 0.001075
35 0.001057
36 0.001051
37 0.001052
38 0.001052
39 0.001045
40 0.001050
41 0.001051
42 0.001047
43 0.001035
44 0.001029
45 0.001020
46 0.001002
47 0.000994
48 0.000994
49 0.001001
50 0.001003
51 0.000999
52 0.000991
53 0.000983
54 0.000975
55 0.000970
56 0.000964
57 0.000962
58 0.000960
59 0.000958
60 0.000954
61 0.000954
62 0.000956
63 0.000956
64 0.000952
65 0.000944
66 0.000936
67 0.000933
68 0.000937
69 0.000945
70 0.000955
71 0.000965
72 0.000969
73 0.000965
74 0.000962
75 0.000951
76 0.000943
77 0.000944
78 0.000948
79 0.000956
80 0.000959
81 0.000964
82 0.000967
83 0.000961
84 0.000955
85 0.000952
86 0.000953
87 0.000946
88 0.000939
89 0.000935
90 0.000923
91 0.000916
92 0.000908
93 0.000902
94 0.000900
95 0.000895
96 0.000889
97 0.000883
98 0.000876
99 0.000881
100 0.000883
101 0.000884
102 0.000878
103 0.000878
104 0.000865
105 0.000850
106 0.000842
107 0.000840
108 0.000835
109 0.000827
110 0.000826
111 0.000826
112 0.000835
113 0.000839
114 0.000844
115 0.000844
116 0.000843
117 0.000834
118 0.000834
119 0.000827
120 0.000822
121 0.000819
122 0.000817
123 0.000816
124 0.000810
125 0.000804
126 0.000799
127 0.000792
128 0.000788
129 0.000788
130 0.000785
131 0.000773
132 0.000761
133 0.000757
134 0.000753
135 0.000747
136 0.000741
137 0.000738
138 0.000725
139 0.000715
140 0.000709
141 0.000714
142 0.000717
143 0.000723
144 0.000724
145 0.000729
146 0.000726
147 0.000722
148 0.000719
149 0.000713
150 0.000713
151 0.000715
152 0.000720
153 0.000718
154 0.000715
155 0.000708
156 0.000707
157 0.000702
158 0.000706
159 0.000704
160 0.000703
161 0.000695
162 0.000690
163 0.000693
164 0.000695
165 0.000697
166 0.000702
167 0.000705
168 0.000708
169 0.000697
170 0.000692
171 0.000695
172 0.000693
173 0.000696
174 0.000701
175 0.000710
176 0.000711
177 0.000712
178 0.000715
179 0.000712
180 0.000709
181 0.000710
182 0.000701
183 0.000693
184 0.000687
185 0.000690
186 0.000698
187 0.000696
188 0.000691
189 0.000687
190 0.000690
191 0.000681
192 0.000672
193 0.000666
194 0.000664
195 0.000656
196 0.000648
197 0.000648
198 0.000643
199 0.000642
200 0.000639
201 0.000634
202 0.000634
203 0.000638
204 0.000634
205 0.000635
206 0.000636
207 0.000638
208 0.000634
209 0.000628
210 0.000623
211 0.000622
212 0.000615
213 0.000611
214 0.000610
215 0.000616
216 0.000619
217 0.000611
218 0.000603
219 0.000594
220 0.000582
221 0.000573
222 0.000572
223 0.000567
224 0.000568
225 0.000562
226 0.000565
227 0.000564
228 0.000559
229 0.000559
230 0.000561
231 0.000559
232 0.000557
233 0.000550
234 0.000545
235 0.000548
236 0.000554
237 0.000560
238 0.000553
239 0.000547
240 0.000536
241 0.000523
242 0.000512
243 0.000500
244 0.000496
245 0.000491
246 0.000486
247 0.000493
248 0.000501
249 0.000507
250 0.000510
251 0.000513
252 0.000519
253 0.000521
254 0.000519
255 0.000524
256 0.000528
257 0.000533
258 0.000531
259 0.000539
260 0.000544
261 0.000543
262 0.000537
263 0.000532
264 0.000529
265 0.000526
266 0.000524
267 0.000521
268 0.000510
269 0.000506
270 0.000504
271 0.000506
272 0.000510
273 0.000510
274 0.000510
275 0.000510
276 0.000510
277 0.000512
278 0.000514
279 0.000517
280 0.000525
281 0.000532
282 0.000531
283 0.000536
284 0.000542
285 0.000554
286 0.000570
287 0.000573
288 0.000574
289 0.000582
290 0.000587
291 0.000586
292 0.000586
293 0.000592
294 0.000598
295 0.000598
296 0.000592
297 0.000593
298 0.000591
299 0.000590
300 0.000589
301 0.000592
302 0.000587
303 0.000583
304 0.000577
305 0.000575
306 0.000572
307 0.000568
308 0.000570
309 0.000569
310 0.000565
311 0.000557
312 0.000556
313 0.000553
314 0.000555
315 0.000559
316 0.000560
317 0.000559
318 0.000554
319 0.000552
320 0.000550
321 0.000545
322 0.000541
323 0.000542
324 0.000540
325 0.000539
326 0.000537
327 0.000536
328 0.000537
329 0.000537
330 0.000541
331 0.000545
332 0.000542
333 0.000541
334 0.000539
335 0.000538
336 0.000537
337 0.000536
338 0.000534
339 0.000538
340 0.000536
341 0.000529
342 0.000527
343 0.000525
344 0.000524
345 0.000528
346 0.000529
347 0.000520
348 0.000515
349 0.000512
350 0.000512
351 0.000507
352 0.000502
353 0.000504
354 0.000507
355 0.000505
356 0.000505
357 0.000505
358 0.000510
359 0.000510
360 0.000512
361 0.000513
362 0.000511
363 0.000514
364 0.000512
365 0.000520
366 0.000526
367 0.000532
368 0.000532
369 0.000532
370 0.000526
371 0.000528
372 0.000532
373 0.000534
374 0.000535
375 0.000539
376 0.000543
377 0.000546
378 0.000555
379 0.000564
380 0.000580
381 0.000591
382 0.000600
383 0.000609
384 0.000611
385 0.000608
386 0.000604
387 0.000600
388 0.000595
389 0.000591
390 0.000590
391 0.000582
392 0.000565
393 0.000555
394 0.000547
395 0.000541
396 0.000534
397 0.000532
398 0.000530
399 0.000526
400 0.000524
401 0.000527
402 0.000531
403 0.000536
404 0.000536
405 0.000539
406 0.000532
407 0.000526
408 0.000524
409 0.000517
410 0.000510
411 0.000504
412 0.000497
413 0.000492
414 0.000480
415 0.000473
416 0.000464
417 0.000455
418 0.000447
419 0.000438
420 0.000433
421 0.000427
422 0.000425
423 0.000425
424 0.000426
425 0.000425
426 0.000424
427 0.000422
428 0.000421
429 0.000420
430 0.000420
431 0.000419
432 0.000419
433 0.000417
434 0.000414
435 0.000414
436 0.000411
437 0.000414
438 0.000422
439 0.000423
440 0.000427
441 0.000425
442 0.000429
443 0.000427
444 0.000422
445 0.000422
446 0.000417
447 0.000417
448 0.000411
449 0.000406
450 0.000407
451 0.000406
452 0.000415
453 0.000427
454 0.000430
455 0.000437
456 0.000433
457 0.000432
458 0.000436
459 0.000435
460 0.000441
461 0.000442
462 0.000445
463 0.000442
464 0.000435
465 0.000430
466 0.000431
467 0.000432
468 0.000430
469 0.000425
470 0.000421
471 0.000416
472 0.000415
473 0.000413
474 0.000413
475 0.000417
476 0.000423
477 0.000418
478 0.000409
479 0.000409
480 0.000408
481 0.000404
482 0.000401
483 0.000402
484 0.000405
485 0.000407
486 0.000402
487 0.000406
488 0.000405
489 0.000406
490 0.000402
491 0.000396
492 0.000388
493 0.000381
494 0.000371
495 0.000361
496 0.000357
497 0.000353
498 0.000343
499 0.000331
500 0.000326
501 0.000323
502 0.000323
503 0.000317
504 0.000316
505 0.000312
506 0.000311
507 0.000307
508 0.000311
509 0.000315
510 0.000320
511 0.000327
512 0.000332
513 0.000337
514 0.000339
515 0.000337
516 0.000334
517 0.000337
518 0.000333
519 0.000331
520 0.000331
521 0.000334
522 0.000326
523 0.000323
524 0.000321
525 0.000320
526 0.000323
527 0.000327
528 0.000327
529 0.000326
530 0.000325
531 0.000327
532 0.000324
533 0.000324
534 0.000325
535 0.000323
536 0.000323
537 0.000318
538 0.000320
539 0.000319
540 0.000320
541 0.000319
542 0.000319
543 0.000312
544 0.000310
545 0.000304
546 0.000301
547 0.000298
548 0.000292
549 0.000286
550 0.000286
551 0.000284
552 0.000286
553 0.000292
554 0.000293
555 0.000297
556 0.000305
557 0.000310
558 0.000310
559 0.000308
560 0.000302
561 0.000302
562 0.000298
563 0.000285
564 0.000275
565 0.000270
566 0.000265
567 0.000263
568 0.000266
569 0.000270
570 0.000276
571 0.000277
572 0.000281
573 0.000278
574 0.000272
575 0.000267
576 0.000264
577 0.000253
578 0.000249
579 0.000240
580 0.000237
581 0.000229
582 0.000223
583 0.000218
584 0.000213
585 0.000203
586 0.000197
587 0.000195
588 0.000195
589 0.000198
590 0.000200
591 0.000202
592 0.000202
593 0.000199
594 0.000194
595 0.000188
596 0.000181
597 0.000175
598 0.000169
599 0.000164
600 0.000164
601 0.000168
602 0.000175
603 0.000176
604 0.000174
605 0.000177
606 0.000176
607 0.000175
608 0.000172
609 0.000178
610 0.000182
611 0.000182
612 0.000181
613 0.000179
614 0.000176
615 0.000172
616 0.000171
617 0.000170
618 0.000173
619 0.000170
620 0.000173
621 0.000173
622 0.000171
623 0.000169
624 0.000167
625 0.000165
626 0.000166
627 0.000169
628 0.000174
629 0.000179
630 0.000185
631 0.000192
632 0.000196
633 0.000198
634 0.000198
635 0.000196
636 0.000188
637 0.000178
638 0.000171
639 0.000173
640 0.000174
641 0.000177
642 0.000184
643 0.000194
644 0.000197
645 0.000199
646 0.000198
647 0.000198
648 0.000194
649 0.000188
650 0.000188
651 0.000184
652 0.000184
653 0.000183
654 0.000187
655 0.000191
656 0.000197
657 0.000201
658 0.000204
659 0.000206
660 0.000208
661 0.000210
662 0.000213
663 0.000216
664 0.000219
665 0.000224
666 0.000225
667 0.000225
668 0.000227
669 0.000233
670 0.000240
671 0.000247
672 0.000254
673 0.000260
674 0.000263
675 0.000265
676 0.000261
677 0.000256
678 0.000245
679 0.000240
680 0.000229
681 0.000220
682 0.000214
683 0.000207
684 0.000201
685 0.000193
686 0.000184
687 0.000182
688 0.000182
689 0.000180
690 0.000181
691 0.000185
692 0.000190
693 0.000189
694 0.000191
695 0.000193
696 0.000189
697 0.000186
698 0.000183
699 0.000184
700 0.000181
701 0.000177
702 0.000173
703 0.000172
704 0.000169
705 0.000166
706 0.000160
707 0.000154
708 0.000150
709 0.000142
710 0.000133
711 0.000126
712 0.000124
713 0.000120
714 0.000119
715 0.000119
716 0.000117
717 0.000118
718 0.000114
719 0.000111
720 0.000108
721 0.000106
722 0.000102
723 0.000099
724 0.000099
725 0.000101
726 0.000102
727 0.000102
728 0.000104
729 0.000101
730 0.000100
731 0.000099
732 0.000101
733 0.000101
734 0.000100
735 0.000099
736 0.000100
737 0.000098
738 0.000097
739 0.000092
740 0.000087
741 0.000081
742 0.000077
743 0.000078
744 0.000082
745 0.000084
746 0.000089
747 0.000090
748 0.000090
749 0.000088
750 0.000090
751 0.000088
752 0.000086
753 0.000085
754 0.000079
755 0.000073
756 0.000068
757 0.000061
758 0.000054
759 0.000048
760 0.000041
761 0.000036
762 0.000032
763 0.000027
764 0.000023
765 0.000021
766 0.000020
767 0.000018
768 0.000023
769 0.000028
770 0.000035
771 0.000035
772 0.000035
773 0.000037
774 0.000034
775 0.000031
776 0.000029
777 0.000028
778 0.000024
779 0.000018
780 0.000017
781 0.000015
782 0.000011
783 0.000009
784 0.000005
785 0.000003
786 0.000008
787 0.000013
788 0.000017
789 0.000020
790 0.000020
791 0.000018
792 0.000017
793 0.000014
794 0.000013
795 0.000013
796 0.000008
797 0.000001
798 -0.000005
799 -0.000011
800 -0.000018
801 -0.000024
802 -0.000031
803 -0.000035
804 -0.000040
805 -0.000040
806 -0.000038
807 -0.000033
808 -0.000027
809 -0.000024
