# i correlation
1 0.001818
2 0.001764
3 0.001717
4 0.001676
5 0.001641
6 0.001614
7 0.001584
8 0.001549
9 0.001518
10 0.001492
11 0.001470
12 0.001450
13 0.001434
14 0.001419
15 0.001406
16 0.001383
17 0.001365
18 0.001345
19 0.001328
20 0.001312
21 0.001298
22 0.001287
23 0.001272
24 0.001262
25 0.001257
26 0.001254
27 0.001247
28 0.001241
29 0.001234
30 0.001220
31 0.001212
32 0.001200
33 0.001188
34 0.001178
35 0.001165
36 0.001157
37 0.001147
38 0.001136
39 0.001131
40 0.001126
41 0.001127
42 0.001125
43 0.001127
44 0.001126
45 0.001124
46 0.001125
47 0.001122
48 0.001116
49 0.001111
50 0.001105
51 0.001102
52 0.001102
53 0.001104
54 0.001110
55 0.001114
56 0.001108
57 0.001098
58 0.001098
59 0.001090
60 0.001094
61 0.001098
62 0.001103
63 0.001100
64 0.001094
65 0.001090
66 0.001083
67 0.001079
68 0.001075
69 0.001073
70 0.001073
71 0.001070
72 0.001068
73 0.001068
74 0.001071
75 0.001078
76 0.001078
77 0.001083
78 0.001077
79 0.001076
80 0.001080
81 0.001079
82 0.001076
83 0.001069
84 0.001061
85 0.001055
86 0.001051
87 0.001042
88 0.001031
89 0.001023
90 0.001019
91 0.001011
92 0.001007
93 0.001002
94 0.001001
95 0.001000
96 0.001003
97 0.001001
98 0.000995
99 0.000988
100 0.000983
101 0.000982
102 0.000978
103 0.000978
104 0.000971
105 0.000956
106 0.000943
107 0.000939
108 0.000929
109 0.000921
110 0.000915
111 0.000905
112 0.000891
113 0.000879
114 0.000874
115 0.000862
116 0.000862
117 0.000864
118 0.000868
119 0.000867
120 0.000865
121 0.000861
122 0.000854
123 0.000857
124 0.000857
125 0.000861
126 0.000861
127 0.000864
128 0.000857
129 0.000857
130 0.000856
131 0.000861
132 0.000871
133 0.000875
134 0.000876
135 0.000878
136 0.000874
137 0.000870
138 0.000869
139 0.000864
140 0.000857
141 0.000850
142 0.000847
143 0.000848
144 0.000847
145 0.000844
146 0.000839
147 0.000834
148 0.000831
149 0.000832
150 0.000839
151 0.000835
152 0.000831
153 0.000819
154 0.000807
155 0.000795
156 0.000784
157 0.000775
158 0.000766
159 0.000759
160 0.000751
161 0.000746
162 0.000740
163 0.000735
164 0.000733
165 0.000736
166 0.000738
167 0.000733
168 0.000725
169 0.000718
170 0.000715
171 0.000718
172 0.000720
173 0.000716
174 0.000716
175 0.000719
176 0.000731
177 0.000739
178 0.000754
179 0.000767
180 0.000774
181 0.000781
182 0.000784
183 0.000786
184 0.000785
185 0.000779
186 0.000778
187 0.000780
188 0.000779
189 0.000777
190 0.000771
191 0.000769
192 0.000763
193 0.000766
194 0.000764
195 0.000760
196 0.000759
197 0.000763
198 0.000764
199 0.000757
200 0.000749
201 0.000742
202 0.000737
203 0.000731
204 0.000729
205 0.000727
206 0.000725
207 0.000719
208 0.000715
209 0.000710
210 0.000705
211 0.000701
212 0.000701
213 0.000697
214 0.000691
215 0.000685
216 0.000670
217 0.000663
218 0.000651
219 0.000647
220 0.000645
221 0.000645
222 0.000640
223 0.000639
224 0.000642
225 0.000641
226 0.000643
227 0.000651
228 0.000656
229 0.000662
230 0.000667
231 0.000664
232 0.000658
233 0.000653
234 0.000655
235 0.000658
236 0.000659
237 0.000657
238 0.000651
239 0.000647
240 0.000641
241 0.000642
242 0.000643
243 0.000639
244 0.000635
245 0.000630
246 0.000628
247 0.000621
248 0.000620
249 0.000616
250 0.000610
251 0.000607
252 0.000610
253 0.000614
254 0.000615
255 0.000617
256 0.000622
257 0.000625
258 0.000629
259 0.000639
260 0.000647
261 0.000651
262 0.000650
263 0.000653
264 0.000654
265 0.000651
266 0.000648
267 0.000649
268 0.000651
269 0.000652
270 0.000657
271 0.000650
272 0.000644
273 0.000642
274 0.000640
275 0.000640
276 0.000638
277 0.000641
278 0.000637
279 0.000637
280 0.000636
281 0.000635
282 0.000637
283 0.000634
284 0.000635
285 0.000634
286 0.000629
287 0.000625
288 0.000622
289 0.000620
290 0.000613
291 0.000610
292 0.000612
293 0.000608
294 0.000607
295 0.000603
296 0.000598
297 0.000594
298 0.000584
299 0.000579
300 0.000571
301 0.000555
302 0.000540
303 0.000532
304 0.000522
305 0.000513
306 0.000502
307 0.000496
308 0.000489
309 0.000483
310 0.000480
311 0.000477
312 0.000467
313 0.000464
314 0.000467
315 0.000467
316 0.000468
317 0.000465
318 0.000459
319 0.000452
320 0.000448
321 0.000453
322 0.000457
323 0.000459
324 0.000459
325 0.000466
326 0.000470
327 0.000472
328 0.000477
329 0.000481
330 0.000484
331 0.000497
332 0.000503
333 0.000504
334 0.000507
335 0.000509
336 0.000513
337 0.000520
338 0.000530
339 0.000534
340 0.000540
341 0.000546
342 0.000549
343 0.000550
344 0.000551
345 0.000551
346 0.000553
347 0.000555
348 0.000549
349 0.000546
350 0.000547
351 0.000542
352 0.000536
353 0.000531
354 0.000529
355 0.000533
356 0.000532
357 0.000532
358 0.000531
359 0.000531
360 0.000534
361 0.000536
362 0.000538
363 0.000543
364 0.000544
365 0.000539
366 0.000533
367 0.000528
368 0.000519
369 0.000515
370 0.000508
371 0.000500
372 0.000491
373 0.000485
374 0.000482
375 0.000478
376 0.000471
377 0.000466
378 0.000460
379 0.000457
380 0.000459
381 0.000459
382 0.000456
383 0.000450
384 0.000447
385 0.000442
386 0.000435
387 0.000435
388 0.000434
389 0.000432
390 0.000433
391 0.000436
392 0.000437
393 0.000436
394 0.000433
395 0.000433
396 0.000435
397 0.000431
398 0.000425
399 0.000423
400 0.000424
401 0.000427
402 0.000435
403 0.000439
404 0.000441
405 0.000439
406 0.000442
407 0.000444
408 0.000446
409 0.000447
410 0.000449
411 0.000450
412 0.000452
413 0.000452
414 0.000452
415 0.000448
416 0.000441
417 0.000444
418 0.000451
419 0.000457
420 0.000463
421 0.000469
422 0.000471
423 0.000470
424 0.000474
425 0.000475
426 0.000480
427 0.000487
428 0.000486
429 0.000486
430 0.000480
431 0.000473
432 0.000469
433 0.000464
434 0.000460
435 0.000462
436 0.000464
437 0.000465
438 0.000465
439 0.000465
440 0.000468
441 0.000475
442 0.000476
443 0.000475
444 0.000471
445 0.000468
446 0.000465
447 0.000461
448 0.000458
449 0.000453
450 0.000447
451 0.000438
452 0.000430
453 0.000421
454 0.000415
455 0.000412
456 0.000413
457 0.000412
458 0.000414
459 0.000412
460 0.000410
461 0.000412
462 0.000411
463 0.000415
464 0.000424
465 0.000437
466 0.000445
467 0.000449
468 0.000454
469 0.000455
470 0.000459
471 0.000463
472 0.000466
473 0.000466
474 0.000466
475 0.000463
476 0.000462
477 0.000460
478 0.000455
479 0.000447
480 0.000438
481 0.000440
482 0.000446
483 0.000450
484 0.000452
485 0.000451
486 0.000446
487 0.000444
488 0.000444
489 0.000442
490 0.000441
491 0.000443
492 0.000447
493 0.000445
494 0.000451
495 0.000451
496 0.000453
497 0.000457
498 0.000456
499 0.000451
500 0.000444
501 0.000438
502 0.000432
503 0.000428
504 0.000421
505 0.000416
506 0.000411
507 0.000407
508 0.000405
509 0.000401
510 0.000394
511 0.000386
512 0.000381
513 0.000377
514 0.000371
515 0.000366
516 0.000361
517 0.000357
518 0.000357
519 0.000355
520 0.000356
521 0.000356
522 0.000355
523 0.000358
524 0.000359
525 0.000358
526 0.000357
527 0.000359
528 0.000360
529 0.000358
530 0.000355
531 0.000354
532 0.000348
533 0.000346
534 0.000343
535 0.000339
536 0.000332
537 0.000329
538 0.000330
539 0.000330
540 0.000333
541 0.000330
542 0.000327
543 0.000325
544 0.000325
545 0.000328
546 0.000336
547 0.000337
548 0.000335
549 0.000333
550 0.000332
551 0.000333
552 0.000342
553 0.000347
554 0.000349
555 0.000352
556 0.000355
557 0.000357
558 0.000360
559 0.000367
560 0.000368
561 0.000371
562 0.000373
563 0.000371
564 0.000371
565 0.000369
566 0.000371
567 0.000375
568 0.000381
569 0.000385
570 0.000384
571 0.000383
572 0.000386
573 0.000393
574 0.000400
575 0.000402
576 0.000398
577 0.000392
578 0.000384
579 0.000378
580 0.000373
581 0.000369
582 0.000361
583 0.000352
584 0.000347
585 0.000341
586 0.000336
587 0.000329
588 0.000326
589 0.000320
590 0.000315
591 0.000311
592 0.000306
593 0.000303
594 0.000298
595 0.000297
596 0.000288
597 0.000280
598 0.000272
599 0.000269
600 0.000271
601 0.000272
602 0.000274
603 0.000275
604 0.000272
605 0.000270
606 0.000270
607 0.000269
608 0.000269
609 0.000267
610 0.000266
611 0.000265
612 0.000258
613 0.000256
614 0.000255
615 0.000260
616 0.000263
617 0.000270
618 0.000271
619 0.000272
620 0.000276
621 0.000280
622 0.000279
623 0.000279
624 0.000276
625 0.000270
626 0.000267
627 0.000262
628 0.000262
629 0.000263
630 0.000267
631 0.000270
632 0.000272
633 0.000273
634 0.000274
635 0.000276
636 0.000276
637 0.000275
638 0.000274
639 0.000275
640 0.000270
641 0.000267
642 0.000267
643 0.000266
644 0.000267
645 0.000264
646 0.000261
647 0.000262
648 0.000264
649 0.000267
650 0.000269
651 0.000265
652 0.000259
653 0.000255
654 0.000253
655 0.000250
656 0.000246
657 0.000241
658 0.000236
659 0.000230
660 0.000227
661 0.000222
662 0.000220
663 0.000221
664 0.000220
665 0.000215
666 0.000211
667 0.000202
668 0.000194
669 0.000191
670 0.000190
671 0.000188
672 0.000187
673 0.000186
674 0.000181
675 0.000180
676 0.000179
677 0.000176
678 0.000172
679 0.000166
680 0.000158
681 0.000151
682 0.000143
683 0.000136
684 0.000134
685 0.000135
686 0.000135
687 0.000133
688 0.000131
689 0.000130
690 0.000131
691 0.000135
692 0.000141
693 0.000146
694 0.000151
695 0.000159
696 0.000166
697 0.000174
698 0.000180
699 0.000183
700 0.000186
701 0.000191
702 0.000194
703 0.000195
704 0.000198
705 0.000201
706 0.000204
707 0.000206
708 0.000202
709 0.000203
710 0.000205
711 0.000208
712 0.000207
713 0.000206
714 0.000203
715 0.000197
716 0.000191
717 0.000187
718 0.000188
719 0.000184
720 0.000181
721 0.000177
722 0.000172
723 0.000168
724 0.000171
725 0.000174
726 0.000175
727 0.000174
728 0.000169
729 0.000166
730 0.000162
731 0.000161
732 0.000159
733 0.000155
734 0.000153
735 0.000153
736 0.000153
737 0.000156
738 0.000160
739 0.000162
740 0.000169
741 0.000170
742 0.000171
743 0.000170
744 0.000169
745 0.000167
746 0.000166
747 0.000164
748 0.000159
749 0.000154
750 0.000150
751 0.000150
752 0.000156
753 0.000160
754 0.000163
755 0.000167
756 0.000171
757 0.000173
758 0.000176
759 0.000177
760 0.000176
761 0.000174
762 0.000172
763 0.000169
764 0.000165
765 0.000164
766 0.000164
767 0.000164
768 0.000163
769 0.000161
770 0.000157
771 0.000153
772 0.000149
773 0.000144
774 0.000136
775 0.000124
776 0.000113
777 0.000101
778 0.000089
779 0.000079
780 0.000068
781 0.000063
782 0.000061
783 0.000058
784 0.000054
785 0.000048
786 0.000042
787 0.000038
788 0.000037
789 0.000036
790 0.000033
791 0.000027
792 0.000021
793 0.000018
794 0.000015
795 0.000012
796 0.000009
797 0.000007
798 0.000002
799 0.000000
800 -0.000003
801 -0.000006
802 -0.000006
803 -0.000009
804 -0.000012
805 -0.000014
806 -0.000019
807 -0.000024
808 -0.000024
809 -0.000023
