# i correlation
1 0.001856
2 0.001799
3 0.001756
4 0.001718
5 0.001683
6 0.001654
7 0.001629
8 0.001602
9 0.001576
10 0.001555
11 0.001533
12 0.001522
13 0.001521
14 0.001516
15 0.001510
16 0.001508
17 0.001501
18 0.001496
19 0.001482
20 0.001477
21 0.001473
22 0.001472
23 0.001474
24 0.001476
25 0.001474
26 0.001470
27 0.001464
28 0.001460
29 0.001459
30 0.001453
31 0.001445
32 0.001442
33 0.001433
34 0.001424
35 0.001416
36 0.001405
37 0.001396
38 0.001391
39 0.001386
40 0.001380
41 0.001377
42 0.001380
43 0.001379
44 0.001372
45 0.001362
46 0.001352
47 0.001342
48 0.001333
49 0.001326
50 0.001319
51 0.001314
52 0.001315
53 0.001311
54 0.001310
55 0.001309
56 0.001310
57 0.001312
58 0.001319
59 0.001319
60 0.001316
61 0.001311
62 0.001304
63 0.001299
64 0.001290
65 0.001282
66 0.001279
67 0.001276
68 0.001273
69 0.001267
70 0.001260
71 0.001256
72 0.001254
73 0.001259
74 0.001268
75 0.001271
76 0.001272
77 0.001267
78 0.001259
79 0.001257
80 0.001252
81 0.001254
82 0.001256
83 0.001254
84 0.001248
85 0.001237
86 0.001227
87 0.001222
88 0.001217
89 0.001211
90 0.001201
91 0.001191
92 0.001183
93 0.001182
94 0.001179
95 0.001174
96 0.001172
97 0.001173
98 0.001172
99 0.001175
100 0.001174
101 0.001170
102 0.001164
103 0.001163
104 0.001160
105 0.001159
106 0.001161
107 0.001149
108 0.001136
109 0.001125
110 0.001113
111 0.001098
112 0.001086
113 0.001079
114 0.001066
115 0.001060
116 0.001052
117 0.001049
118 0.001044
119 0.001044
120 0.001042
121 0.001039
122 0.001041
123 0.001041
124 0.001044
125 0.001049
126 0.001057
127 0.001057
128 0.001059
129 0.001063
130 0.001063
131 0.001069
132 0.001064
133 0.001058
134 0.001053
135 0.001052
136 0.001044
137 0.001035
138 0.001027
139 0.001017
140 0.001006
141 0.000999
142 0.000994
143 0.000984
144 0.000979
145 0.000975
146 0.000961
147 0.000955
148 0.000951
149 0.000949
150 0.000944
151 0.000940
152 0.000936
153 0.000933
154 0.000929
155 0.000927
156 0.000927
157 0.000928
158 0.000932
159 0.000931
160 0.000934
161 0.000939
162 0.000942
163 0.000942
164 0.000939
165 0.000931
166 0.000921
167 0.000910
168 0.000899
169 0.000889
170 0.000876
171 0.000869
172 0.000860
173 0.000848
174 0.000839
175 0.000830
176 0.000820
177 0.000819
178 0.000816
179 0.000817
180 0.000817
181 0.000818
182 0.000819
183 0.000821
184 0.000823
185 0.000823
186 0.000818
187 0.000819
188 0.000819
189 0.000820
190 0.000817
191 0.000813
192 0.000806
193 0.000803
194 0.000806
195 0.000806
196 0.000807
197 0.000803
198 0.000796
199 0.000791
200 0.000785
201 0.000779
202 0.000776
203 0.000774
204 0.000769
205 0.000761
206 0.000755
207 0.000748
208 0.000746
209 0.000747
210 0.000743
211 0.000739
212 0.000742
213 0.000741
214 0.000739
215 0.000734
216 0.000733
217 0.000735
218 0.000737
219 0.000743
220 0.000744
221 0.000747
222 0.000747
223 0.000745
224 0.000749
225 0.000750
226 0.000751
227 0.000742
228 0.000727
229 0.000717
230 0.000701
231 0.000683
232 0.000677
233 0.000666
234 0.000659
235 0.000660
236 0.000661
237 0.000662
238 0.000661
239 0.000662
240 0.000660
241 0.000659
242 0.000661
243 0.000663
244 0.000664
245 0.000661
246 0.000663
247 0.000660
248 0.000662
249 0.000660
250 0.000666
251 0.000665
252 0.000661
253 0.000660
254 0.000654
255 0.000656
256 0.000654
257 0.000653
258 0.000651
259 0.000648
260 0.000646
261 0.000643
262 0.000640
263 0.000638
264 0.000640
265 0.000636
266 0.000634
267 0.000631
268 0.000629
269 0.000620
270 0.000612
271 0.000604
272 0.000592
273 0.000582
274 0.000571
275 0.000562
276 0.000559
277 0.000558
278 0.000565
279 0.000570
280 0.000571
281 0.000575
282 0.000581
283 0.000588
284 0.000597
285 0.000605
286 0.000607
287 0.000603
288 0.000601
289 0.000601
290 0.000598
291 0.000599
292 0.000603
293 0.000606
294 0.000606
295 0.000608
296 0.000610
297 0.000614
298 0.000618
299 0.000623
300 0.000625
301 0.000628
302 0.000634
303 0.000639
304 0.000638
305 0.000633
306 0.000628
307 0.000625
308 0.000626
309 0.000629
310 0.000631
311 0.000633
312 0.000630
313 0.000625
314 0.000620
315 0.000617
316 0.000613
317 0.000606
318 0.000606
319 0.000609
320 0.000608
321 0.000613
322 0.000620
323 0.000626
324 0.000629
325 0.000635
326 0.000637
327 0.000639
328 0.000639
329 0.000640
330 0.000635
331 0.000631
332 0.000625
333 0.000614
334 0.000602
335 0.000592
336 0.000582
337 0.000574
338 0.000565
339 0.000557
340 0.000551
341 0.000546
342 0.000542
343 0.000545
344 0.000545
345 0.000547
346 0.000549
347 0.000553
348 0.000555
349 0.000553
350 0.000552
351 0.000547
352 0.000547
353 0.000549
354 0.000552
355 0.000553
356 0.000553
357 0.000556
358 0.000557
359 0.000554
360 0.000554
361 0.000555
362 0.000550
363 0.000546
364 0.000538
365 0.000530
366 0.000523
367 0.000521
368 0.000525
369 0.000521
370 0.000523
371 0.000523
372 0.000527
373 0.000530
374 0.000535
375 0.000538
376 0.000540
377 0.000544
378 0.000544
379 0.000544
380 0.000546
381 0.000553
382 0.000559
383 0.000566
384 0.000575
385 0.000585
386 0.000597
387 0.000607
388 0.000618
389 0.000628
390 0.000638
391 0.000642
392 0.000644
393 0.000640
394 0.000633
395 0.000629
396 0.000624
397 0.000624
398 0.000626
399 0.000621
400 0.000618
401 0.000617
402 0.000621
403 0.000622
404 0.000628
405 0.000633
406 0.000638
407 0.000642
408 0.000649
409 0.000655
410 0.000661
411 0.000662
412 0.000661
413 0.000656
414 0.000653
415 0.000649
416 0.000643
417 0.000634
418 0.000624
419 0.000615
420 0.000609
421 0.000603
422 0.000601
423 0.000596
424 0.000590
425 0.000585
426 0.000583
427 0.000582
428 0.000584
429 0.000587
430 0.000594
431 0.000599
432 0.000604
433 0.000608
434 0.000610
435 0.000611
436 0.000610
437 0.000612
438 0.000610
439 0.000611
440 0.000608
441 0.000608
442 0.000606
443 0.000605
444 0.000608
445 0.000612
446 0.000614
447 0.000616
448 0.000613
449 0.000612
450 0.000608
451 0.000607
452 0.000606
453 0.000603
454 0.000601
455 0.000601
456 0.000601
457 0.000597
458 0.000593
459 0.000588
460 0.000588
461 0.000591
462 0.000590
463 0.000589
464 0.000588
465 0.000585
466 0.000579
467 0.000580
468 0.000583
469 0.000581
470 0.000578
471 0.000575
472 0.000576
473 0.000574
474 0.000578
475 0.000576
476 0.000579
477 0.000580
478 0.000577
479 0.000572
480 0.000569
481 0.000569
482 0.000569
483 0.000572
484 0.000577
485 0.000584
486 0.000588
487 0.000589
488 0.000587
489 0.000588
490 0.000589
491 0.000585
492 0.000584
493 0.000585
494 0.000583
495 0.000574
496 0.000567
497 0.000558
498 0.000554
499 0.000550
500 0.000544
501 0.000539
502 0.000532
503 0.000534
504 0.000534
505 0.000537
506 0.000540
507 0.000545
508 0.000549
509 0.000549
510 0.000551
511 0.000553
512 0.000555
513 0.000557
514 0.000560
515 0.000563
516 0.000564
517 0.000564
518 0.000568
519 0.000574
520 0.000579
521 0.000583
522 0.000583
523 0.000579
524 0.000576
525 0.000572
526 0.000569
527 0.000568
528 0.000572
529 0.000572
530 0.000569
531 0.000568
532 0.000569
533 0.000567
534 0.000564
535 0.000564
536 0.000567
537 0.000567
538 0.000566
539 0.000565
540 0.000566
541 0.000563
542 0.000562
543 0.000560
544 0.000561
545 0.000567
546 0.000567
547 0.000563
548 0.000560
549 0.000560
550 0.000559
551 0.000558
552 0.000554
553 0.000547
554 0.000538
555 0.000529
556 0.000520
557 0.000512
558 0.000507
559 0.000505
560 0.000500
561 0.000500
562 0.000502
563 0.000500
564 0.000499
565 0.000496
566 0.000495
567 0.000493
568 0.000490
569 0.000488
570 0.000486
571 0.000487
572 0.000489
573 0.000490
574 0.000495
575 0.000496
576 0.000495
577 0.000498
578 0.000498
579 0.000496
580 0.000493
581 0.000489
582 0.000491
583 0.000489
584 0.000485
585 0.000478
586 0.000475
587 0.000476
588 0.000472
589 0.000473
590 0.000472
591 0.000470
592 0.000472
593 0.000474
594 0.000473
595 0.000472
596 0.000472
597 0.000469
598 0.000463
599 0.000458
600 0.000453
601 0.000449
602 0.000443
603 0.000438
604 0.000431
605 0.000425
606 0.000426
607 0.000428
608 0.000430
609 0.000433
610 0.000437
611 0.000439
612 0.000438
613 0.000440
614 0.000442
615 0.000440
616 0.000443
617 0.000443
618 0.000443
619 0.000441
620 0.000437
621 0.000437
622 0.000434
623 0.000429
624 0.000427
625 0.000430
626 0.000431
627 0.000427
628 0.000420
629 0.000415
630 0.000413
631 0.000412
632 0.000412
633 0.000411
634 0.000413
635 0.000415
636 0.000412
637 0.000404
638 0.000399
639 0.000397
640 0.000391
641 0.000386
642 0.000380
643 0.000374
644 0.000367
645 0.000363
646 0.000360
647 0.000356
648 0.000353
649 0.000352
650 0.000352
651 0.000352
652 0.000351
653 0.000350
654 0.000349
655 0.000348
656 0.000347
657 0.000348
658 0.000349
659 0.000349
660 0.000345
661 0.000341
662 0.000333
663 0.000324
664 0.000316
665 0.000309
666 0.000304
667 0.000301
668 0.000300
669 0.000296
670 0.000293
671 0.000291
672 0.000288
673 0.000286
674 0.000284
675 0.000283
676 0.000282
677 0.000280
678 0.000277
679 0.000270
680 0.000267
681 0.000264
682 0.000258
683 0.000254
684 0.000250
685 0.000247
686 0.000243
687 0.000241
688 0.000242
689 0.000243
690 0.000247
691 0.000246
692 0.000245
693 0.000247
694 0.000250
695 0.000253
696 0.000255
697 0.000256
698 0.000254
699 0.000253
700 0.000255
701 0.000257
702 0.000258
703 0.000259
704 0.000258
705 0.000256
706 0.000253
707 0.000252
708 0.000251
709 0.000247
710 0.000242
711 0.000238
712 0.000233
713 0.000234
714 0.000232
715 0.000230
716 0.000227
717 0.000225
718 0.000225
719 0.000225
720 0.000225
721 0.000221
722 0.000220
723 0.000222
724 0.000222
725 0.000222
726 0.000219
727 0.000221
728 0.000221
729 0.000222
730 0.000223
731 0.000226
732 0.000228
733 0.000231
734 0.000232
735 0.000233
736 0.000233
737 0.000230
738 0.000228
739 0.000225
740 0.000227
741 0.000228
742 0.000226
743 0.000226
744 0.000227
745 0.000231
746 0.000230
747 0.000226
748 0.000224
749 0.000223
750 0.000220
751 0.000218
752 0.000213
753 0.000211
754 0.000206
755 0.000201
756 0.000198
757 0.000194
758 0.000191
759 0.000188
760 0.000184
761 0.000180
762 0.000179
763 0.000180
764 0.000183
765 0.000184
766 0.000185
767 0.000184
768 0.000183
769 0.000180
770 0.000178
771 0.000182
772 0.000185
773 0.000186
774 0.000187
775 0.000187
776 0.000188
777 0.000189
778 0.000191
779 0.000190
780 0.000187
781 0.000183
782 0.000178
783 0.000176
784 0.000172
785 0.000169
786 0.000168
787 0.000168
788 0.000170
789 0.000171
790 0.000171
791 0.000171
792 0.000170
793 0.000172
794 0.000172
795 0.000171
796 0.000173
797 0.000175
798 0.000176
799 0.000177
800 0.000176
801 0.000175
802 0.000172
803 0.000171
804 0.000170
805 0.000169
806 0.000171
807 0.000172
808 0.000169
809 0.000164
