# i correlation
1 0.001969
2 0.001908
3 0.001860
4 0.001815
5 0.001776
6 0.001747
7 0.001712
8 0.001680
9 0.001648
10 0.001613
11 0.001587
12 0.001572
13 0.001550
14 0.001534
15 0.001519
16 0.001507
17 0.001490
18 0.001480
19 0.001477
20 0.001472
21 0.001470
22 0.001468
23 0.001463
24 0.001453
25 0.001437
26 0.001424
27 0.001410
28 0.001399
29 0.001390
30 0.001385
31 0.001378
32 0.001377
33 0.001374
34 0.001376
35 0.001377
36 0.001382
37 0.001387
38 0.001392
39 0.001384
40 0.001382
41 0.001378
42 0.001383
43 0.001391
44 0.001392
45 0.001380
46 0.001365
47 0.001346
48 0.001336
49 0.001327
50 0.001311
51 0.001297
52 0.001285
53 0.001267
54 0.001246
55 0.001233
56 0.001220
57 0.001199
58 0.001169
59 0.001148
60 0.001137
61 0.001133
62 0.001130
63 0.001131
64 0.001130
65 0.001125
66 0.001114
67 0.001109
68 0.001113
69 0.001116
70 0.001115
71 0.001118
72 0.001120
73 0.001116
74 0.001109
75 0.001106
76 0.001102
77 0.001090
78 0.001077
79 0.001066
80 0.001063
81 0.001062
82 0.001059
83 0.001055
84 0.001055
85 0.001055
86 0.001054
87 0.001056
88 0.001053
89 0.001046
90 0.001044
91 0.001035
92 0.001029
93 0.001020
94 0.001014
95 0.001004
96 0.000998
97 0.000992
98 0.000982
99 0.000977
100 0.000963
101 0.000945
102 0.000933
103 0.000918
104 0.000906
105 0.000900
106 0.000900
107 0.000896
108 0.000893
109 0.000886
110 0.000884
111 0.000880
112 0.000881
113 0.000882
114 0.000881
115 0.000876
116 0.000877
117 0.000877
118 0.000879
119 0.000877
120 0.000877
121 0.000874
122 0.000872
123 0.000862
124 0.000860
125 0.000860
126 0.000861
127 0.000856
128 0.000857
129 0.000849
130 0.000836
131 0.000828
132 0.000825
133 0.000821
134 0.000815
135 0.000807
136 0.000802
137 0.000796
138 0.000787
139 0.000774
140 0.000768
141 0.000764
142 0.000766
143 0.000764
144 0.000764
145 0.000764
146 0.000752
147 0.000747
148 0.000744
149 0.000747
150 0.000750
151 0.000749
152 0.000752
153 0.000749
154 0.000745
155 0.000743
156 0.000744
157 0.000744
158 0.000743
159 0.000744
160 0.000750
161 0.000762
162 0.000774
163 0.000782
164 0.000788
165 0.000794
166 0.000798
167 0.000801
168 0.000804
169 0.000808
170 0.000814
171 0.000812
172 0.000805
173 0.000800
174 0.000788
175 0.000778
176 0.000767
177 0.000757
178 0.000750
179 0.000745
180 0.000739
181 0.000731
182 0.000721
183 0.000710
184 0.000706
185 0.000705
186 0.000705
187 0.000708
188 0.000709
189 0.000707
190 0.000699
191 0.000688
192 0.000682
193 0.000683
194 0.000682
195 0.000672
196 0.000666
197 0.000664
198 0.000659
199 0.000658
200 0.000654
201 0.000648
202 0.000648
203 0.000643
204 0.000645
205 0.000653
206 0.000657
207 0.000660
208 0.000668
209 0.000671
210 0.000674
211 0.000672
212 0.000673
213 0.000679
214 0.000682
215 0.000682
216 0.000682
217 0.000682
218 0.000681
219 0.000676
220 0.000669
221 0.000662
222 0.000654
223 0.000644
224 0.000638
225 0.000632
226 0.000627
227 0.000620
228 0.000611
229 0.000604
230 0.000600
231 0.000600
232 0.000600
233 0.000598
234 0.000599
235 0.000599
236 0.000597
237 0.000596
238 0.000590
239 0.000584
240 0.000582
241 0.000588
242 0.000595
243 0.000593
244 0.000587
245 0.000576
246 0.000564
247 0.000553
248 0.000550
249 0.000547
250 0.000548
251 0.000548
252 0.000546
253 0.000546
254 0.000544
255 0.000542
256 0.000541
257 0.000552
258 0.000558
259 0.000558
260 0.000560
261 0.000565
262 0.000571
263 0.000576
264 0.000576
265 0.000574
266 0.000568
267 0.000563
268 0.000555
269 0.000555
270 0.000551
271 0.000541
272 0.000531
273 0.000522
274 0.000521
275 0.000517
276 0.000514
277 0.000519
278 0.000528
279 0.000533
280 0.000533
281 0.000536
282 0.000534
283 0.000534
284 0.000535
285 0.000533
286 0.000536
287 0.000537
288 0.000532
289 0.000529
290 0.000524
291 0.000514
292 0.000508
293 0.000502
294 0.000495
295 0.000489
296 0.000489
297 0.000487
298 0.000486
299 0.000489
300 0.000494
301 0.000505
302 0.000510
303 0.000507
304 0.000511
305 0.000518
306 0.000528
307 0.000540
308 0.000541
309 0.000536
310 0.000532
311 0.000526
312 0.000522
313 0.000525
314 0.000525
315 0.000523
316 0.000520
317 0.000510
318 0.000506
319 0.000502
320 0.000502
321 0.000501
322 0.000505
323 0.000511
324 0.000514
325 0.000514
326 0.000516
327 0.000511
328 0.000506
329 0.000504
330 0.000510
331 0.000519
332 0.000524
333 0.000528
334 0.000531
335 0.000530
336 0.000526
337 0.000522
338 0.000525
339 0.000524
340 0.000524
341 0.000523
342 0.000526
343 0.000527
344 0.000531
345 0.000533
346 0.000532
347 0.000531
348 0.000523
349 0.000523
350 0.000527
351 0.000530
352 0.000531
353 0.000532
354 0.000532
355 0.000531
356 0.000528
357 0.000532
358 0.000535
359 0.000536
360 0.000529
361 0.000524
362 0.000523
363 0.000526
364 0.000522
365 0.000521
366 0.000522
367 0.000520
368 0.000523
369 0.000530
370 0.000531
371 0.000533
372 0.000530
373 0.000527
374 0.000527
375 0.000536
376 0.000542
377 0.000545
378 0.000552
379 0.000559
380 0.000564
381 0.000568
382 0.000570
383 0.000569
384 0.000567
385 0.000565
386 0.000565
387 0.000567
388 0.000573
389 0.000574
390 0.000570
391 0.000569
392 0.000566
393 0.000565
394 0.000571
395 0.000583
396 0.000591
397 0.000595
398 0.000596
399 0.000590
400 0.000588
401 0.000584
402 0.000580
403 0.000582
404 0.000576
405 0.000570
406 0.000568
407 0.000564
408 0.000555
409 0.000543
410 0.000537
411 0.000528
412 0.000521
413 0.000508
414 0.000501
415 0.000494
416 0.000488
417 0.000476
418 0.000470
419 0.000467
420 0.000463
421 0.000457
422 0.000456
423 0.000453
424 0.000449
425 0.000443
426 0.000446
427 0.000449
428 0.000457
429 0.000465
430 0.000470
431 0.000474
432 0.000474
433 0.000468
434 0.000467
435 0.000467
436 0.000465
437 0.000463
438 0.000466
439 0.000464
440 0.000463
441 0.000460
442 0.000453
443 0.000451
444 0.000452
445 0.000448
446 0.000441
447 0.000430
448 0.000422
449 0.000419
450 0.000421
451 0.000423
452 0.000425
453 0.000417
454 0.000406
455 0.000393
456 0.000383
457 0.000372
458 0.000366
459 0.000358
460 0.000349
461 0.000337
462 0.000329
463 0.000322
464 0.000315
465 0.000314
466 0.000312
467 0.000314
468 0.000320
469 0.000318
470 0.000313
471 0.000319
472 0.000326
473 0.000331
474 0.000335
475 0.000341
476 0.000344
477 0.000345
478 0.000348
479 0.000351
480 0.000351
481 0.000351
482 0.000346
483 0.000343
484 0.000342
485 0.000337
486 0.000334
487 0.000336
488 0.000335
489 0.000327
490 0.000321
491 0.000313
492 0.000311
493 0.000310
494 0.000314
495 0.000320
496 0.000323
497 0.000320
498 0.000314
499 0.000309
500 0.000308
501 0.000310
502 0.000306
503 0.000300
504 0.000292
505 0.000280
506 0.000273
507 0.000269
508 0.000263
509 0.000256
510 0.000258
511 0.000260
512 0.000262
513 0.000269
514 0.000272
515 0.000275
516 0.000277
517 0.000276
518 0.000272
519 0.000272
520 0.000275
521 0.000276
522 0.000281
523 0.000281
524 0.000282
525 0.000280
526 0.000273
527 0.000265
528 0.000262
529 0.000255
530 0.000253
531 0.000255
532 0.000258
533 0.000261
534 0.000265
535 0.000265
536 0.000272
537 0.000277
538 0.000287
539 0.000294
540 0.000299
541 0.000304
542 0.000305
543 0.000306
544 0.000307
545 0.000309
546 0.000307
547 0.000304
548 0.000307
549 0.000311
550 0.000316
551 0.000315
552 0.000319
553 0.000320
554 0.000315
555 0.000316
556 0.000316
557 0.000319
558 0.000323
559 0.000325
560 0.000322
561 0.000319
562 0.000322
563 0.000324
564 0.000332
565 0.000341
566 0.000348
567 0.000352
568 0.000357
569 0.000357
570 0.000354
571 0.000356
572 0.000353
573 0.000354
574 0.000354
575 0.000351
576 0.000351
577 0.000351
578 0.000350
579 0.000349
580 0.000348
581 0.000345
582 0.000338
583 0.000336
584 0.000336
585 0.000340
586 0.000343
587 0.000346
588 0.000353
589 0.000354
590 0.000350
591 0.000346
592 0.000344
593 0.000345
594 0.000343
595 0.000342
596 0.000338
597 0.000337
598 0.000336
599 0.000331
600 0.000332
601 0.000336
602 0.000341
603 0.000344
604 0.000348
605 0.000351
606 0.000351
607 0.000355
608 0.000358
609 0.000364
610 0.000369
611 0.000373
612 0.000377
613 0.000379
614 0.000379
615 0.000379
616 0.000381
617 0.000382
618 0.000382
619 0.000380
620 0.000380
621 0.000383
622 0.000386
623 0.000388
624 0.000389
625 0.000388
626 0.000385
627 0.000380
628 0.000376
629 0.000374
630 0.000368
631 0.000365
632 0.000361
633 0.000359
634 0.000349
635 0.000339
636 0.000331
637 0.000326
638 0.000323
639 0.000321
640 0.000321
641 0.000318
642 0.000314
643 0.000308
644 0.000306
645 0.000307
646 0.000307
647 0.000307
648 0.000312
649 0.000315
650 0.000316
651 0.000315
652 0.000314
653 0.000314
654 0.000317
655 0.000315
656 0.000318
657 0.000321
658 0.000322
659 0.000326
660 0.000331
661 0.000334
662 0.000335
663 0.000338
664 0.000341
665 0.000347
666 0.000348
667 0.000347
668 0.000343
669 0.000340
670 0.000337
671 0.000331
672 0.000325
673 0.000321
674 0.000314
675 0.000310
676 0.000308
677 0.000307
678 0.000304
679 0.000297
680 0.000295
681 0.000294
682 0.000292
683 0.000290
684 0.000291
685 0.000291
686 0.000293
687 0.000294
688 0.000291
689 0.000291
690 0.000289
691 0.000288
692 0.000287
693 0.000289
694 0.000290
695 0.000291
696 0.000291
697 0.000293
698 0.000290
699 0.000288
700 0.000292
701 0.000296
702 0.000298
703 0.000299
704 0.000301
705 0.000304
706 0.000304
707 0.000305
708 0.000306
709 0.000311
710 0.000311
711 0.000307
712 0.000304
713 0.000301
714 0.000298
715 0.000296
716 0.000297
717 0.000294
718 0.000290
719 0.000287
720 0.000285
721 0.000283
722 0.000277
723 0.000270
724 0.000259
725 0.000251
726 0.000246
727 0.000239
728 0.000236
729 0.000237
730 0.000239
731 0.000238
732 0.000237
733 0.000236
734 0.000232
735 0.000231
736 0.000230
737 0.000229
738 0.000230
739 0.000228
740 0.000225
741 0.000222
742 0.000219
743 0.000213
744 0.000210
745 0.000205
746 0.000197
747 0.000190
748 0.000184
749 0.000181
750 0.000180
751 0.000182
752 0.000187
753 0.000190
754 0.000192
755 0.000191
756 0.000190
757 0.000192
758 0.000196
759 0.000198
760 0.000200
761 0.000200
762 0.000198
763 0.000197
764 0.000198
765 0.000197
766 0.000194
767 0.000189
768 0.000182
769 0.000174
770 0.000167
771 0.000161
772 0.000159
773 0.000164
774 0.000170
775 0.000176
776 0.000184
777 0.000191
778 0.000200
779 0.000208
780 0.000217
781 0.000226
782 0.000237
783 0.000240
784 0.000242
785 0.000246
786 0.000249
787 0.000249
788 0.000248
789 0.000245
790 0.000238
791 0.000233
792 0.000230
793 0.000227
794 0.000223
795 0.000220
796 0.000215
797 0.000211
798 0.000206
799 0.000200
800 0.000194
801 0.000191
802 0.000190
803 0.000191
804 0.000191
805 0.000186
806 0.000184
807 0.000184
808 0.000183
809 0.000180
