# i correlation
1 0.002067
2 0.002003
3 0.001945
4 0.001898
5 0.001857
6 0.001829
7 0.001793
8 0.001762
9 0.001734
10 0.001714
11 0.001691
12 0.001683
13 0.001672
14 0.001656
15 0.001638
16 0.001624
17 0.001612
18 0.001605
19 0.001593
20 0.001581
21 0.001565
22 0.001557
23 0.001554
24 0.001542
25 0.001528
26 0.001514
27 0.001502
28 0.001493
29 0.001483
30 0.001473
31 0.001459
32 0.001449
33 0.001436
34 0.001425
35 0.001407
36 0.001395
37 0.001380
38 0.001368
39 0.001357
40 0.001349
41 0.001341
42 0.001341
43 0.001342
44 0.001344
45 0.001341
46 0.001345
47 0.001341
48 0.001344
49 0.001345
50 0.001348
51 0.001350
52 0.001352
53 0.001344
54 0.001339
55 0.001336
56 0.001337
57 0.001337
58 0.001334
59 0.001325
60 0.001320
61 0.001311
62 0.001301
63 0.001290
64 0.001282
65 0.001271
66 0.001258
67 0.001245
68 0.001235
69 0.001228
70 0.001223
71 0.001217
72 0.001217
73 0.001208
74 0.001193
75 0.001184
76 0.001177
77 0.001170
78 0.001175
79 0.001178
80 0.001182
81 0.001189
82 0.001201
83 0.001206
84 0.001211
85 0.001216
86 0.001214
87 0.001209
88 0.001202
89 0.001198
90 0.001187
91 0.001176
92 0.001171
93 0.001168
94 0.001165
95 0.001164
96 0.001157
97 0.001152
98 0.001145
99 0.001137
100 0.001132
101 0.001139
102 0.001136
103 0.001131
104 0.001126
105 0.001124
106 0.001124
107 0.001132
108 0.001138
109 0.001138
110 0.001129
111 0.001116
112 0.001110
113 0.001106
114 0.001097
115 0.001094
116 0.001090
117 0.001088
118 0.001076
119 0.001056
120 0.001040
121 0.001024
122 0.001006
123 0.000984
124 0.000961
125 0.000942
126 0.000924
127 0.000912
128 0.000902
129 0.000893
130 0.000885
131 0.000884
132 0.000882
133 0.000873
134 0.000863
135 0.000863
136 0.000857
137 0.000857
138 0.000846
139 0.000834
140 0.000827
141 0.000825
142 0.000821
143 0.000820
144 0.000820
145 0.000817
146 0.000804
147 0.000796
148 0.000791
149 0.000778
150 0.000769
151 0.000761
152 0.000749
153 0.000738
154 0.000730
155 0.000726
156 0.000720
157 0.000713
158 0.000712
159 0.000711
160 0.000714
161 0.000714
162 0.000708
163 0.000707
164 0.000708
165 0.000707
166 0.000705
167 0.000705
168 0.000700
169 0.000698
170 0.000692
171 0.000683
172 0.000670
173 0.000661
174 0.000656
175 0.000649
176 0.000644
177 0.000640
178 0.000643
179 0.000649
180 0.000650
181 0.000650
182 0.000646
183 0.000642
184 0.000638
185 0.000642
186 0.000642
187 0.000644
188 0.000653
189 0.000654
190 0.000654
191 0.000656
192 0.000654
193 0.000658
194 0.000667
195 0.000670
196 0.000671
197 0.000671
198 0.000673
199 0.000676
200 0.000676
201 0.000678
202 0.000685
203 0.000694
204 0.000699
205 0.000699
206 0.000703
207 0.000700
208 0.000700
209 0.000701
210 0.000706
211 0.000704
212 0.000701
213 0.000693
214 0.000684
215 0.000673
216 0.000667
217 0.000663
218 0.000654
219 0.000646
220 0.000637
221 0.000628
222 0.000623
223 0.000618
224 0.000611
225 0.000605
226 0.000608
227 0.000608
228 0.000606
229 0.000607
230 0.000604
231 0.000596
232 0.000592
233 0.000585
234 0.000574
235 0.000561
236 0.000553
237 0.000545
238 0.000534
239 0.000527
240 0.000519
241 0.000507
242 0.000504
243 0.000498
244 0.000498
245 0.000503
246 0.000505
247 0.000497
248 0.000493
249 0.000495
250 0.000498
251 0.000502
252 0.000509
253 0.000510
254 0.000510
255 0.000511
256 0.000507
257 0.000502
258 0.000493
259 0.000479
260 0.000477
261 0.000480
262 0.000480
263 0.000478
264 0.000471
265 0.000467
266 0.000463
267 0.000463
268 0.000464
269 0.000461
270 0.000452
271 0.000442
272 0.000437
273 0.000438
274 0.000442
275 0.000450
276 0.000451
277 0.000452
278 0.000458
279 0.000462
280 0.000472
281 0.000483
282 0.000483
283 0.000480
284 0.000477
285 0.000475
286 0.000480
287 0.000483
288 0.000483
289 0.000478
290 0.000470
291 0.000466
292 0.000468
293 0.000470
294 0.000476
295 0.000484
296 0.000490
297 0.000491
298 0.000493
299 0.000496
300 0.000502
301 0.000509
302 0.000511
303 0.000511
304 0.000509
305 0.000503
306 0.000509
307 0.000515
308 0.000514
309 0.000512
310 0.000508
311 0.000510
312 0.000518
313 0.000523
314 0.000529
315 0.000533
316 0.000540
317 0.000546
318 0.000552
319 0.000556
320 0.000557
321 0.000557
322 0.000552
323 0.000552
324 0.000553
325 0.000556
326 0.000559
327 0.000554
328 0.000545
329 0.000543
330 0.000544
331 0.000542
332 0.000537
333 0.000538
334 0.000539
335 0.000538
336 0.000529
337 0.000521
338 0.000517
339 0.000519
340 0.000513
341 0.000505
342 0.000500
343 0.000497
344 0.000498
345 0.000500
346 0.000507
347 0.000514
348 0.000515
349 0.000516
350 0.000514
351 0.000508
352 0.000506
353 0.000499
354 0.000496
355 0.000485
356 0.000475
357 0.000468
358 0.000466
359 0.000463
360 0.000457
361 0.000455
362 0.000456
363 0.000461
364 0.000466
365 0.000467
366 0.000462
367 0.000460
368 0.000455
369 0.000453
370 0.000457
371 0.000458
372 0.000453
373 0.000454
374 0.000451
375 0.000451
376 0.000453
377 0.000457
378 0.000455
379 0.000451
380 0.000447
381 0.000447
382 0.000455
383 0.000462
384 0.000464
385 0.000464
386 0.000463
387 0.000464
388 0.000471
389 0.000476
390 0.000481
391 0.000478
392 0.000473
393 0.000468
394 0.000468
395 0.000476
396 0.000484
397 0.000483
398 0.000485
399 0.000482
400 0.000476
401 0.000472
402 0.000472
403 0.000470
404 0.000472
405 0.000472
406 0.000464
407 0.000462
408 0.000460
409 0.000455
410 0.000449
411 0.000447
412 0.000445
413 0.000446
414 0.000444
415 0.000446
416 0.000447
417 0.000449
418 0.000452
419 0.000454
420 0.000450
421 0.000446
422 0.000442
423 0.000439
424 0.000438
425 0.000435
426 0.000429
427 0.000424
428 0.000418
429 0.000412
430 0.000406
431 0.000405
432 0.000402
433 0.000397
434 0.000394
435 0.000391
436 0.000391
437 0.000390
438 0.000387
439 0.000384
440 0.000385
441 0.000386
442 0.000384
443 0.000388
444 0.000384
445 0.000377
446 0.000372
447 0.000370
448 0.000372
449 0.000373
450 0.000368
451 0.000365
452 0.000362
453 0.000354
454 0.000349
455 0.000351
456 0.000358
457 0.000353
458 0.000340
459 0.000330
460 0.000322
461 0.000322
462 0.000326
463 0.000328
464 0.000328
465 0.000327
466 0.000328
467 0.000328
468 0.000323
469 0.000316
470 0.000307
471 0.000296
472 0.000285
473 0.000272
474 0.000267
475 0.000265
476 0.000264
477 0.000265
478 0.000265
479 0.000271
480 0.000275
481 0.000281
482 0.000286
483 0.000296
484 0.000302
485 0.000308
486 0.000308
487 0.000310
488 0.000303
489 0.000302
490 0.000300
491 0.000299
492 0.000295
493 0.000289
494 0.000284
495 0.000280
496 0.000276
497 0.000278
498 0.000278
499 0.000277
500 0.000278
501 0.000271
502 0.000266
503 0.000263
504 0.000262
505 0.000266
506 0.000275
507 0.000278
508 0.000280
509 0.000278
510 0.000276
511 0.000274
512 0.000276
513 0.000286
514 0.000290
515 0.000292
516 0.000291
517 0.000286
518 0.000283
519 0.000281
520 0.000281
521 0.000279
522 0.000273
523 0.000270
524 0.000268
525 0.000270
526 0.000273
527 0.000278
528 0.000279
529 0.000280
530 0.000283
531 0.000287
532 0.000291
533 0.000301
534 0.000306
535 0.000313
536 0.000323
537 0.000329
538 0.000333
539 0.000338
540 0.000341
541 0.000343
542 0.000341
543 0.000343
544 0.000341
545 0.000342
546 0.000345
547 0.000345
548 0.000342
549 0.000345
550 0.000344
551 0.000343
552 0.000342
553 0.000336
554 0.000325
555 0.000314
556 0.000307
557 0.000299
558 0.000293
559 0.000288
560 0.000282
561 0.000279
562 0.000277
563 0.000276
564 0.000279
565 0.000281
566 0.000276
567 0.000267
568 0.000263
569 0.000260
570 0.000253
571 0.000247
572 0.000240
573 0.000235
574 0.000233
575 0.000233
576 0.000232
577 0.000231
578 0.000229
579 0.000231
580 0.000228
581 0.000228
582 0.000223
583 0.000217
584 0.000214
585 0.000210
586 0.000207
587 0.000207
588 0.000209
589 0.000209
590 0.000209
591 0.000212
592 0.000219
593 0.000230
594 0.000239
595 0.000248
596 0.000256
597 0.000261
598 0.000272
599 0.000285
600 0.000295
601 0.000304
602 0.000309
603 0.000313
604 0.000318
605 0.000317
606 0.000317
607 0.000324
608 0.000326
609 0.000326
610 0.000320
611 0.000316
612 0.000309
613 0.000304
614 0.000302
615 0.000300
616 0.000297
617 0.000294
618 0.000292
619 0.000294
620 0.000295
621 0.000301
622 0.000311
623 0.000318
624 0.000323
625 0.000333
626 0.000337
627 0.000339
628 0.000343
629 0.000341
630 0.000341
631 0.000345
632 0.000351
633 0.000354
634 0.000361
635 0.000363
636 0.000362
637 0.000362
638 0.000358
639 0.000350
640 0.000345
641 0.000345
642 0.000342
643 0.000342
644 0.000345
645 0.000346
646 0.000348
647 0.000347
648 0.000348
649 0.000348
650 0.000354
651 0.000364
652 0.000368
653 0.000370
654 0.000369
655 0.000363
656 0.000356
657 0.000349
658 0.000344
659 0.000341
660 0.000336
661 0.000328
662 0.000319
663 0.000311
664 0.000308
665 0.000302
666 0.000296
667 0.000290
668 0.000285
669 0.000281
670 0.000277
671 0.000274
672 0.000269
673 0.000266
674 0.000264
675 0.000260
676 0.000260
677 0.000261
678 0.000261
679 0.000258
680 0.000257
681 0.000253
682 0.000253
683 0.000254
684 0.000256
685 0.000258
686 0.000258
687 0.000257
688 0.000254
689 0.000254
690 0.000250
691 0.000250
692 0.000250
693 0.000253
694 0.000257
695 0.000259
696 0.000261
697 0.000264
698 0.000262
699 0.000262
700 0.000257
701 0.000256
702 0.000252
703 0.000253
704 0.000255
705 0.000258
706 0.000265
707 0.000271
708 0.000274
709 0.000280
710 0.000286
711 0.000290
712 0.000292
713 0.000293
714 0.000290
715 0.000286
716 0.000287
717 0.000288
718 0.000285
719 0.000282
720 0.000275
721 0.000270
722 0.000263
723 0.000260
724 0.000258
725 0.000257
726 0.000252
727 0.000246
728 0.000238
729 0.000238
730 0.000239
731 0.000240
732 0.000238
733 0.000236
734 0.000233
735 0.000235
736 0.000239
737 0.000247
738 0.000251
739 0.000260
740 0.000262
741 0.000265
742 0.000270
743 0.000272
744 0.000272
745 0.000271
746 0.000270
747 0.000270
748 0.000271
749 0.000273
750 0.000272
751 0.000272
752 0.000271
753 0.000272
754 0.000270
755 0.000270
756 0.000269
757 0.000268
758 0.000266
759 0.000268
760 0.000264
761 0.000258
762 0.000252
763 0.000248
764 0.000241
765 0.000236
766 0.000234
767 0.000233
768 0.000229
769 0.000229
770 0.000226
771 0.000226
772 0.000223
773 0.000221
774 0.000212
775 0.000204
776 0.000193
777 0.000182
778 0.000175
779 0.000168
780 0.000157
781 0.000151
782 0.000145
783 0.000139
784 0.000129
785 0.000126
786 0.000121
787 0.000115
788 0.000113
789 0.000112
790 0.000108
791 0.000108
792 0.000108
793 0.000105
794 0.000103
795 0.000103
796 0.000102
797 0.000101
798 0.000101
799 0.000101
800 0.000100
801 0.000106
802 0.000111
803 0.000114
804 0.000115
805 0.000114
806 0.000112
807 0.000109
808 0.000107
809 0.000103
