# i correlation
1 0.001759
2 0.001696
3 0.001649
4 0.001613
5 0.001581
6 0.001552
7 0.001529
8 0.001518
9 0.001512
10 0.001500
11 0.001487
12 0.001477
13 0.001472
14 0.001463
15 0.001454
16 0.001446
17 0.001432
18 0.001418
19 0.001414
20 0.001406
21 0.001399
22 0.001388
23 0.001377
24 0.001366
25 0.001356
26 0.001347
27 0.001333
28 0.001318
29 0.001299
30 0.001282
31 0.001269
32 0.001256
33 0.001244
34 0.001230
35 0.001227
36 0.001229
37 0.001224
38 0.001212
39 0.001207
40 0.001213
41 0.001216
42 0.001209
43 0.001195
44 0.001174
45 0.001157
46 0.001147
47 0.001136
48 0.001126
49 0.001119
50 0.001111
51 0.001099
52 0.001092
53 0.001080
54 0.001079
55 0.001082
56 0.001077
57 0.001065
58 0.001060
59 0.001051
60 0.001041
61 0.001034
62 0.001038
63 0.001045
64 0.001045
65 0.001040
66 0.001032
67 0.001027
68 0.001025
69 0.001011
70 0.000995
71 0.000987
72 0.000982
73 0.000983
74 0.000981
75 0.000980
76 0.000979
77 0.000980
78 0.000980
79 0.000982
80 0.000976
81 0.000976
82 0.000971
83 0.000969
84 0.000967
85 0.000965
86 0.000962
87 0.000959
88 0.000956
89 0.000952
90 0.000947
91 0.000937
92 0.000926
93 0.000918
94 0.000917
95 0.000920
96 0.000920
97 0.000921
98 0.000925
99 0.000932
100 0.000930
101 0.000932
102 0.000931
103 0.000936
104 0.000947
105 0.000950
106 0.000951
107 0.000948
108 0.000945
109 0.000939
110 0.000935
111 0.000928
112 0.000919
113 0.000911
114 0.000910
115 0.000908
116 0.000905
117 0.000905
118 0.000899
119 0.000895
120 0.000890
121 0.000879
122 0.000874
123 0.000868
124 0.000859
125 0.000849
126 0.000841
127 0.000838
128 0.000830
129 0.000825
130 0.000823
131 0.000821
132 0.000815
133 0.000812
134 0.000808
135 0.000805
136 0.000805
137 0.000796
138 0.000786
139 0.000784
140 0.000783
141 0.000783
142 0.000777
143 0.000770
144 0.000769
145 0.000762
146 0.000754
147 0.000746
148 0.000740
149 0.000740
150 0.000732
151 0.000725
152 0.000721
153 0.000719
154 0.000713
155 0.000712
156 0.000710
157 0.000708
158 0.000703
159 0.000705
160 0.000709
161 0.000707
162 0.000709
163 0.000711
164 0.000705
165 0.000706
166 0.000706
167 0.000706
168 0.000702
169 0.000697
170 0.000688
171 0.000679
172 0.000675
173 0.000670
174 0.000666
175 0.000668
176 0.000672
177 0.000673
178 0.000673
179 0.000668
180 0.000665
181 0.000659
182 0.000655
183 0.000646
184 0.000639
185 0.000641
186 0.000647
187 0.000646
188 0.000646
189 0.000645
190 0.000648
191 0.000649
192 0.000643
193 0.000636
194 0.000635
195 0.000643
196 0.000647
197 0.000646
198 0.000644
199 0.000644
200 0.000647
201 0.000649
202 0.000647
203 0.000644
204 0.000646
205 0.000649
206 0.000650
207 0.000649
208 0.000650
209 0.000651
210 0.000653
211 0.000652
212 0.000652
213 0.000650
214 0.000653
215 0.000657
216 0.000652
217 0.000648
218 0.000646
219 0.000643
220 0.000638
221 0.000630
222 0.000623
223 0.000618
224 0.000607
225 0.000600
226 0.000595
227 0.000593
228 0.000591
229 0.000588
230 0.000588
231 0.000589
232 0.000585
233 0.000576
234 0.000567
235 0.000560
236 0.000555
237 0.000547
238 0.000540
239 0.000529
240 0.000522
241 0.000523
242 0.000525
243 0.000526
244 0.000526
245 0.000525
246 0.000521
247 0.000512
248 0.000497
249 0.000487
250 0.000482
251 0.000476
252 0.000472
253 0.000464
254 0.000457
255 0.000450
256 0.000442
257 0.000431
258 0.000424
259 0.000417
260 0.000413
261 0.000407
262 0.000404
263 0.000407
264 0.000413
265 0.000417
266 0.000424
267 0.000429
268 0.000431
269 0.000430
270 0.000427
271 0.000427
272 0.000425
273 0.000425
274 0.000425
275 0.000422
276 0.000417
277 0.000418
278 0.000422
279 0.000426
280 0.000429
281 0.000424
282 0.000428
283 0.000430
284 0.000422
285 0.000418
286 0.000410
287 0.000401
288 0.000388
289 0.000380
290 0.000380
291 0.000383
292 0.000386
293 0.000394
294 0.000399
295 0.000403
296 0.000409
297 0.000403
298 0.000398
299 0.000398
300 0.000392
301 0.000389
302 0.000386
303 0.000381
304 0.000381
305 0.000380
306 0.000383
307 0.000383
308 0.000387
309 0.000393
310 0.000393
311 0.000388
312 0.000383
313 0.000380
314 0.000384
315 0.000388
316 0.000390
317 0.000395
318 0.000405
319 0.000413
320 0.000416
321 0.000410
322 0.000408
323 0.000402
324 0.000394
325 0.000388
326 0.000383
327 0.000377
328 0.000370
329 0.000365
330 0.000365
331 0.000369
332 0.000371
333 0.000381
334 0.000388
335 0.000398
336 0.000404
337 0.000407
338 0.000404
339 0.000401
340 0.000397
341 0.000393
342 0.000390
343 0.000383
344 0.000377
345 0.000380
346 0.000386
347 0.000389
348 0.000389
349 0.000389
350 0.000390
351 0.000387
352 0.000378
353 0.000375
354 0.000374
355 0.000375
356 0.000379
357 0.000376
358 0.000374
359 0.000373
360 0.000370
361 0.000371
362 0.000372
363 0.000370
364 0.000369
365 0.000363
366 0.000360
367 0.000356
368 0.000350
369 0.000338
370 0.000330
371 0.000324
372 0.000318
373 0.000315
374 0.000315
375 0.000316
376 0.000319
377 0.000328
378 0.000325
379 0.000321
380 0.000320
381 0.000324
382 0.000327
383 0.000333
384 0.000331
385 0.000331
386 0.000333
387 0.000331
388 0.000330
389 0.000326
390 0.000322
391 0.000321
392 0.000320
393 0.000315
394 0.000318
395 0.000323
396 0.000330
397 0.000335
398 0.000340
399 0.000341
400 0.000338
401 0.000335
402 0.000331
403 0.000331
404 0.000331
405 0.000334
406 0.000328
407 0.000322
408 0.000323
409 0.000324
410 0.000328
411 0.000330
412 0.000334
413 0.000340
414 0.000343
415 0.000344
416 0.000348
417 0.000347
418 0.000350
419 0.000349
420 0.000345
421 0.000342
422 0.000342
423 0.000344
424 0.000346
425 0.000348
426 0.000348
427 0.000348
428 0.000345
429 0.000345
430 0.000339
431 0.000338
432 0.000344
433 0.000345
434 0.000345
435 0.000349
436 0.000349
437 0.000353
438 0.000359
439 0.000367
440 0.000379
441 0.000391
442 0.000398
443 0.000400
444 0.000403
445 0.000405
446 0.000402
447 0.000395
448 0.000392
449 0.000393
450 0.000397
451 0.000397
452 0.000400
453 0.000408
454 0.000409
455 0.000410
456 0.000409
457 0.000407
458 0.000406
459 0.000410
460 0.000410
461 0.000407
462 0.000408
463 0.000407
464 0.000406
465 0.000403
466 0.000398
467 0.000390
468 0.000384
469 0.000377
470 0.000369
471 0.000368
472 0.000366
473 0.000365
474 0.000363
475 0.000364
476 0.000363
477 0.000357
478 0.000350
479 0.000343
480 0.000341
481 0.000346
482 0.000351
483 0.000353
484 0.000359
485 0.000364
486 0.000367
487 0.000368
488 0.000367
489 0.000368
490 0.000370
491 0.000373
492 0.000371
493 0.000369
494 0.000369
495 0.000372
496 0.000374
497 0.000373
498 0.000370
499 0.000368
500 0.000369
501 0.000360
502 0.000351
503 0.000340
504 0.000338
505 0.000337
506 0.000333
507 0.000324
508 0.000323
509 0.000324
510 0.000323
511 0.000322
512 0.000321
513 0.000323
514 0.000325
515 0.000327
516 0.000330
517 0.000334
518 0.000334
519 0.000329
520 0.000317
521 0.000313
522 0.000308
523 0.000303
524 0.000295
525 0.000293
526 0.000293
527 0.000294
528 0.000293
529 0.000290
530 0.000290
531 0.000289
532 0.000289
533 0.000284
534 0.000273
535 0.000265
536 0.000261
537 0.000262
538 0.000262
539 0.000266
540 0.000270
541 0.000267
542 0.000263
543 0.000254
544 0.000246
545 0.000247
546 0.000248
547 0.000249
548 0.000251
549 0.000255
550 0.000255
551 0.000256
552 0.000255
553 0.000252
554 0.000258
555 0.000260
556 0.000258
557 0.000259
558 0.000261
559 0.000263
560 0.000261
561 0.000261
562 0.000260
563 0.000266
564 0.000270
565 0.000268
566 0.000263
567 0.000258
568 0.000262
569 0.000261
570 0.000258
571 0.000253
572 0.000252
573 0.000257
574 0.000258
575 0.000254
576 0.000251
577 0.000248
578 0.000243
579 0.000242
580 0.000243
581 0.000244
582 0.000244
583 0.000244
584 0.000240
585 0.000241
586 0.000239
587 0.000232
588 0.000225
589 0.000220
590 0.000216
591 0.000212
592 0.000207
593 0.000202
594 0.000204
595 0.000205
596 0.000205
597 0.000204
598 0.000204
599 0.000204
600 0.000209
601 0.000210
602 0.000210
603 0.000207
604 0.000208
605 0.000212
606 0.000213
607 0.000207
608 0.000200
609 0.000193
610 0.000191
611 0.000193
612 0.000192
613 0.000193
614 0.000192
615 0.000190
616 0.000188
617 0.000186
618 0.000181
619 0.000178
620 0.000176
621 0.000170
622 0.000162
623 0.000156
624 0.000154
625 0.000151
626 0.000153
627 0.000154
628 0.000158
629 0.000159
630 0.000159
631 0.000155
632 0.000154
633 0.000150
634 0.000143
635 0.000137
636 0.000133
637 0.000129
638 0.000128
639 0.000125
640 0.000122
641 0.000122
642 0.000118
643 0.000112
644 0.000108
645 0.000104
646 0.000101
647 0.000100
648 0.000104
649 0.000106
650 0.000109
651 0.000109
652 0.000111
653 0.000117
654 0.000126
655 0.000131
656 0.000134
657 0.000137
658 0.000138
659 0.000140
660 0.000144
661 0.000148
662 0.000150
663 0.000154
664 0.000153
665 0.000151
666 0.000149
667 0.000150
668 0.000147
669 0.000147
670 0.000147
671 0.000147
672 0.000151
673 0.000157
674 0.000160
675 0.000163
676 0.000168
677 0.000169
678 0.000170
679 0.000171
680 0.000173
681 0.000176
682 0.000178
683 0.000177
684 0.000179
685 0.000180
686 0.000178
687 0.000177
688 0.000174
689 0.000169
690 0.000167
691 0.000166
692 0.000164
693 0.000164
694 0.000163
695 0.000167
696 0.000171
697 0.000173
698 0.000173
699 0.000171
700 0.000171
701 0.000171
702 0.000167
703 0.000162
704 0.000159
705 0.000155
706 0.000152
707 0.000148
708 0.000146
709 0.000144
710 0.000144
711 0.000139
712 0.000133
713 0.000128
714 0.000125
715 0.000123
716 0.000122
717 0.000125
718 0.000128
719 0.000129
720 0.000128
721 0.000127
722 0.000126
723 0.000129
724 0.000126
725 0.000122
726 0.000116
727 0.000114
728 0.000110
729 0.000103
730 0.000097
731 0.000097
732 0.000096
733 0.000096
734 0.000097
735 0.000098
736 0.000104
737 0.000108
738 0.000108
739 0.000104
740 0.000100
741 0.000099
742 0.000097
743 0.000092
744 0.000086
745 0.000082
746 0.000079
747 0.000075
748 0.000070
749 0.000066
750 0.000062
751 0.000061
752 0.000059
753 0.000054
754 0.000049
755 0.000046
756 0.000044
757 0.000042
758 0.000046
759 0.000054
760 0.000063
761 0.000069
762 0.000075
763 0.000080
764 0.000085
765 0.000090
766 0.000092
767 0.000092
768 0.000094
769 0.000096
770 0.000092
771 0.000088
772 0.000087
773 0.000087
774 0.000087
775 0.000090
776 0.000088
777 0.000088
778 0.000090
779 0.000091
780 0.000091
781 0.000093
782 0.000097
783 0.000102
784 0.000104
785 0.000102
786 0.000100
787 0.000097
788 0.000096
789 0.000094
790 0.000094
791 0.000099
792 0.000103
793 0.000105
794 0.000104
795 0.000105
796 0.000107
797 0.000105
798 0.000101
799 0.000098
800 0.000098
801 0.000101
802 0.000100
803 0.000097
804 0.000096
805 0.000096
806 0.000096
807 0.000096
808 0.000097
809 0.000098
