# i correlation
1 0.001623
2 0.001555
3 0.001501
4 0.001457
5 0.001422
6 0.001385
7 0.001349
8 0.001310
9 0.001288
10 0.001274
11 0.001261
12 0.001246
13 0.001227
14 0.001220
15 0.001219
16 0.001219
17 0.001221
18 0.001218
19 0.001218
20 0.001216
21 0.001213
22 0.001207
23 0.001205
24 0.001205
25 0.001204
26 0.001201
27 0.001196
28 0.001193
29 0.001182
30 0.001182
31 0.001177
32 0.001174
33 0.001167
34 0.001167
35 0.001171
36 0.001171
37 0.001175
38 0.001171
39 0.001164
40 0.001158
41 0.001147
42 0.001138
43 0.001124
44 0.001108
45 0.001093
46 0.001077
47 0.001063
48 0.001046
49 0.001040
50 0.001035
51 0.001033
52 0.001025
53 0.001015
54 0.001002
55 0.000990
56 0.000979
57 0.000975
58 0.000973
59 0.000967
60 0.000969
61 0.000978
62 0.000981
63 0.000988
64 0.000999
65 0.001006
66 0.001015
67 0.001019
68 0.001021
69 0.001019
70 0.001015
71 0.001004
72 0.000993
73 0.000978
74 0.000965
75 0.000950
76 0.000945
77 0.000949
78 0.000951
79 0.000948
80 0.000945
81 0.000945
82 0.000937
83 0.000937
84 0.000937
85 0.000938
86 0.000936
87 0.000932
88 0.000926
89 0.000918
90 0.000912
91 0.000909
92 0.000909
93 0.000904
94 0.000897
95 0.000897
96 0.000892
97 0.000887
98 0.000884
99 0.000875
100 0.000874
101 0.000877
102 0.000881
103 0.000880
104 0.000882
105 0.000880
106 0.000883
107 0.000886
108 0.000887
109 0.000884
110 0.000872
111 0.000871
112 0.000868
113 0.000867
114 0.000863
115 0.000859
116 0.000856
117 0.000848
118 0.000844
119 0.000838
120 0.000823
121 0.000806
122 0.000793
123 0.000790
124 0.000784
125 0.000783
126 0.000780
127 0.000783
128 0.000787
129 0.000788
130 0.000796
131 0.000800
132 0.000805
133 0.000805
134 0.000804
135 0.000806
136 0.000806
137 0.000805
138 0.000805
139 0.000800
140 0.000796
141 0.000793
142 0.000789
143 0.000782
144 0.000778
145 0.000774
146 0.000767
147 0.000762
148 0.000759
149 0.000758
150 0.000758
151 0.000758
152 0.000758
153 0.000754
154 0.000750
155 0.000750
156 0.000744
157 0.000736
158 0.000730
159 0.000724
160 0.000717
161 0.000712
162 0.000712
163 0.000712
164 0.000713
165 0.000715
166 0.000720
167 0.000724
168 0.000726
169 0.000728
170 0.000730
171 0.000729
172 0.000728
173 0.000725
174 0.000727
175 0.000732
176 0.000732
177 0.000737
178 0.000735
179 0.000734
180 0.000734
181 0.000730
182 0.000730
183 0.000720
184 0.000710
185 0.000707
186 0.000706
187 0.000703
188 0.000700
189 0.000691
190 0.000680
191 0.000669
192 0.000665
193 0.000663
194 0.000665
195 0.000665
196 0.000663
197 0.000662
198 0.000659
199 0.000657
200 0.000654
201 0.000651
202 0.000648
203 0.000642
204 0.000638
205 0.000640
206 0.000645
207 0.000642
208 0.000627
209 0.000618
210 0.000611
211 0.000607
212 0.000602
213 0.000594
214 0.000584
215 0.000579
216 0.000581
217 0.000582
218 0.000586
219 0.000590
220 0.000597
221 0.000601
222 0.000598
223 0.000594
224 0.000589
225 0.000589
226 0.000588
227 0.000591
228 0.000591
229 0.000590
230 0.000587
231 0.000584
232 0.000586
233 0.000586
234 0.000588
235 0.000588
236 0.000588
237 0.000587
238 0.000584
239 0.000582
240 0.000580
241 0.000579
242 0.000576
243 0.000580
244 0.000584
245 0.000584
246 0.000588
247 0.000593
248 0.000599
249 0.000604
250 0.000606
251 0.000607
252 0.000601
253 0.000595
254 0.000587
255 0.000581
256 0.000576
257 0.000572
258 0.000576
259 0.000579
260 0.000580
261 0.000583
262 0.000585
263 0.000591
264 0.000600
265 0.000602
266 0.000599
267 0.000596
268 0.000597
269 0.000599
270 0.000599
271 0.000597
272 0.000594
273 0.000589
274 0.000580
275 0.000576
276 0.000568
277 0.000557
278 0.000554
279 0.000555
280 0.000555
281 0.000558
282 0.000560
283 0.000564
284 0.000570
285 0.000577
286 0.000589
287 0.000596
288 0.000603
289 0.000607
290 0.000607
291 0.000601
292 0.000590
293 0.000582
294 0.000568
295 0.000550
296 0.000538
297 0.000531
298 0.000523
299 0.000520
300 0.000521
301 0.000525
302 0.000530
303 0.000540
304 0.000555
305 0.000570
306 0.000584
307 0.000595
308 0.000602
309 0.000606
310 0.000603
311 0.000598
312 0.000593
313 0.000593
314 0.000591
315 0.000585
316 0.000577
317 0.000567
318 0.000563
319 0.000558
320 0.000551
321 0.000546
322 0.000543
323 0.000544
324 0.000549
325 0.000559
326 0.000563
327 0.000563
328 0.000560
329 0.000560
330 0.000560
331 0.000556
332 0.000549
333 0.000546
334 0.000546
335 0.000543
336 0.000546
337 0.000540
338 0.000535
339 0.000532
340 0.000529
341 0.000524
342 0.000524
343 0.000523
344 0.000525
345 0.000525
346 0.000526
347 0.000529
348 0.000530
349 0.000530
350 0.000530
351 0.000529
352 0.000530
353 0.000533
354 0.000533
355 0.000531
356 0.000531
357 0.000529
358 0.000522
359 0.000517
360 0.000516
361 0.000510
362 0.000505
363 0.000494
364 0.000489
365 0.000485
366 0.000482
367 0.000484
368 0.000486
369 0.000487
370 0.000491
371 0.000496
372 0.000499
373 0.000504
374 0.000511
375 0.000511
376 0.000511
377 0.000510
378 0.000504
379 0.000493
380 0.000483
381 0.000480
382 0.000476
383 0.000471
384 0.000469
385 0.000461
386 0.000454
387 0.000448
388 0.000443
389 0.000434
390 0.000422
391 0.000420
392 0.000422
393 0.000423
394 0.000425
395 0.000429
396 0.000428
397 0.000432
398 0.000430
399 0.000428
400 0.000427
401 0.000427
402 0.000429
403 0.000425
404 0.000421
405 0.000418
406 0.000418
407 0.000419
408 0.000415
409 0.000411
410 0.000401
411 0.000393
412 0.000388
413 0.000388
414 0.000390
415 0.000385
416 0.000385
417 0.000381
418 0.000380
419 0.000380
420 0.000382
421 0.000385
422 0.000386
423 0.000389
424 0.000391
425 0.000394
426 0.000395
427 0.000390
428 0.000382
429 0.000368
430 0.000360
431 0.000358
432 0.000360
433 0.000364
434 0.000365
435 0.000366
436 0.000364
437 0.000367
438 0.000369
439 0.000372
440 0.000369
441 0.000371
442 0.000373
443 0.000369
444 0.000365
445 0.000365
446 0.000366
447 0.000366
448 0.000364
449 0.000360
450 0.000354
451 0.000354
452 0.000359
453 0.000361
454 0.000362
455 0.000362
456 0.000365
457 0.000366
458 0.000373
459 0.000369
460 0.000365
461 0.000363
462 0.000358
463 0.000362
464 0.000363
465 0.000363
466 0.000357
467 0.000355
468 0.000352
469 0.000350
470 0.000349
471 0.000348
472 0.000347
473 0.000346
474 0.000344
475 0.000343
476 0.000344
477 0.000348
478 0.000348
479 0.000350
480 0.000349
481 0.000341
482 0.000338
483 0.000336
484 0.000335
485 0.000336
486 0.000336
487 0.000330
488 0.000332
489 0.000335
490 0.000335
491 0.000333
492 0.000330
493 0.000327
494 0.000322
495 0.000317
496 0.000312
497 0.000312
498 0.000311
499 0.000309
500 0.000310
501 0.000312
502 0.000313
503 0.000314
504 0.000316
505 0.000316
506 0.000316
507 0.000315
508 0.000317
509 0.000319
510 0.000317
511 0.000317
512 0.000317
513 0.000320
514 0.000326
515 0.000329
516 0.000325
517 0.000312
518 0.000304
519 0.000299
520 0.000299
521 0.000292
522 0.000285
523 0.000276
524 0.000273
525 0.000276
526 0.000279
527 0.000279
528 0.000276
529 0.000270
530 0.000269
531 0.000266
532 0.000263
533 0.000260
534 0.000259
535 0.000260
536 0.000261
537 0.000263
538 0.000258
539 0.000257
540 0.000255
541 0.000256
542 0.000254
543 0.000253
544 0.000254
545 0.000249
546 0.000245
547 0.000241
548 0.000240
549 0.000243
550 0.000250
551 0.000255
552 0.000257
553 0.000264
554 0.000270
555 0.000274
556 0.000278
557 0.000274
558 0.000269
559 0.000264
560 0.000258
561 0.000247
562 0.000236
563 0.000226
564 0.000215
565 0.000208
566 0.000201
567 0.000196
568 0.000192
569 0.000189
570 0.000188
571 0.000188
572 0.000191
573 0.000196
574 0.000203
575 0.000206
576 0.000209
577 0.000213
578 0.000217
579 0.000216
580 0.000216
581 0.000214
582 0.000208
583 0.000202
584 0.000199
585 0.000193
586 0.000191
587 0.000185
588 0.000182
589 0.000181
590 0.000181
591 0.000180
592 0.000179
593 0.000182
594 0.000187
595 0.000192
596 0.000197
597 0.000201
598 0.000204
599 0.000206
600 0.000206
601 0.000206
602 0.000207
603 0.000202
604 0.000198
605 0.000195
606 0.000191
607 0.000189
608 0.000185
609 0.000183
610 0.000178
611 0.000177
612 0.000177
613 0.000179
614 0.000179
615 0.000180
616 0.000182
617 0.000182
618 0.000185
619 0.000186
620 0.000187
621 0.000189
622 0.000189
623 0.000187
624 0.000180
625 0.000174
626 0.000168
627 0.000167
628 0.000165
629 0.000167
630 0.000162
631 0.000155
632 0.000153
633 0.000154
634 0.000156
635 0.000156
636 0.000154
637 0.000151
638 0.000151
639 0.000156
640 0.000159
641 0.000164
642 0.000165
643 0.000169
644 0.000174
645 0.000177
646 0.000181
647 0.000176
648 0.000173
649 0.000168
650 0.000166
651 0.000168
652 0.000173
653 0.000180
654 0.000181
655 0.000179
656 0.000180
657 0.000181
658 0.000185
659 0.000188
660 0.000193
661 0.000192
662 0.000189
663 0.000187
664 0.000186
665 0.000184
666 0.000182
667 0.000180
668 0.000175
669 0.000170
670 0.000166
671 0.000165
672 0.000161
673 0.000155
674 0.000151
675 0.000144
676 0.000141
677 0.000134
678 0.000133
679 0.000135
680 0.000138
681 0.000141
682 0.000141
683 0.000147
684 0.000152
685 0.000159
686 0.000168
687 0.000170
688 0.000171
689 0.000172
690 0.000176
691 0.000178
692 0.000179
693 0.000178
694 0.000177
695 0.000182
696 0.000185
697 0.000183
698 0.000178
699 0.000172
700 0.000165
701 0.000161
702 0.000157
703 0.000151
704 0.000148
705 0.000146
706 0.000148
707 0.000152
708 0.000152
709 0.000152
710 0.000155
711 0.000159
712 0.000162
713 0.000168
714 0.000172
715 0.000172
716 0.000169
717 0.000165
718 0.000162
719 0.000157
720 0.000156
721 0.000159
722 0.000162
723 0.000161
724 0.000161
725 0.000165
726 0.000168
727 0.000171
728 0.000171
729 0.000175
730 0.000180
731 0.000187
732 0.000194
733 0.000197
734 0.000193
735 0.000188
736 0.000189
737 0.000195
738 0.000198
739 0.000196
740 0.000192
741 0.000194
742 0.000196
743 0.000200
744 0.000200
745 0.000198
746 0.000195
747 0.000195
748 0.000196
749 0.000197
750 0.000198
751 0.000194
752 0.000193
753 0.000189
754 0.000183
755 0.000178
756 0.000172
757 0.000172
758 0.000171
759 0.000170
760 0.000170
761 0.000172
762 0.000174
763 0.000175
764 0.000175
765 0.000174
766 0.000174
767 0.000175
768 0.000175
769 0.000174
770 0.000170
771 0.000167
772 0.000165
773 0.000163
774 0.000161
775 0.000159
776 0.000159
777 0.000159
778 0.000163
779 0.000166
780 0.000165
781 0.000161
782 0.000157
783 0.000155
784 0.000154
785 0.000149
786 0.000143
787 0.000137
788 0.000133
789 0.000129
790 0.000124
791 0.000117
792 0.000105
793 0.000095
794 0.000093
795 0.000092
796 0.000091
797 0.000087
798 0.000086
799 0.000088
800 0.000087
801 0.000089
802 0.000089
803 0.000090
804 0.000089
805 0.000091
806 0.000092
807 0.000092
808 0.000095
809 0.000099
