# i correlation
1 0.001596
2 0.001526
3 0.001471
4 0.001419
5 0.001374
6 0.001337
7 0.001304
8 0.001279
9 0.001255
10 0.001235
11 0.001223
12 0.001203
13 0.001185
14 0.001173
15 0.001152
16 0.001136
17 0.001127
18 0.001121
19 0.001111
20 0.001099
21 0.001089
22 0.001079
23 0.001069
24 0.001058
25 0.001054
26 0.001048
27 0.001039
28 0.001033
29 0.001026
30 0.001017
31 0.001011
32 0.001000
33 0.000985
34 0.000971
35 0.000961
36 0.000956
37 0.000953
38 0.000952
39 0.000954
40 0.000956
41 0.000964
42 0.000968
43 0.000963
44 0.000956
45 0.000955
46 0.000948
47 0.000948
48 0.000947
49 0.000941
50 0.000927
51 0.000911
52 0.000903
53 0.000901
54 0.000898
55 0.000900
56 0.000913
57 0.000922
58 0.000925
59 0.000933
60 0.000941
61 0.000935
62 0.000930
63 0.000925
64 0.000922
65 0.000919
66 0.000918
67 0.000927
68 0.000933
69 0.000936
70 0.000945
71 0.000940
72 0.000925
73 0.000909
74 0.000891
75 0.000873
76 0.000863
77 0.000856
78 0.000857
79 0.000862
80 0.000860
81 0.000858
82 0.000853
83 0.000849
84 0.000841
85 0.000829
86 0.000822
87 0.000812
88 0.000806
89 0.000798
90 0.000795
91 0.000783
92 0.000775
93 0.000761
94 0.000745
95 0.000736
96 0.000726
97 0.000721
98 0.000714
99 0.000705
100 0.000694
101 0.000689
102 0.000686
103 0.000681
104 0.000676
105 0.000670
106 0.000665
107 0.000665
108 0.000669
109 0.000679
110 0.000687
111 0.000692
112 0.000702
113 0.000706
114 0.000699
115 0.000694
116 0.000685
117 0.000676
118 0.000673
119 0.000669
120 0.000654
121 0.000638
122 0.000623
123 0.000611
124 0.000602
125 0.000592
126 0.000594
127 0.000605
128 0.000618
129 0.000626
130 0.000629
131 0.000636
132 0.000641
133 0.000650
134 0.000654
135 0.000656
136 0.000652
137 0.000658
138 0.000667
139 0.000671
140 0.000673
141 0.000673
142 0.000674
143 0.000672
144 0.000668
145 0.000664
146 0.000655
147 0.000644
148 0.000633
149 0.000626
150 0.000621
151 0.000617
152 0.000613
153 0.000606
154 0.000597
155 0.000590
156 0.000585
157 0.000582
158 0.000578
159 0.000578
160 0.000583
161 0.000589
162 0.000591
163 0.000587
164 0.000579
165 0.000572
166 0.000568
167 0.000558
168 0.000542
169 0.000536
170 0.000528
171 0.000525
172 0.000527
173 0.000523
174 0.000520
175 0.000519
176 0.000519
177 0.000518
178 0.000525
179 0.000530
180 0.000535
181 0.000542
182 0.000544
183 0.000547
184 0.000546
185 0.000545
186 0.000551
187 0.000555
188 0.000558
189 0.000561
190 0.000564
191 0.000571
192 0.000585
193 0.000588
194 0.000590
195 0.000591
196 0.000588
197 0.000595
198 0.000611
199 0.000623
200 0.000628
201 0.000628
202 0.000627
203 0.000626
204 0.000620
205 0.000615
206 0.000613
207 0.000610
208 0.000611
209 0.000611
210 0.000611
211 0.000607
212 0.000600
213 0.000594
214 0.000587
215 0.000581
216 0.000574
217 0.000572
218 0.000573
219 0.000572
220 0.000573
221 0.000582
222 0.000583
223 0.000586
224 0.000589
225 0.000581
226 0.000572
227 0.000567
228 0.000560
229 0.000553
230 0.000547
231 0.000542
232 0.000529
233 0.000513
234 0.000496
235 0.000486
236 0.000474
237 0.000461
238 0.000446
239 0.000439
240 0.000437
241 0.000433
242 0.000437
243 0.000440
244 0.000440
245 0.000443
246 0.000452
247 0.000459
248 0.000460
249 0.000464
250 0.000472
251 0.000476
252 0.000482
253 0.000483
254 0.000479
255 0.000474
256 0.000468
257 0.000462
258 0.000456
259 0.000451
260 0.000451
261 0.000453
262 0.000457
263 0.000458
264 0.000458
265 0.000462
266 0.000461
267 0.000457
268 0.000457
269 0.000454
270 0.000455
271 0.000464
272 0.000469
273 0.000476
274 0.000478
275 0.000477
276 0.000484
277 0.000487
278 0.000493
279 0.000493
280 0.000490
281 0.000485
282 0.000482
283 0.000478
284 0.000476
285 0.000471
286 0.000467
287 0.000463
288 0.000462
289 0.000463
290 0.000464
291 0.000468
292 0.000468
293 0.000456
294 0.000450
295 0.000448
296 0.000444
297 0.000439
298 0.000430
299 0.000424
300 0.000421
301 0.000419
302 0.000418
303 0.000414
304 0.000413
305 0.000413
306 0.000410
307 0.000410
308 0.000403
309 0.000399
310 0.000399
311 0.000395
312 0.000395
313 0.000398
314 0.000400
315 0.000398
316 0.000398
317 0.000397
318 0.000398
319 0.000402
320 0.000401
321 0.000401
322 0.000398
323 0.000398
324 0.000391
325 0.000391
326 0.000390
327 0.000393
328 0.000388
329 0.000383
330 0.000382
331 0.000384
332 0.000390
333 0.000394
334 0.000399
335 0.000401
336 0.000410
337 0.000415
338 0.000419
339 0.000421
340 0.000415
341 0.000410
342 0.000406
343 0.000400
344 0.000401
345 0.000402
346 0.000398
347 0.000392
348 0.000388
349 0.000384
350 0.000381
351 0.000375
352 0.000370
353 0.000363
354 0.000356
355 0.000355
356 0.000348
357 0.000338
358 0.000331
359 0.000334
360 0.000330
361 0.000331
362 0.000336
363 0.000344
364 0.000355
365 0.000363
366 0.000364
367 0.000358
368 0.000353
369 0.000350
370 0.000347
371 0.000335
372 0.000329
373 0.000328
374 0.000324
375 0.000327
376 0.000328
377 0.000323
378 0.000318
379 0.000316
380 0.000316
381 0.000318
382 0.000312
383 0.000310
384 0.000312
385 0.000307
386 0.000308
387 0.000313
388 0.000313
389 0.000312
390 0.000316
391 0.000316
392 0.000315
393 0.000315
394 0.000324
395 0.000333
396 0.000340
397 0.000346
398 0.000348
399 0.000349
400 0.000347
401 0.000343
402 0.000343
403 0.000334
404 0.000332
405 0.000331
406 0.000337
407 0.000343
408 0.000353
409 0.000365
410 0.000370
411 0.000374
412 0.000372
413 0.000374
414 0.000372
415 0.000373
416 0.000372
417 0.000372
418 0.000373
419 0.000376
420 0.000375
421 0.000368
422 0.000370
423 0.000375
424 0.000379
425 0.000381
426 0.000379
427 0.000373
428 0.000370
429 0.000370
430 0.000361
431 0.000352
432 0.000342
433 0.000335
434 0.000332
435 0.000328
436 0.000326
437 0.000329
438 0.000327
439 0.000328
440 0.000332
441 0.000331
442 0.000327
443 0.000325
444 0.000322
445 0.000323
446 0.000317
447 0.000314
448 0.000314
449 0.000309
450 0.000303
451 0.000306
452 0.000308
453 0.000307
454 0.000314
455 0.000315
456 0.000319
457 0.000323
458 0.000325
459 0.000321
460 0.000317
461 0.000309
462 0.000305
463 0.000301
464 0.000298
465 0.000301
466 0.000310
467 0.000320
468 0.000326
469 0.000330
470 0.000335
471 0.000341
472 0.000339
473 0.000334
474 0.000331
475 0.000331
476 0.000336
477 0.000341
478 0.000347
479 0.000358
480 0.000365
481 0.000366
482 0.000368
483 0.000372
484 0.000378
485 0.000381
486 0.000382
487 0.000383
488 0.000388
489 0.000391
490 0.000393
491 0.000390
492 0.000390
493 0.000393
494 0.000398
495 0.000399
496 0.000406
497 0.000415
498 0.000422
499 0.000426
500 0.000425
501 0.000425
502 0.000418
503 0.000411
504 0.000406
505 0.000404
506 0.000401
507 0.000403
508 0.000412
509 0.000414
510 0.000418
511 0.000421
512 0.000420
513 0.000419
514 0.000415
515 0.000414
516 0.000413
517 0.000407
518 0.000408
519 0.000407
520 0.000404
521 0.000402
522 0.000396
523 0.000393
524 0.000392
525 0.000393
526 0.000394
527 0.000395
528 0.000395
529 0.000386
530 0.000378
531 0.000374
532 0.000375
533 0.000374
534 0.000371
535 0.000371
536 0.000378
537 0.000390
538 0.000404
539 0.000416
540 0.000420
541 0.000421
542 0.000422
543 0.000418
544 0.000418
545 0.000414
546 0.000413
547 0.000413
548 0.000406
549 0.000400
550 0.000397
551 0.000396
552 0.000393
553 0.000390
554 0.000389
555 0.000392
556 0.000395
557 0.000401
558 0.000403
559 0.000400
560 0.000395
561 0.000392
562 0.000390
563 0.000388
564 0.000382
565 0.000376
566 0.000367
567 0.000364
568 0.000364
569 0.000363
570 0.000357
571 0.000351
572 0.000345
573 0.000339
574 0.000333
575 0.000331
576 0.000324
577 0.000318
578 0.000318
579 0.000318
580 0.000321
581 0.000323
582 0.000316
583 0.000310
584 0.000300
585 0.000293
586 0.000293
587 0.000295
588 0.000300
589 0.000306
590 0.000312
591 0.000312
592 0.000312
593 0.000310
594 0.000313
595 0.000313
596 0.000311
597 0.000310
598 0.000309
599 0.000309
600 0.000306
601 0.000301
602 0.000294
603 0.000290
604 0.000286
605 0.000280
606 0.000276
607 0.000273
608 0.000272
609 0.000270
610 0.000267
611 0.000263
612 0.000258
613 0.000249
614 0.000241
615 0.000234
616 0.000231
617 0.000234
618 0.000237
619 0.000237
620 0.000237
621 0.000235
622 0.000231
623 0.000230
624 0.000226
625 0.000225
626 0.000222
627 0.000222
628 0.000223
629 0.000222
630 0.000220
631 0.000220
632 0.000216
633 0.000208
634 0.000205
635 0.000204
636 0.000204
637 0.000211
638 0.000216
639 0.000220
640 0.000222
641 0.000221
642 0.000218
643 0.000214
644 0.000204
645 0.000197
646 0.000196
647 0.000192
648 0.000189
649 0.000191
650 0.000196
651 0.000203
652 0.000209
653 0.000214
654 0.000219
655 0.000222
656 0.000224
657 0.000229
658 0.000234
659 0.000242
660 0.000247
661 0.000250
662 0.000248
663 0.000244
664 0.000239
665 0.000236
666 0.000236
667 0.000238
668 0.000238
669 0.000237
670 0.000241
671 0.000241
672 0.000239
673 0.000235
674 0.000229
675 0.000226
676 0.000224
677 0.000222
678 0.000225
679 0.000225
680 0.000225
681 0.000225
682 0.000226
683 0.000222
684 0.000217
685 0.000210
686 0.000203
687 0.000200
688 0.000195
689 0.000188
690 0.000185
691 0.000185
692 0.000182
693 0.000178
694 0.000176
695 0.000172
696 0.000170
697 0.000170
698 0.000173
699 0.000179
700 0.000189
701 0.000199
702 0.000206
703 0.000211
704 0.000210
705 0.000209
706 0.000212
707 0.000216
708 0.000222
709 0.000225
710 0.000224
711 0.000224
712 0.000219
713 0.000214
714 0.000208
715 0.000202
716 0.000197
717 0.000194
718 0.000199
719 0.000202
720 0.000204
721 0.000202
722 0.000198
723 0.000195
724 0.000189
725 0.000185
726 0.000182
727 0.000179
728 0.000176
729 0.000176
730 0.000174
731 0.000174
732 0.000177
733 0.000180
734 0.000182
735 0.000184
736 0.000190
737 0.000196
738 0.000205
739 0.000212
740 0.000219
741 0.000224
742 0.000227
743 0.000233
744 0.000238
745 0.000240
746 0.000240
747 0.000242
748 0.000242
749 0.000244
750 0.000248
751 0.000247
752 0.000241
753 0.000234
754 0.000231
755 0.000225
756 0.000220
757 0.000212
758 0.000204
759 0.000200
760 0.000198
761 0.000198
762 0.000198
763 0.000197
764 0.000196
765 0.000193
766 0.000193
767 0.000191
768 0.000193
769 0.000190
770 0.000191
771 0.000193
772 0.000191
773 0.000192
774 0.000195
775 0.000195
776 0.000194
777 0.000193
778 0.000192
779 0.000193
780 0.000189
781 0.000186
782 0.000184
783 0.000179
784 0.000176
785 0.000176
786 0.000175
787 0.000173
788 0.000172
789 0.000177
790 0.000179
791 0.000176
792 0.000173
793 0.000171
794 0.000167
795 0.000160
796 0.000156
797 0.000151
798 0.000148
799 0.000146
800 0.000145
801 0.000145
802 0.000144
803 0.000145
804 0.000149
805 0.000149
806 0.000151
807 0.000153
808 0.000151
809 0.000152
