# i correlation
1 0.001705
2 0.001644
3 0.001587
4 0.001540
5 0.001498
6 0.001463
7 0.001429
8 0.001397
9 0.001372
10 0.001351
11 0.001332
12 0.001313
13 0.001297
14 0.001283
15 0.001272
16 0.001264
17 0.001258
18 0.001250
19 0.001243
20 0.001234
21 0.001227
22 0.001219
23 0.001216
24 0.001221
25 0.001218
26 0.001216
27 0.001215
28 0.001214
29 0.001212
30 0.001207
31 0.001202
32 0.001194
33 0.001175
34 0.001162
35 0.001149
36 0.001136
37 0.001123
38 0.001111
39 0.001102
40 0.001094
41 0.001084
42 0.001070
43 0.001059
44 0.001044
45 0.001031
46 0.001018
47 0.001009
48 0.001006
49 0.000997
50 0.000994
51 0.000988
52 0.000978
53 0.000964
54 0.000954
55 0.000943
56 0.000930
57 0.000918
58 0.000909
59 0.000899
60 0.000890
61 0.000880
62 0.000869
63 0.000865
64 0.000865
65 0.000862
66 0.000861
67 0.000859
68 0.000860
69 0.000851
70 0.000837
71 0.000824
72 0.000812
73 0.000796
74 0.000789
75 0.000784
76 0.000779
77 0.000770
78 0.000770
79 0.000767
80 0.000766
81 0.000765
82 0.000763
83 0.000763
84 0.000767
85 0.000768
86 0.000763
87 0.000760
88 0.000755
89 0.000758
90 0.000757
91 0.000760
92 0.000760
93 0.000762
94 0.000760
95 0.000759
96 0.000752
97 0.000746
98 0.000744
99 0.000746
100 0.000746
101 0.000740
102 0.000735
103 0.000731
104 0.000725
105 0.000719
106 0.000708
107 0.000701
108 0.000698
109 0.000698
110 0.000697
111 0.000694
112 0.000697
113 0.000697
114 0.000697
115 0.000704
116 0.000708
117 0.000710
118 0.000700
119 0.000702
120 0.000699
121 0.000697
122 0.000693
123 0.000686
124 0.000681
125 0.000681
126 0.000681
127 0.000677
128 0.000671
129 0.000667
130 0.000661
131 0.000654
132 0.000650
133 0.000651
134 0.000652
135 0.000656
136 0.000657
137 0.000651
138 0.000648
139 0.000652
140 0.000641
141 0.000638
142 0.000635
143 0.000636
144 0.000639
145 0.000643
146 0.000649
147 0.000658
148 0.000666
149 0.000672
150 0.000668
151 0.000663
152 0.000656
153 0.000653
154 0.000644
155 0.000629
156 0.000622
157 0.000612
158 0.000598
159 0.000591
160 0.000581
161 0.000571
162 0.000567
163 0.000569
164 0.000568
165 0.000573
166 0.000574
167 0.000576
168 0.000571
169 0.000564
170 0.000563
171 0.000565
172 0.000564
173 0.000568
174 0.000570
175 0.000571
176 0.000578
177 0.000580
178 0.000583
179 0.000586
180 0.000593
181 0.000598
182 0.000600
183 0.000606
184 0.000613
185 0.000617
186 0.000614
187 0.000613
188 0.000607
189 0.000596
190 0.000585
191 0.000579
192 0.000566
193 0.000558
194 0.000557
195 0.000553
196 0.000545
197 0.000545
198 0.000543
199 0.000544
200 0.000544
201 0.000545
202 0.000545
203 0.000542
204 0.000540
205 0.000536
206 0.000529
207 0.000524
208 0.000519
209 0.000512
210 0.000510
211 0.000512
212 0.000512
213 0.000517
214 0.000521
215 0.000528
216 0.000535
217 0.000549
218 0.000556
219 0.000569
220 0.000574
221 0.000577
222 0.000579
223 0.000578
224 0.000580
225 0.000582
226 0.000583
227 0.000573
228 0.000565
229 0.000554
230 0.000547
231 0.000544
232 0.000549
233 0.000549
234 0.000548
235 0.000538
236 0.000529
237 0.000522
238 0.000513
239 0.000501
240 0.000495
241 0.000495
242 0.000498
243 0.000504
244 0.000502
245 0.000493
246 0.000485
247 0.000478
248 0.000474
249 0.000468
250 0.000462
251 0.000459
252 0.000461
253 0.000460
254 0.000459
255 0.000454
256 0.000453
257 0.000449
258 0.000452
259 0.000451
260 0.000447
261 0.000446
262 0.000448
263 0.000451
264 0.000453
265 0.000454
266 0.000450
267 0.000445
268 0.000440
269 0.000444
270 0.000446
271 0.000450
272 0.000456
273 0.000461
274 0.000468
275 0.000477
276 0.000475
277 0.000465
278 0.000455
279 0.000447
280 0.000446
281 0.000447
282 0.000448
283 0.000448
284 0.000446
285 0.000440
286 0.000436
287 0.000439
288 0.000448
289 0.000453
290 0.000456
291 0.000451
292 0.000452
293 0.000453
294 0.000454
295 0.000453
296 0.000448
297 0.000438
298 0.000435
299 0.000433
300 0.000438
301 0.000442
302 0.000447
303 0.000446
304 0.000448
305 0.000447
306 0.000446
307 0.000439
308 0.000430
309 0.000423
310 0.000421
311 0.000424
312 0.000430
313 0.000435
314 0.000435
315 0.000435
316 0.000432
317 0.000430
318 0.000427
319 0.000425
320 0.000421
321 0.000418
322 0.000417
323 0.000416
324 0.000417
325 0.000413
326 0.000406
327 0.000392
328 0.000378
329 0.000369
330 0.000369
331 0.000369
332 0.000372
333 0.000377
334 0.000382
335 0.000386
336 0.000397
337 0.000403
338 0.000410
339 0.000410
340 0.000409
341 0.000412
342 0.000413
343 0.000417
344 0.000416
345 0.000410
346 0.000406
347 0.000407
348 0.000406
349 0.000402
350 0.000397
351 0.000391
352 0.000382
353 0.000378
354 0.000377
355 0.000370
356 0.000366
357 0.000358
358 0.000354
359 0.000347
360 0.000342
361 0.000336
362 0.000332
363 0.000333
364 0.000340
365 0.000346
366 0.000349
367 0.000355
368 0.000357
369 0.000358
370 0.000358
371 0.000360
372 0.000360
373 0.000363
374 0.000363
375 0.000364
376 0.000361
377 0.000351
378 0.000344
379 0.000344
380 0.000340
381 0.000339
382 0.000336
383 0.000328
384 0.000321
385 0.000312
386 0.000303
387 0.000295
388 0.000287
389 0.000287
390 0.000286
391 0.000291
392 0.000290
393 0.000285
394 0.000274
395 0.000267
396 0.000263
397 0.000263
398 0.000264
399 0.000268
400 0.000273
401 0.000275
402 0.000280
403 0.000282
404 0.000287
405 0.000289
406 0.000292
407 0.000293
408 0.000294
409 0.000291
410 0.000294
411 0.000292
412 0.000284
413 0.000278
414 0.000274
415 0.000280
416 0.000281
417 0.000284
418 0.000286
419 0.000293
420 0.000291
421 0.000293
422 0.000293
423 0.000299
424 0.000302
425 0.000310
426 0.000312
427 0.000317
428 0.000323
429 0.000327
430 0.000329
431 0.000330
432 0.000330
433 0.000327
434 0.000327
435 0.000331
436 0.000335
437 0.000343
438 0.000353
439 0.000359
440 0.000361
441 0.000366
442 0.000371
443 0.000378
444 0.000378
445 0.000378
446 0.000378
447 0.000384
448 0.000385
449 0.000387
450 0.000386
451 0.000389
452 0.000388
453 0.000390
454 0.000393
455 0.000395
456 0.000402
457 0.000411
458 0.000424
459 0.000436
460 0.000450
461 0.000458
462 0.000461
463 0.000466
464 0.000470
465 0.000473
466 0.000476
467 0.000479
468 0.000482
469 0.000483
470 0.000481
471 0.000479
472 0.000470
473 0.000461
474 0.000453
475 0.000451
476 0.000446
477 0.000442
478 0.000442
479 0.000438
480 0.000434
481 0.000430
482 0.000428
483 0.000430
484 0.000431
485 0.000431
486 0.000437
487 0.000438
488 0.000438
489 0.000440
490 0.000448
491 0.000458
492 0.000467
493 0.000472
494 0.000475
495 0.000478
496 0.000481
497 0.000486
498 0.000482
499 0.000481
500 0.000480
501 0.000481
502 0.000482
503 0.000480
504 0.000477
505 0.000469
506 0.000466
507 0.000466
508 0.000465
509 0.000463
510 0.000461
511 0.000456
512 0.000454
513 0.000451
514 0.000447
515 0.000446
516 0.000446
517 0.000448
518 0.000456
519 0.000459
520 0.000457
521 0.000456
522 0.000452
523 0.000452
524 0.000449
525 0.000448
526 0.000444
527 0.000437
528 0.000438
529 0.000432
530 0.000427
531 0.000424
532 0.000420
533 0.000412
534 0.000404
535 0.000398
536 0.000394
537 0.000395
538 0.000395
539 0.000389
540 0.000384
541 0.000377
542 0.000373
543 0.000371
544 0.000369
545 0.000365
546 0.000362
547 0.000363
548 0.000362
549 0.000362
550 0.000359
551 0.000352
552 0.000347
553 0.000339
554 0.000335
555 0.000334
556 0.000332
557 0.000329
558 0.000327
559 0.000324
560 0.000317
561 0.000304
562 0.000295
563 0.000288
564 0.000283
565 0.000274
566 0.000269
567 0.000267
568 0.000266
569 0.000260
570 0.000255
571 0.000247
572 0.000240
573 0.000240
574 0.000239
575 0.000238
576 0.000241
577 0.000245
578 0.000247
579 0.000247
580 0.000249
581 0.000249
582 0.000250
583 0.000255
584 0.000258
585 0.000256
586 0.000258
587 0.000261
588 0.000264
589 0.000260
590 0.000256
591 0.000250
592 0.000245
593 0.000240
594 0.000239
595 0.000240
596 0.000235
597 0.000232
598 0.000227
599 0.000224
600 0.000225
601 0.000225
602 0.000223
603 0.000219
604 0.000213
605 0.000210
606 0.000210
607 0.000214
608 0.000219
609 0.000223
610 0.000227
611 0.000230
612 0.000239
613 0.000250
614 0.000256
615 0.000259
616 0.000263
617 0.000268
618 0.000270
619 0.000267
620 0.000259
621 0.000253
622 0.000249
623 0.000247
624 0.000245
625 0.000246
626 0.000249
627 0.000251
628 0.000253
629 0.000253
630 0.000250
631 0.000248
632 0.000250
633 0.000246
634 0.000247
635 0.000247
636 0.000249
637 0.000251
638 0.000257
639 0.000260
640 0.000266
641 0.000271
642 0.000280
643 0.000291
644 0.000299
645 0.000306
646 0.000307
647 0.000308
648 0.000315
649 0.000319
650 0.000317
651 0.000318
652 0.000319
653 0.000316
654 0.000314
655 0.000309
656 0.000306
657 0.000304
658 0.000299
659 0.000294
660 0.000292
661 0.000287
662 0.000286
663 0.000284
664 0.000282
665 0.000273
666 0.000269
667 0.000270
668 0.000273
669 0.000276
670 0.000274
671 0.000271
672 0.000269
673 0.000267
674 0.000262
675 0.000260
676 0.000259
677 0.000266
678 0.000269
679 0.000278
680 0.000284
681 0.000293
682 0.000301
683 0.000304
684 0.000307
685 0.000310
686 0.000310
687 0.000310
688 0.000308
689 0.000304
690 0.000303
691 0.000305
692 0.000303
693 0.000300
694 0.000296
695 0.000290
696 0.000285
697 0.000277
698 0.000270
699 0.000260
700 0.000253
701 0.000246
702 0.000241
703 0.000239
704 0.000238
705 0.000234
706 0.000232
707 0.000231
708 0.000232
709 0.000234
710 0.000231
711 0.000233
712 0.000239
713 0.000243
714 0.000242
715 0.000238
716 0.000237
717 0.000237
718 0.000238
719 0.000239
720 0.000242
721 0.000243
722 0.000245
723 0.000248
724 0.000248
725 0.000248
726 0.000245
727 0.000245
728 0.000241
729 0.000241
730 0.000243
731 0.000240
732 0.000240
733 0.000241
734 0.000241
735 0.000243
736 0.000245
737 0.000245
738 0.000244
739 0.000241
740 0.000238
741 0.000236
742 0.000233
743 0.000231
744 0.000227
745 0.000223
746 0.000217
747 0.000212
748 0.000210
749 0.000207
750 0.000201
751 0.000202
752 0.000198
753 0.000195
754 0.000192
755 0.000192
756 0.000189
757 0.000186
758 0.000182
759 0.000179
760 0.000179
761 0.000183
762 0.000187
763 0.000193
764 0.000199
765 0.000203
766 0.000206
767 0.000205
768 0.000202
769 0.000195
770 0.000186
771 0.000181
772 0.000177
773 0.000173
774 0.000172
775 0.000174
776 0.000176
777 0.000177
778 0.000178
779 0.000179
780 0.000181
781 0.000185
782 0.000188
783 0.000188
784 0.000188
785 0.000185
786 0.000181
787 0.000176
788 0.000172
789 0.000165
790 0.000160
791 0.000156
792 0.000153
793 0.000151
794 0.000148
795 0.000145
796 0.000143
797 0.000139
798 0.000134
799 0.000132
800 0.000130
801 0.000132
802 0.000136
803 0.000145
804 0.000150
805 0.000157
806 0.000163
807 0.000170
808 0.000178
809 0.000180
