# i correlation
1 0.001914
2 0.001848
3 0.001799
4 0.001765
5 0.001737
6 0.001716
7 0.001694
8 0.001671
9 0.001649
10 0.001632
11 0.001622
12 0.001605
13 0.001586
14 0.001565
15 0.001547
16 0.001537
17 0.001528
18 0.001522
19 0.001511
20 0.001489
21 0.001469
22 0.001451
23 0.001438
24 0.001422
25 0.001415
26 0.001403
27 0.001391
28 0.001382
29 0.001368
30 0.001351
31 0.001338
32 0.001328
33 0.001312
34 0.001296
35 0.001283
36 0.001274
37 0.001271
38 0.001270
39 0.001269
40 0.001264
41 0.001253
42 0.001240
43 0.001227
44 0.001221
45 0.001217
46 0.001210
47 0.001207
48 0.001205
49 0.001201
50 0.001199
51 0.001194
52 0.001179
53 0.001168
54 0.001157
55 0.001151
56 0.001152
57 0.001151
58 0.001155
59 0.001159
60 0.001165
61 0.001169
62 0.001173
63 0.001170
64 0.001166
65 0.001159
66 0.001151
67 0.001155
68 0.001146
69 0.001137
70 0.001136
71 0.001130
72 0.001130
73 0.001131
74 0.001129
75 0.001123
76 0.001124
77 0.001115
78 0.001105
79 0.001095
80 0.001091
81 0.001089
82 0.001079
83 0.001070
84 0.001056
85 0.001041
86 0.001022
87 0.001007
88 0.001004
89 0.001000
90 0.000994
91 0.000983
92 0.000977
93 0.000966
94 0.000958
95 0.000953
96 0.000936
97 0.000920
98 0.000917
99 0.000919
100 0.000918
101 0.000914
102 0.000905
103 0.000890
104 0.000876
105 0.000870
106 0.000867
107 0.000865
108 0.000860
109 0.000860
110 0.000861
111 0.000869
112 0.000877
113 0.000881
114 0.000888
115 0.000886
116 0.000888
117 0.000899
118 0.000909
119 0.000912
120 0.000913
121 0.000911
122 0.000907
123 0.000904
124 0.000903
125 0.000900
126 0.000899
127 0.000896
128 0.000892
129 0.000891
130 0.000898
131 0.000902
132 0.000902
133 0.000897
134 0.000897
135 0.000888
136 0.000884
137 0.000886
138 0.000888
139 0.000881
140 0.000873
141 0.000859
142 0.000856
143 0.000860
144 0.000862
145 0.000859
146 0.000852
147 0.000846
148 0.000846
149 0.000852
150 0.000856
151 0.000861
152 0.000857
153 0.000847
154 0.000833
155 0.000838
156 0.000845
157 0.000849
158 0.000845
159 0.000838
160 0.000826
161 0.000817
162 0.000816
163 0.000809
164 0.000792
165 0.000783
166 0.000775
167 0.000767
168 0.000759
169 0.000751
170 0.000743
171 0.000734
172 0.000729
173 0.000718
174 0.000711
175 0.000707
176 0.000706
177 0.000698
178 0.000687
179 0.000677
180 0.000671
181 0.000667
182 0.000666
183 0.000669
184 0.000677
185 0.000680
186 0.000677
187 0.000673
188 0.000679
189 0.000682
190 0.000691
191 0.000696
192 0.000688
193 0.000681
194 0.000678
195 0.000681
196 0.000687
197 0.000688
198 0.000692
199 0.000693
200 0.000694
201 0.000695
202 0.000697
203 0.000692
204 0.000690
205 0.000685
206 0.000684
207 0.000687
208 0.000689
209 0.000696
210 0.000697
211 0.000691
212 0.000692
213 0.000696
214 0.000696
215 0.000692
216 0.000691
217 0.000693
218 0.000693
219 0.000694
220 0.000691
221 0.000680
222 0.000661
223 0.000653
224 0.000648
225 0.000647
226 0.000642
227 0.000636
228 0.000636
229 0.000633
230 0.000627
231 0.000621
232 0.000615
233 0.000602
234 0.000589
235 0.000582
236 0.000578
237 0.000578
238 0.000571
239 0.000572
240 0.000570
241 0.000567
242 0.000558
243 0.000558
244 0.000562
245 0.000559
246 0.000566
247 0.000574
248 0.000580
249 0.000582
250 0.000594
251 0.000595
252 0.000597
253 0.000591
254 0.000584
255 0.000581
256 0.000579
257 0.000581
258 0.000580
259 0.000562
260 0.000554
261 0.000547
262 0.000547
263 0.000549
264 0.000559
265 0.000564
266 0.000571
267 0.000578
268 0.000581
269 0.000588
270 0.000591
271 0.000597
272 0.000596
273 0.000597
274 0.000606
275 0.000617
276 0.000630
277 0.000639
278 0.000640
279 0.000647
280 0.000652
281 0.000654
282 0.000653
283 0.000654
284 0.000650
285 0.000647
286 0.000648
287 0.000644
288 0.000633
289 0.000626
290 0.000622
291 0.000611
292 0.000605
293 0.000596
294 0.000592
295 0.000590
296 0.000582
297 0.000579
298 0.000570
299 0.000559
300 0.000549
301 0.000539
302 0.000533
303 0.000525
304 0.000516
305 0.000509
306 0.000499
307 0.000493
308 0.000496
309 0.000490
310 0.000477
311 0.000471
312 0.000463
313 0.000460
314 0.000464
315 0.000465
316 0.000462
317 0.000458
318 0.000459
319 0.000458
320 0.000460
321 0.000451
322 0.000446
323 0.000443
324 0.000443
325 0.000443
326 0.000442
327 0.000444
328 0.000446
329 0.000442
330 0.000441
331 0.000443
332 0.000446
333 0.000451
334 0.000451
335 0.000446
336 0.000440
337 0.000434
338 0.000439
339 0.000441
340 0.000445
341 0.000447
342 0.000457
343 0.000464
344 0.000466
345 0.000468
346 0.000478
347 0.000485
348 0.000489
349 0.000485
350 0.000481
351 0.000474
352 0.000467
353 0.000464
354 0.000463
355 0.000461
356 0.000462
357 0.000466
358 0.000467
359 0.000472
360 0.000476
361 0.000477
362 0.000473
363 0.000472
364 0.000469
365 0.000472
366 0.000471
367 0.000465
368 0.000461
369 0.000458
370 0.000457
371 0.000448
372 0.000443
373 0.000430
374 0.000424
375 0.000421
376 0.000417
377 0.000410
378 0.000406
379 0.000400
380 0.000401
381 0.000403
382 0.000399
383 0.000392
384 0.000389
385 0.000386
386 0.000383
387 0.000387
388 0.000391
389 0.000388
390 0.000383
391 0.000377
392 0.000373
393 0.000371
394 0.000372
395 0.000375
396 0.000379
397 0.000386
398 0.000394
399 0.000397
400 0.000407
401 0.000417
402 0.000425
403 0.000436
404 0.000447
405 0.000457
406 0.000463
407 0.000467
408 0.000471
409 0.000479
410 0.000477
411 0.000470
412 0.000464
413 0.000463
414 0.000464
415 0.000468
416 0.000470
417 0.000466
418 0.000466
419 0.000471
420 0.000474
421 0.000475
422 0.000473
423 0.000474
424 0.000470
425 0.000470
426 0.000478
427 0.000486
428 0.000489
429 0.000486
430 0.000486
431 0.000479
432 0.000476
433 0.000477
434 0.000478
435 0.000475
436 0.000468
437 0.000468
438 0.000472
439 0.000475
440 0.000472
441 0.000469
442 0.000467
443 0.000458
444 0.000454
445 0.000453
446 0.000452
447 0.000442
448 0.000432
449 0.000423
450 0.000416
451 0.000406
452 0.000394
453 0.000387
454 0.000381
455 0.000375
456 0.000366
457 0.000358
458 0.000352
459 0.000344
460 0.000345
461 0.000344
462 0.000344
463 0.000344
464 0.000348
465 0.000353
466 0.000359
467 0.000366
468 0.000371
469 0.000374
470 0.000383
471 0.000389
472 0.000385
473 0.000386
474 0.000383
475 0.000383
476 0.000390
477 0.000401
478 0.000411
479 0.000417
480 0.000423
481 0.000430
482 0.000433
483 0.000436
484 0.000439
485 0.000445
486 0.000453
487 0.000459
488 0.000459
489 0.000461
490 0.000463
491 0.000465
492 0.000466
493 0.000470
494 0.000473
495 0.000479
496 0.000484
497 0.000488
498 0.000492
499 0.000499
500 0.000500
501 0.000501
502 0.000499
503 0.000499
504 0.000505
505 0.000509
506 0.000509
507 0.000507
508 0.000502
509 0.000493
510 0.000489
511 0.000483
512 0.000479
513 0.000474
514 0.000474
515 0.000475
516 0.000472
517 0.000471
518 0.000478
519 0.000475
520 0.000474
521 0.000471
522 0.000470
523 0.000467
524 0.000457
525 0.000447
526 0.000442
527 0.000440
528 0.000437
529 0.000435
530 0.000429
531 0.000427
532 0.000425
533 0.000423
534 0.000418
535 0.000410
536 0.000401
537 0.000395
538 0.000388
539 0.000383
540 0.000382
541 0.000379
542 0.000374
543 0.000373
544 0.000379
545 0.000385
546 0.000387
547 0.000388
548 0.000385
549 0.000380
550 0.000371
551 0.000365
552 0.000366
553 0.000367
554 0.000368
555 0.000367
556 0.000364
557 0.000361
558 0.000363
559 0.000366
560 0.000370
561 0.000373
562 0.000376
563 0.000377
564 0.000378
565 0.000381
566 0.000384
567 0.000381
568 0.000374
569 0.000368
570 0.000363
571 0.000362
572 0.000363
573 0.000359
574 0.000351
575 0.000342
576 0.000335
577 0.000328
578 0.000324
579 0.000318
580 0.000311
581 0.000301
582 0.000293
583 0.000285
584 0.000276
585 0.000269
586 0.000258
587 0.000246
588 0.000238
589 0.000234
590 0.000233
591 0.000229
592 0.000225
593 0.000227
594 0.000231
595 0.000233
596 0.000234
597 0.000234
598 0.000233
599 0.000228
600 0.000224
601 0.000222
602 0.000217
603 0.000215
604 0.000213
605 0.000212
606 0.000207
607 0.000204
608 0.000198
609 0.000195
610 0.000192
611 0.000191
612 0.000194
613 0.000198
614 0.000197
615 0.000198
616 0.000203
617 0.000208
618 0.000212
619 0.000209
620 0.000206
621 0.000206
622 0.000209
623 0.000213
624 0.000211
625 0.000210
626 0.000207
627 0.000202
628 0.000202
629 0.000203
630 0.000207
631 0.000204
632 0.000200
633 0.000195
634 0.000195
635 0.000197
636 0.000201
637 0.000206
638 0.000203
639 0.000199
640 0.000196
641 0.000195
642 0.000198
643 0.000199
644 0.000200
645 0.000202
646 0.000205
647 0.000207
648 0.000206
649 0.000202
650 0.000198
651 0.000194
652 0.000193
653 0.000193
654 0.000192
655 0.000194
656 0.000196
657 0.000195
658 0.000195
659 0.000190
660 0.000183
661 0.000179
662 0.000177
663 0.000174
664 0.000172
665 0.000171
666 0.000172
667 0.000172
668 0.000169
669 0.000162
670 0.000155
671 0.000155
672 0.000151
673 0.000154
674 0.000158
675 0.000162
676 0.000163
677 0.000170
678 0.000174
679 0.000179
680 0.000184
681 0.000191
682 0.000195
683 0.000202
684 0.000204
685 0.000211
686 0.000218
687 0.000220
688 0.000220
689 0.000223
690 0.000231
691 0.000232
692 0.000234
693 0.000235
694 0.000240
695 0.000244
696 0.000250
697 0.000256
698 0.000260
699 0.000260
700 0.000254
701 0.000247
702 0.000243
703 0.000242
704 0.000243
705 0.000244
706 0.000247
707 0.000249
708 0.000249
709 0.000245
710 0.000245
711 0.000244
712 0.000244
713 0.000244
714 0.000248
715 0.000250
716 0.000251
717 0.000252
718 0.000256
719 0.000256
720 0.000261
721 0.000262
722 0.000260
723 0.000260
724 0.000262
725 0.000261
726 0.000259
727 0.000256
728 0.000253
729 0.000249
730 0.000245
731 0.000241
732 0.000238
733 0.000231
734 0.000228
735 0.000227
736 0.000228
737 0.000227
738 0.000223
739 0.000214
740 0.000203
741 0.000195
742 0.000187
743 0.000180
744 0.000175
745 0.000170
746 0.000165
747 0.000163
748 0.000163
749 0.000160
750 0.000157
751 0.000150
752 0.000144
753 0.000141
754 0.000137
755 0.000134
756 0.000131
757 0.000131
758 0.000132
759 0.000133
760 0.000132
761 0.000135
762 0.000136
763 0.000136
764 0.000136
765 0.000136
766 0.000138
767 0.000139
768 0.000143
769 0.000143
770 0.000145
771 0.000143
772 0.000143
773 0.000146
774 0.000147
775 0.000152
776 0.000153
777 0.000152
778 0.000150
779 0.000151
780 0.000150
781 0.000148
782 0.000142
783 0.000137
784 0.000136
785 0.000139
786 0.000141
787 0.000141
788 0.000142
789 0.000137
790 0.000133
791 0.000126
792 0.000118
793 0.000113
794 0.000110
795 0.000110
796 0.000109
797 0.000108
798 0.000107
799 0.000104
800 0.000098
801 0.000092
802 0.000089
803 0.000086
804 0.000084
805 0.000079
806 0.000077
807 0.000075
808 0.000075
809 0.000075
