# i correlation
1 0.001411
2 0.001340
3 0.001274
4 0.001221
5 0.001175
6 0.001145
7 0.001120
8 0.001102
9 0.001089
10 0.001080
11 0.001081
12 0.001085
13 0.001083
14 0.001083
15 0.001074
16 0.001065
17 0.001051
18 0.001035
19 0.001016
20 0.000997
21 0.000975
22 0.000959
23 0.000946
24 0.000935
25 0.000931
26 0.000927
27 0.000924
28 0.000917
29 0.000910
30 0.000904
31 0.000899
32 0.000899
33 0.000899
34 0.000898
35 0.000900
36 0.000900
37 0.000897
38 0.000893
39 0.000889
40 0.000884
41 0.000873
42 0.000861
43 0.000857
44 0.000861
45 0.000862
46 0.000861
47 0.000862
48 0.000859
49 0.000853
50 0.000848
51 0.000844
52 0.000846
53 0.000846
54 0.000840
55 0.000832
56 0.000822
57 0.000809
58 0.000807
59 0.000799
60 0.000789
61 0.000783
62 0.000779
63 0.000772
64 0.000764
65 0.000762
66 0.000764
67 0.000768
68 0.000766
69 0.000760
70 0.000761
71 0.000757
72 0.000759
73 0.000758
74 0.000762
75 0.000757
76 0.000752
77 0.000743
78 0.000737
79 0.000734
80 0.000737
81 0.000739
82 0.000745
83 0.000746
84 0.000750
85 0.000751
86 0.000743
87 0.000735
88 0.000730
89 0.000731
90 0.000738
91 0.000744
92 0.000746
93 0.000744
94 0.000739
95 0.000729
96 0.000726
97 0.000725
98 0.000723
99 0.000725
100 0.000728
101 0.000724
102 0.000715
103 0.000706
104 0.000699
105 0.000692
106 0.000690
107 0.000691
108 0.000685
109 0.000686
110 0.000690
111 0.000698
112 0.000693
113 0.000691
114 0.000684
115 0.000683
116 0.000679
117 0.000676
118 0.000673
119 0.000670
120 0.000663
121 0.000656
122 0.000648
123 0.000639
124 0.000629
125 0.000629
126 0.000632
127 0.000636
128 0.000639
129 0.000644
130 0.000644
131 0.000645
132 0.000651
133 0.000654
134 0.000653
135 0.000646
136 0.000641
137 0.000634
138 0.000631
139 0.000630
140 0.000628
141 0.000628
142 0.000629
143 0.000629
144 0.000630
145 0.000630
146 0.000625
147 0.000620
148 0.000612
149 0.000595
150 0.000581
151 0.000574
152 0.000572
153 0.000567
154 0.000564
155 0.000559
156 0.000557
157 0.000556
158 0.000559
159 0.000561
160 0.000555
161 0.000552
162 0.000547
163 0.000536
164 0.000530
165 0.000529
166 0.000524
167 0.000524
168 0.000516
169 0.000508
170 0.000504
171 0.000504
172 0.000501
173 0.000495
174 0.000489
175 0.000485
176 0.000477
177 0.000469
178 0.000467
179 0.000464
180 0.000458
181 0.000459
182 0.000457
183 0.000460
184 0.000464
185 0.000466
186 0.000465
187 0.000461
188 0.000453
189 0.000451
190 0.000442
191 0.000436
192 0.000433
193 0.000433
194 0.000438
195 0.000448
196 0.000457
197 0.000461
198 0.000463
199 0.000461
200 0.000463
201 0.000464
202 0.000462
203 0.000456
204 0.000453
205 0.000454
206 0.000456
207 0.000458
208 0.000463
209 0.000470
210 0.000477
211 0.000479
212 0.000482
213 0.000473
214 0.000464
215 0.000454
216 0.000448
217 0.000442
218 0.000437
219 0.000429
220 0.000425
221 0.000417
222 0.000411
223 0.000409
224 0.000413
225 0.000417
226 0.000422
227 0.000419
228 0.000419
229 0.000413
230 0.000406
231 0.000394
232 0.000390
233 0.000382
234 0.000377
235 0.000370
236 0.000368
237 0.000368
238 0.000368
239 0.000368
240 0.000372
241 0.000377
242 0.000389
243 0.000399
244 0.000407
245 0.000412
246 0.000418
247 0.000422
248 0.000425
249 0.000423
250 0.000421
251 0.000418
252 0.000418
253 0.000413
254 0.000411
255 0.000411
256 0.000413
257 0.000416
258 0.000418
259 0.000421
260 0.000419
261 0.000422
262 0.000426
263 0.000429
264 0.000430
265 0.000427
266 0.000417
267 0.000405
268 0.000397
269 0.000388
270 0.000375
271 0.000366
272 0.000361
273 0.000358
274 0.000359
275 0.000361
276 0.000360
277 0.000355
278 0.000351
279 0.000350
280 0.000352
281 0.000353
282 0.000351
283 0.000345
284 0.000343
285 0.000339
286 0.000338
287 0.000332
288 0.000328
289 0.000321
290 0.000320
291 0.000321
292 0.000324
293 0.000324
294 0.000327
295 0.000328
296 0.000336
297 0.000339
298 0.000342
299 0.000342
300 0.000347
301 0.000347
302 0.000350
303 0.000344
304 0.000343
305 0.000340
306 0.000334
307 0.000333
308 0.000333
309 0.000334
310 0.000336
311 0.000339
312 0.000337
313 0.000337
314 0.000337
315 0.000335
316 0.000334
317 0.000338
318 0.000338
319 0.000335
320 0.000330
321 0.000325
322 0.000322
323 0.000317
324 0.000308
325 0.000300
326 0.000296
327 0.000294
328 0.000291
329 0.000291
330 0.000287
331 0.000284
332 0.000282
333 0.000281
334 0.000281
335 0.000280
336 0.000281
337 0.000287
338 0.000289
339 0.000292
340 0.000302
341 0.000314
342 0.000328
343 0.000342
344 0.000353
345 0.000358
346 0.000354
347 0.000348
348 0.000343
349 0.000336
350 0.000327
351 0.000321
352 0.000314
353 0.000314
354 0.000325
355 0.000336
356 0.000350
357 0.000364
358 0.000377
359 0.000384
360 0.000383
361 0.000383
362 0.000382
363 0.000382
364 0.000376
365 0.000371
366 0.000368
367 0.000367
368 0.000366
369 0.000367
370 0.000367
371 0.000365
372 0.000372
373 0.000381
374 0.000385
375 0.000389
376 0.000391
377 0.000388
378 0.000380
379 0.000371
380 0.000365
381 0.000361
382 0.000356
383 0.000349
384 0.000347
385 0.000347
386 0.000346
387 0.000350
388 0.000351
389 0.000356
390 0.000365
391 0.000375
392 0.000380
393 0.000379
394 0.000377
395 0.000377
396 0.000375
397 0.000370
398 0.000363
399 0.000358
400 0.000346
401 0.000340
402 0.000337
403 0.000341
404 0.000343
405 0.000342
406 0.000343
407 0.000350
408 0.000349
409 0.000356
410 0.000358
411 0.000361
412 0.000358
413 0.000361
414 0.000363
415 0.000365
416 0.000363
417 0.000363
418 0.000359
419 0.000355
420 0.000350
421 0.000350
422 0.000348
423 0.000348
424 0.000348
425 0.000348
426 0.000350
427 0.000354
428 0.000359
429 0.000359
430 0.000358
431 0.000352
432 0.000349
433 0.000349
434 0.000347
435 0.000341
436 0.000337
437 0.000330
438 0.000325
439 0.000325
440 0.000328
441 0.000327
442 0.000326
443 0.000324
444 0.000325
445 0.000326
446 0.000327
447 0.000324
448 0.000320
449 0.000316
450 0.000313
451 0.000310
452 0.000312
453 0.000316
454 0.000321
455 0.000325
456 0.000323
457 0.000322
458 0.000325
459 0.000332
460 0.000338
461 0.000340
462 0.000339
463 0.000335
464 0.000329
465 0.000328
466 0.000328
467 0.000327
468 0.000329
469 0.000334
470 0.000337
471 0.000342
472 0.000348
473 0.000349
474 0.000349
475 0.000344
476 0.000341
477 0.000341
478 0.000341
479 0.000339
480 0.000339
481 0.000340
482 0.000336
483 0.000334
484 0.000331
485 0.000332
486 0.000330
487 0.000330
488 0.000328
489 0.000329
490 0.000328
491 0.000331
492 0.000334
493 0.000334
494 0.000332
495 0.000333
496 0.000331
497 0.000327
498 0.000326
499 0.000326
500 0.000328
501 0.000326
502 0.000322
503 0.000319
504 0.000317
505 0.000318
506 0.000322
507 0.000326
508 0.000328
509 0.000327
510 0.000325
511 0.000323
512 0.000325
513 0.000325
514 0.000325
515 0.000323
516 0.000325
517 0.000324
518 0.000326
519 0.000325
520 0.000327
521 0.000329
522 0.000324
523 0.000317
524 0.000314
525 0.000311
526 0.000303
527 0.000300
528 0.000296
529 0.000295
530 0.000297
531 0.000297
532 0.000297
533 0.000293
534 0.000285
535 0.000272
536 0.000264
537 0.000257
538 0.000251
539 0.000248
540 0.000247
541 0.000244
542 0.000236
543 0.000233
544 0.000229
545 0.000229
546 0.000225
547 0.000222
548 0.000218
549 0.000208
550 0.000205
551 0.000206
552 0.000210
553 0.000214
554 0.000219
555 0.000222
556 0.000220
557 0.000218
558 0.000215
559 0.000218
560 0.000221
561 0.000223
562 0.000223
563 0.000220
564 0.000215
565 0.000217
566 0.000220
567 0.000219
568 0.000221
569 0.000220
570 0.000218
571 0.000221
572 0.000224
573 0.000228
574 0.000236
575 0.000237
576 0.000233
577 0.000229
578 0.000226
579 0.000224
580 0.000225
581 0.000227
582 0.000231
583 0.000232
584 0.000230
585 0.000232
586 0.000234
587 0.000236
588 0.000240
589 0.000240
590 0.000239
591 0.000237
592 0.000237
593 0.000237
594 0.000234
595 0.000229
596 0.000223
597 0.000219
598 0.000220
599 0.000226
600 0.000231
601 0.000238
602 0.000241
603 0.000240
604 0.000240
605 0.000246
606 0.000252
607 0.000256
608 0.000257
609 0.000255
610 0.000249
611 0.000247
612 0.000245
613 0.000248
614 0.000254
615 0.000260
616 0.000265
617 0.000269
618 0.000272
619 0.000273
620 0.000273
621 0.000275
622 0.000276
623 0.000274
624 0.000271
625 0.000269
626 0.000265
627 0.000266
628 0.000263
629 0.000257
630 0.000251
631 0.000245
632 0.000238
633 0.000233
634 0.000232
635 0.000228
636 0.000225
637 0.000223
638 0.000221
639 0.000223
640 0.000226
641 0.000231
642 0.000231
643 0.000231
644 0.000227
645 0.000221
646 0.000211
647 0.000201
648 0.000193
649 0.000188
650 0.000185
651 0.000185
652 0.000191
653 0.000197
654 0.000202
655 0.000206
656 0.000210
657 0.000213
658 0.000217
659 0.000221
660 0.000223
661 0.000223
662 0.000219
663 0.000215
664 0.000213
665 0.000213
666 0.000216
667 0.000216
668 0.000215
669 0.000212
670 0.000210
671 0.000209
672 0.000213
673 0.000216
674 0.000219
675 0.000222
676 0.000223
677 0.000224
678 0.000228
679 0.000230
680 0.000231
681 0.000229
682 0.000229
683 0.000229
684 0.000228
685 0.000228
686 0.000228
687 0.000225
688 0.000224
689 0.000226
690 0.000227
691 0.000228
692 0.000229
693 0.000225
694 0.000218
695 0.000212
696 0.000209
697 0.000212
698 0.000214
699 0.000221
700 0.000221
701 0.000222
702 0.000218
703 0.000213
704 0.000207
705 0.000203
706 0.000203
707 0.000207
708 0.000210
709 0.000208
710 0.000203
711 0.000198
712 0.000193
713 0.000188
714 0.000183
715 0.000179
716 0.000177
717 0.000175
718 0.000174
719 0.000177
720 0.000180
721 0.000182
722 0.000180
723 0.000174
724 0.000175
725 0.000178
726 0.000178
727 0.000179
728 0.000175
729 0.000168
730 0.000158
731 0.000149
732 0.000144
733 0.000143
734 0.000145
735 0.000146
736 0.000151
737 0.000150
738 0.000148
739 0.000141
740 0.000135
741 0.000131
742 0.000125
743 0.000121
744 0.000119
745 0.000116
746 0.000114
747 0.000111
748 0.000107
749 0.000104
750 0.000106
751 0.000104
752 0.000103
753 0.000102
754 0.000100
755 0.000099
756 0.000098
757 0.000097
758 0.000096
759 0.000100
760 0.000103
761 0.000102
762 0.000099
763 0.000099
764 0.000098
765 0.000095
766 0.000091
767 0.000085
768 0.000081
769 0.000078
770 0.000078
771 0.000081
772 0.000086
773 0.000096
774 0.000100
775 0.000101
776 0.000100
777 0.000096
778 0.000091
779 0.000087
780 0.000083
781 0.000080
782 0.000080
783 0.000081
784 0.000078
785 0.000073
786 0.000070
787 0.000066
788 0.000061
789 0.000060
790 0.000060
791 0.000060
792 0.000061
793 0.000060
794 0.000062
795 0.000062
796 0.000061
797 0.000061
798 0.000060
799 0.000061
800 0.000062
801 0.000062
802 0.000061
803 0.000059
804 0.000054
805 0.000048
806 0.000045
807 0.000041
808 0.000042
809 0.000044
