# i correlation
1 0.001780
2 0.001712
3 0.001660
4 0.001617
5 0.001577
6 0.001546
7 0.001510
8 0.001485
9 0.001468
10 0.001448
11 0.001433
12 0.001415
13 0.001392
14 0.001371
15 0.001352
16 0.001336
17 0.001326
18 0.001321
19 0.001308
20 0.001295
21 0.001288
22 0.001282
23 0.001280
24 0.001269
25 0.001257
26 0.001247
27 0.001240
28 0.001234
29 0.001226
30 0.001213
31 0.001199
32 0.001189
33 0.001181
34 0.001172
35 0.001168
36 0.001167
37 0.001164
38 0.001151
39 0.001146
40 0.001143
41 0.001143
42 0.001136
43 0.001129
44 0.001114
45 0.001101
46 0.001083
47 0.001068
48 0.001051
49 0.001034
50 0.001021
51 0.001017
52 0.001021
53 0.001018
54 0.001017
55 0.001017
56 0.001013
57 0.001008
58 0.001000
59 0.000995
60 0.000984
61 0.000976
62 0.000963
63 0.000959
64 0.000957
65 0.000959
66 0.000955
67 0.000946
68 0.000943
69 0.000938
70 0.000931
71 0.000914
72 0.000898
73 0.000884
74 0.000874
75 0.000872
76 0.000864
77 0.000860
78 0.000859
79 0.000865
80 0.000866
81 0.000867
82 0.000874
83 0.000878
84 0.000877
85 0.000861
86 0.000855
87 0.000850
88 0.000850
89 0.000846
90 0.000840
91 0.000833
92 0.000832
93 0.000831
94 0.000829
95 0.000828
96 0.000830
97 0.000834
98 0.000843
99 0.000844
100 0.000843
101 0.000849
102 0.000854
103 0.000851
104 0.000849
105 0.000851
106 0.000841
107 0.000832
108 0.000819
109 0.000811
110 0.000804
111 0.000809
112 0.000809
113 0.000804
114 0.000794
115 0.000792
116 0.000788
117 0.000783
118 0.000778
119 0.000783
120 0.000791
121 0.000796
122 0.000795
123 0.000793
124 0.000784
125 0.000784
126 0.000781
127 0.000776
128 0.000762
129 0.000751
130 0.000740
131 0.000737
132 0.000730
133 0.000722
134 0.000718
135 0.000707
136 0.000702
137 0.000691
138 0.000690
139 0.000681
140 0.000679
141 0.000677
142 0.000675
143 0.000674
144 0.000676
145 0.000680
146 0.000676
147 0.000669
148 0.000669
149 0.000670
150 0.000670
151 0.000669
152 0.000663
153 0.000657
154 0.000653
155 0.000647
156 0.000641
157 0.000636
158 0.000636
159 0.000645
160 0.000647
161 0.000644
162 0.000645
163 0.000645
164 0.000637
165 0.000628
166 0.000622
167 0.000613
168 0.000609
169 0.000603
170 0.000606
171 0.000607
172 0.000605
173 0.000599
174 0.000597
175 0.000589
176 0.000575
177 0.000569
178 0.000561
179 0.000555
180 0.000559
181 0.000569
182 0.000579
183 0.000588
184 0.000593
185 0.000595
186 0.000608
187 0.000614
188 0.000614
189 0.000608
190 0.000605
191 0.000600
192 0.000596
193 0.000597
194 0.000593
195 0.000593
196 0.000591
197 0.000589
198 0.000581
199 0.000575
200 0.000570
201 0.000566
202 0.000564
203 0.000572
204 0.000582
205 0.000592
206 0.000600
207 0.000605
208 0.000605
209 0.000607
210 0.000604
211 0.000597
212 0.000583
213 0.000576
214 0.000574
215 0.000572
216 0.000570
217 0.000565
218 0.000563
219 0.000555
220 0.000552
221 0.000543
222 0.000539
223 0.000540
224 0.000545
225 0.000548
226 0.000556
227 0.000566
228 0.000577
229 0.000585
230 0.000585
231 0.000583
232 0.000587
233 0.000590
234 0.000590
235 0.000586
236 0.000584
237 0.000577
238 0.000579
239 0.000578
240 0.000574
241 0.000568
242 0.000565
243 0.000559
244 0.000554
245 0.000555
246 0.000561
247 0.000567
248 0.000565
249 0.000566
250 0.000569
251 0.000571
252 0.000570
253 0.000570
254 0.000560
255 0.000546
256 0.000536
257 0.000531
258 0.000525
259 0.000518
260 0.000513
261 0.000516
262 0.000519
263 0.000520
264 0.000525
265 0.000533
266 0.000540
267 0.000540
268 0.000543
269 0.000543
270 0.000542
271 0.000542
272 0.000547
273 0.000545
274 0.000538
275 0.000534
276 0.000537
277 0.000535
278 0.000531
279 0.000530
280 0.000519
281 0.000514
282 0.000513
283 0.000508
284 0.000502
285 0.000502
286 0.000502
287 0.000499
288 0.000497
289 0.000497
290 0.000496
291 0.000496
292 0.000491
293 0.000484
294 0.000474
295 0.000467
296 0.000452
297 0.000444
298 0.000438
299 0.000433
300 0.000428
301 0.000424
302 0.000432
303 0.000439
304 0.000446
305 0.000452
306 0.000459
307 0.000467
308 0.000480
309 0.000484
310 0.000487
311 0.000485
312 0.000483
313 0.000484
314 0.000483
315 0.000484
316 0.000485
317 0.000484
318 0.000483
319 0.000479
320 0.000472
321 0.000466
322 0.000459
323 0.000443
324 0.000429
325 0.000422
326 0.000417
327 0.000410
328 0.000408
329 0.000411
330 0.000419
331 0.000425
332 0.000426
333 0.000427
334 0.000430
335 0.000433
336 0.000433
337 0.000429
338 0.000420
339 0.000412
340 0.000408
341 0.000406
342 0.000395
343 0.000387
344 0.000381
345 0.000380
346 0.000380
347 0.000380
348 0.000380
349 0.000378
350 0.000370
351 0.000370
352 0.000372
353 0.000369
354 0.000368
355 0.000370
356 0.000374
357 0.000377
358 0.000383
359 0.000386
360 0.000389
361 0.000387
362 0.000386
363 0.000380
364 0.000373
365 0.000370
366 0.000367
367 0.000360
368 0.000354
369 0.000354
370 0.000357
371 0.000356
372 0.000354
373 0.000356
374 0.000359
375 0.000355
376 0.000349
377 0.000348
378 0.000348
379 0.000346
380 0.000344
381 0.000345
382 0.000341
383 0.000342
384 0.000345
385 0.000344
386 0.000339
387 0.000340
388 0.000342
389 0.000342
390 0.000343
391 0.000346
392 0.000346
393 0.000341
394 0.000336
395 0.000330
396 0.000326
397 0.000325
398 0.000325
399 0.000324
400 0.000323
401 0.000320
402 0.000317
403 0.000309
404 0.000303
405 0.000299
406 0.000294
407 0.000285
408 0.000276
409 0.000269
410 0.000263
411 0.000261
412 0.000256
413 0.000259
414 0.000261
415 0.000259
416 0.000256
417 0.000256
418 0.000252
419 0.000250
420 0.000249
421 0.000251
422 0.000254
423 0.000259
424 0.000260
425 0.000261
426 0.000259
427 0.000259
428 0.000258
429 0.000256
430 0.000252
431 0.000254
432 0.000254
433 0.000258
434 0.000263
435 0.000272
436 0.000280
437 0.000284
438 0.000282
439 0.000283
440 0.000286
441 0.000291
442 0.000296
443 0.000297
444 0.000296
445 0.000292
446 0.000288
447 0.000281
448 0.000276
449 0.000272
450 0.000270
451 0.000274
452 0.000279
453 0.000283
454 0.000287
455 0.000289
456 0.000294
457 0.000294
458 0.000297
459 0.000294
460 0.000294
461 0.000291
462 0.000290
463 0.000290
464 0.000289
465 0.000281
466 0.000277
467 0.000275
468 0.000269
469 0.000266
470 0.000259
471 0.000254
472 0.000251
473 0.000249
474 0.000250
475 0.000251
476 0.000255
477 0.000259
478 0.000263
479 0.000264
480 0.000266
481 0.000267
482 0.000270
483 0.000269
484 0.000269
485 0.000272
486 0.000274
487 0.000271
488 0.000272
489 0.000273
490 0.000272
491 0.000270
492 0.000274
493 0.000277
494 0.000278
495 0.000280
496 0.000288
497 0.000293
498 0.000293
499 0.000296
500 0.000306
501 0.000309
502 0.000305
503 0.000307
504 0.000307
505 0.000310
506 0.000316
507 0.000317
508 0.000316
509 0.000319
510 0.000324
511 0.000335
512 0.000348
513 0.000353
514 0.000354
515 0.000357
516 0.000359
517 0.000364
518 0.000373
519 0.000382
520 0.000384
521 0.000392
522 0.000394
523 0.000399
524 0.000402
525 0.000401
526 0.000398
527 0.000387
528 0.000379
529 0.000371
530 0.000364
531 0.000351
532 0.000341
533 0.000337
534 0.000334
535 0.000334
536 0.000336
537 0.000338
538 0.000341
539 0.000346
540 0.000352
541 0.000361
542 0.000372
543 0.000376
544 0.000387
545 0.000392
546 0.000396
547 0.000402
548 0.000409
549 0.000413
550 0.000418
551 0.000425
552 0.000429
553 0.000431
554 0.000431
555 0.000431
556 0.000432
557 0.000436
558 0.000438
559 0.000436
560 0.000432
561 0.000428
562 0.000421
563 0.000418
564 0.000417
565 0.000418
566 0.000420
567 0.000421
568 0.000426
569 0.000427
570 0.000423
571 0.000424
572 0.000423
573 0.000421
574 0.000419
575 0.000416
576 0.000415
577 0.000414
578 0.000413
579 0.000414
580 0.000415
581 0.000419
582 0.000421
583 0.000424
584 0.000426
585 0.000428
586 0.000430
587 0.000436
588 0.000437
589 0.000440
590 0.000438
591 0.000434
592 0.000428
593 0.000422
594 0.000426
595 0.000429
596 0.000431
597 0.000434
598 0.000440
599 0.000440
600 0.000439
601 0.000439
602 0.000440
603 0.000441
604 0.000439
605 0.000439
606 0.000434
607 0.000436
608 0.000439
609 0.000442
610 0.000446
611 0.000446
612 0.000444
613 0.000446
614 0.000444
615 0.000441
616 0.000438
617 0.000438
618 0.000437
619 0.000437
620 0.000433
621 0.000427
622 0.000426
623 0.000429
624 0.000435
625 0.000438
626 0.000441
627 0.000442
628 0.000442
629 0.000437
630 0.000433
631 0.000430
632 0.000427
633 0.000423
634 0.000420
635 0.000415
636 0.000410
637 0.000412
638 0.000416
639 0.000416
640 0.000413
641 0.000413
642 0.000414
643 0.000414
644 0.000412
645 0.000411
646 0.000412
647 0.000411
648 0.000407
649 0.000404
650 0.000402
651 0.000403
652 0.000400
653 0.000395
654 0.000387
655 0.000387
656 0.000385
657 0.000384
658 0.000374
659 0.000365
660 0.000360
661 0.000355
662 0.000353
663 0.000352
664 0.000349
665 0.000344
666 0.000341
667 0.000341
668 0.000342
669 0.000348
670 0.000355
671 0.000365
672 0.000371
673 0.000377
674 0.000380
675 0.000380
676 0.000375
677 0.000372
678 0.000372
679 0.000371
680 0.000374
681 0.000371
682 0.000370
683 0.000371
684 0.000370
685 0.000364
686 0.000360
687 0.000355
688 0.000351
689 0.000344
690 0.000334
691 0.000324
692 0.000322
693 0.000319
694 0.000315
695 0.000307
696 0.000302
697 0.000298
698 0.000293
699 0.000285
700 0.000281
701 0.000274
702 0.000265
703 0.000262
704 0.000258
705 0.000256
706 0.000257
707 0.000258
708 0.000259
709 0.000264
710 0.000265
711 0.000265
712 0.000266
713 0.000260
714 0.000259
715 0.000255
716 0.000253
717 0.000246
718 0.000234
719 0.000223
720 0.000214
721 0.000209
722 0.000208
723 0.000206
724 0.000201
725 0.000197
726 0.000192
727 0.000188
728 0.000188
729 0.000189
730 0.000189
731 0.000184
732 0.000178
733 0.000172
734 0.000168
735 0.000166
736 0.000159
737 0.000153
738 0.000150
739 0.000155
740 0.000157
741 0.000156
742 0.000156
743 0.000155
744 0.000156
745 0.000156
746 0.000157
747 0.000156
748 0.000154
749 0.000152
750 0.000150
751 0.000151
752 0.000148
753 0.000147
754 0.000146
755 0.000144
756 0.000142
757 0.000146
758 0.000150
759 0.000151
760 0.000148
761 0.000144
762 0.000146
763 0.000146
764 0.000145
765 0.000144
766 0.000146
767 0.000146
768 0.000149
769 0.000155
770 0.000157
771 0.000160
772 0.000162
773 0.000163
774 0.000162
775 0.000164
776 0.000168
777 0.000174
778 0.000176
779 0.000178
780 0.000177
781 0.000177
782 0.000177
783 0.000178
784 0.000183
785 0.000187
786 0.000189
787 0.000192
788 0.000191
789 0.000188
790 0.000183
791 0.000184
792 0.000185
793 0.000186
794 0.000184
795 0.000183
796 0.000182
797 0.000183
798 0.000184
799 0.000180
800 0.000175
801 0.000167
802 0.000161
803 0.000160
804 0.000159
805 0.000161
806 0.000160
807 0.000161
808 0.000160
809 0.000161
