# i correlation
1 0.001812
2 0.001752
3 0.001700
4 0.001659
5 0.001616
6 0.001583
7 0.001551
8 0.001516
9 0.001485
10 0.001451
11 0.001416
12 0.001392
13 0.001368
14 0.001348
15 0.001342
16 0.001332
17 0.001322
18 0.001305
19 0.001294
20 0.001286
21 0.001276
22 0.001266
23 0.001254
24 0.001243
25 0.001231
26 0.001220
27 0.001208
28 0.001206
29 0.001204
30 0.001200
31 0.001190
32 0.001179
33 0.001166
34 0.001152
35 0.001140
36 0.001135
37 0.001141
38 0.001142
39 0.001139
40 0.001133
41 0.001126
42 0.001118
43 0.001114
44 0.001102
45 0.001090
46 0.001080
47 0.001070
48 0.001061
49 0.001055
50 0.001048
51 0.001038
52 0.001033
53 0.001037
54 0.001032
55 0.001023
56 0.001019
57 0.001016
58 0.001015
59 0.001016
60 0.001015
61 0.001006
62 0.001001
63 0.000999
64 0.000992
65 0.000988
66 0.000991
67 0.000992
68 0.000993
69 0.000994
70 0.000996
71 0.000996
72 0.000998
73 0.001000
74 0.001002
75 0.001000
76 0.001000
77 0.001000
78 0.000998
79 0.000991
80 0.000983
81 0.000985
82 0.000985
83 0.000982
84 0.000978
85 0.000977
86 0.000969
87 0.000961
88 0.000953
89 0.000948
90 0.000947
91 0.000948
92 0.000939
93 0.000932
94 0.000923
95 0.000917
96 0.000917
97 0.000915
98 0.000914
99 0.000900
100 0.000886
101 0.000871
102 0.000852
103 0.000836
104 0.000818
105 0.000803
106 0.000789
107 0.000780
108 0.000772
109 0.000763
110 0.000757
111 0.000753
112 0.000754
113 0.000750
114 0.000749
115 0.000754
116 0.000749
117 0.000743
118 0.000748
119 0.000739
120 0.000732
121 0.000729
122 0.000732
123 0.000727
124 0.000726
125 0.000717
126 0.000708
127 0.000709
128 0.000704
129 0.000697
130 0.000692
131 0.000683
132 0.000672
133 0.000664
134 0.000661
135 0.000661
136 0.000663
137 0.000662
138 0.000658
139 0.000660
140 0.000662
141 0.000667
142 0.000670
143 0.000675
144 0.000682
145 0.000685
146 0.000682
147 0.000671
148 0.000662
149 0.000651
150 0.000639
151 0.000632
152 0.000623
153 0.000618
154 0.000613
155 0.000613
156 0.000606
157 0.000603
158 0.000601
159 0.000599
160 0.000596
161 0.000601
162 0.000600
163 0.000599
164 0.000600
165 0.000609
166 0.000617
167 0.000627
168 0.000634
169 0.000634
170 0.000635
171 0.000640
172 0.000652
173 0.000663
174 0.000678
175 0.000689
176 0.000691
177 0.000694
178 0.000695
179 0.000688
180 0.000682
181 0.000679
182 0.000681
183 0.000680
184 0.000681
185 0.000681
186 0.000678
187 0.000674
188 0.000668
189 0.000661
190 0.000652
191 0.000636
192 0.000628
193 0.000625
194 0.000626
195 0.000617
196 0.000618
197 0.000618
198 0.000618
199 0.000617
200 0.000618
201 0.000619
202 0.000620
203 0.000620
204 0.000622
205 0.000636
206 0.000650
207 0.000646
208 0.000643
209 0.000643
210 0.000633
211 0.000629
212 0.000625
213 0.000625
214 0.000622
215 0.000616
216 0.000608
217 0.000605
218 0.000605
219 0.000601
220 0.000594
221 0.000593
222 0.000588
223 0.000580
224 0.000569
225 0.000566
226 0.000565
227 0.000562
228 0.000560
229 0.000559
230 0.000557
231 0.000559
232 0.000558
233 0.000561
234 0.000567
235 0.000571
236 0.000572
237 0.000571
238 0.000571
239 0.000571
240 0.000573
241 0.000574
242 0.000583
243 0.000592
244 0.000592
245 0.000594
246 0.000598
247 0.000601
248 0.000608
249 0.000611
250 0.000615
251 0.000614
252 0.000618
253 0.000618
254 0.000625
255 0.000631
256 0.000634
257 0.000637
258 0.000643
259 0.000652
260 0.000660
261 0.000659
262 0.000658
263 0.000658
264 0.000661
265 0.000665
266 0.000664
267 0.000661
268 0.000654
269 0.000648
270 0.000642
271 0.000637
272 0.000630
273 0.000622
274 0.000610
275 0.000606
276 0.000597
277 0.000580
278 0.000566
279 0.000555
280 0.000543
281 0.000531
282 0.000522
283 0.000515
284 0.000509
285 0.000504
286 0.000500
287 0.000497
288 0.000497
289 0.000491
290 0.000493
291 0.000489
292 0.000482
293 0.000472
294 0.000460
295 0.000447
296 0.000438
297 0.000437
298 0.000438
299 0.000442
300 0.000439
301 0.000438
302 0.000442
303 0.000446
304 0.000449
305 0.000453
306 0.000458
307 0.000456
308 0.000453
309 0.000446
310 0.000439
311 0.000430
312 0.000428
313 0.000427
314 0.000429
315 0.000433
316 0.000440
317 0.000442
318 0.000444
319 0.000449
320 0.000454
321 0.000468
322 0.000478
323 0.000489
324 0.000498
325 0.000500
326 0.000495
327 0.000498
328 0.000508
329 0.000521
330 0.000533
331 0.000543
332 0.000550
333 0.000555
334 0.000554
335 0.000551
336 0.000552
337 0.000551
338 0.000548
339 0.000550
340 0.000549
341 0.000548
342 0.000547
343 0.000550
344 0.000552
345 0.000556
346 0.000557
347 0.000559
348 0.000557
349 0.000561
350 0.000565
351 0.000566
352 0.000572
353 0.000575
354 0.000576
355 0.000573
356 0.000575
357 0.000575
358 0.000579
359 0.000579
360 0.000580
361 0.000579
362 0.000579
363 0.000571
364 0.000563
365 0.000556
366 0.000548
367 0.000539
368 0.000529
369 0.000519
370 0.000511
371 0.000498
372 0.000495
373 0.000489
374 0.000486
375 0.000481
376 0.000480
377 0.000477
378 0.000475
379 0.000472
380 0.000465
381 0.000463
382 0.000460
383 0.000461
384 0.000466
385 0.000464
386 0.000458
387 0.000454
388 0.000454
389 0.000451
390 0.000448
391 0.000446
392 0.000442
393 0.000433
394 0.000422
395 0.000416
396 0.000416
397 0.000411
398 0.000407
399 0.000407
400 0.000407
401 0.000406
402 0.000408
403 0.000410
404 0.000407
405 0.000408
406 0.000416
407 0.000420
408 0.000426
409 0.000426
410 0.000420
411 0.000421
412 0.000420
413 0.000417
414 0.000416
415 0.000424
416 0.000427
417 0.000432
418 0.000435
419 0.000441
420 0.000442
421 0.000449
422 0.000451
423 0.000446
424 0.000439
425 0.000433
426 0.000431
427 0.000435
428 0.000440
429 0.000445
430 0.000446
431 0.000450
432 0.000450
433 0.000450
434 0.000457
435 0.000463
436 0.000469
437 0.000471
438 0.000473
439 0.000474
440 0.000477
441 0.000480
442 0.000483
443 0.000487
444 0.000492
445 0.000492
446 0.000494
447 0.000495
448 0.000503
449 0.000512
450 0.000516
451 0.000519
452 0.000519
453 0.000517
454 0.000515
455 0.000514
456 0.000508
457 0.000502
458 0.000499
459 0.000494
460 0.000489
461 0.000484
462 0.000474
463 0.000462
464 0.000452
465 0.000446
466 0.000438
467 0.000428
468 0.000421
469 0.000415
470 0.000409
471 0.000403
472 0.000396
473 0.000391
474 0.000389
475 0.000385
476 0.000382
477 0.000379
478 0.000374
479 0.000367
480 0.000363
481 0.000363
482 0.000358
483 0.000354
484 0.000352
485 0.000346
486 0.000337
487 0.000330
488 0.000329
489 0.000329
490 0.000334
491 0.000338
492 0.000337
493 0.000338
494 0.000341
495 0.000341
496 0.000343
497 0.000343
498 0.000345
499 0.000349
500 0.000353
501 0.000354
502 0.000355
503 0.000356
504 0.000355
505 0.000354
506 0.000358
507 0.000358
508 0.000359
509 0.000358
510 0.000359
511 0.000363
512 0.000367
513 0.000373
514 0.000379
515 0.000385
516 0.000387
517 0.000395
518 0.000404
519 0.000413
520 0.000421
521 0.000426
522 0.000426
523 0.000426
524 0.000424
525 0.000424
526 0.000421
527 0.000423
528 0.000419
529 0.000418
530 0.000421
531 0.000417
532 0.000414
533 0.000412
534 0.000416
535 0.000416
536 0.000418
537 0.000417
538 0.000415
539 0.000415
540 0.000414
541 0.000413
542 0.000413
543 0.000410
544 0.000408
545 0.000403
546 0.000398
547 0.000393
548 0.000384
549 0.000378
550 0.000372
551 0.000370
552 0.000364
553 0.000358
554 0.000349
555 0.000341
556 0.000337
557 0.000337
558 0.000338
559 0.000334
560 0.000327
561 0.000321
562 0.000318
563 0.000315
564 0.000315
565 0.000314
566 0.000319
567 0.000321
568 0.000317
569 0.000307
570 0.000303
571 0.000301
572 0.000301
573 0.000309
574 0.000311
575 0.000311
576 0.000308
577 0.000310
578 0.000309
579 0.000307
580 0.000305
581 0.000304
582 0.000301
583 0.000302
584 0.000298
585 0.000290
586 0.000281
587 0.000277
588 0.000274
589 0.000274
590 0.000276
591 0.000277
592 0.000280
593 0.000282
594 0.000281
595 0.000284
596 0.000291
597 0.000291
598 0.000288
599 0.000282
600 0.000272
601 0.000260
602 0.000248
603 0.000240
604 0.000233
605 0.000229
606 0.000223
607 0.000218
608 0.000214
609 0.000210
610 0.000206
611 0.000202
612 0.000202
613 0.000204
614 0.000209
615 0.000214
616 0.000221
617 0.000226
618 0.000228
619 0.000224
620 0.000222
621 0.000223
622 0.000221
623 0.000216
624 0.000214
625 0.000211
626 0.000205
627 0.000204
628 0.000202
629 0.000197
630 0.000194
631 0.000190
632 0.000184
633 0.000180
634 0.000180
635 0.000182
636 0.000184
637 0.000187
638 0.000189
639 0.000189
640 0.000187
641 0.000179
642 0.000176
643 0.000169
644 0.000163
645 0.000155
646 0.000146
647 0.000137
648 0.000133
649 0.000129
650 0.000122
651 0.000112
652 0.000105
653 0.000099
654 0.000097
655 0.000096
656 0.000101
657 0.000107
658 0.000113
659 0.000116
660 0.000121
661 0.000122
662 0.000126
663 0.000134
664 0.000139
665 0.000142
666 0.000149
667 0.000156
668 0.000163
669 0.000166
670 0.000164
671 0.000164
672 0.000165
673 0.000165
674 0.000165
675 0.000167
676 0.000166
677 0.000169
678 0.000171
679 0.000170
680 0.000167
681 0.000163
682 0.000160
683 0.000155
684 0.000154
685 0.000150
686 0.000147
687 0.000148
688 0.000149
689 0.000150
690 0.000148
691 0.000149
692 0.000149
693 0.000148
694 0.000151
695 0.000159
696 0.000165
697 0.000174
698 0.000179
699 0.000184
700 0.000186
701 0.000194
702 0.000200
703 0.000205
704 0.000206
705 0.000214
706 0.000222
707 0.000231
708 0.000238
709 0.000244
710 0.000248
711 0.000252
712 0.000257
713 0.000264
714 0.000267
715 0.000267
716 0.000270
717 0.000272
718 0.000269
719 0.000269
720 0.000267
721 0.000264
722 0.000259
723 0.000253
724 0.000245
725 0.000241
726 0.000238
727 0.000233
728 0.000225
729 0.000216
730 0.000205
731 0.000198
732 0.000192
733 0.000186
734 0.000181
735 0.000180
736 0.000179
737 0.000178
738 0.000178
739 0.000179
740 0.000182
741 0.000185
742 0.000186
743 0.000184
744 0.000181
745 0.000181
746 0.000179
747 0.000175
748 0.000171
749 0.000170
750 0.000169
751 0.000171
752 0.000168
753 0.000165
754 0.000164
755 0.000163
756 0.000161
757 0.000162
758 0.000164
759 0.000164
760 0.000167
761 0.000170
762 0.000173
763 0.000176
764 0.000179
765 0.000185
766 0.000190
767 0.000191
768 0.000191
769 0.000192
770 0.000193
771 0.000193
772 0.000193
773 0.000192
774 0.000186
775 0.000185
776 0.000184
777 0.000183
778 0.000181
779 0.000184
780 0.000187
781 0.000186
782 0.000186
783 0.000184
784 0.000187
785 0.000191
786 0.000193
787 0.000196
788 0.000196
789 0.000199
790 0.000201
791 0.000196
792 0.000197
793 0.000197
794 0.000199
795 0.000201
796 0.000200
797 0.000199
798 0.000196
799 0.000197
800 0.000198
801 0.000200
802 0.000204
803 0.000207
804 0.000209
805 0.000211
806 0.000209
807 0.000208
808 0.000204
809 0.000199
