# i correlation
1 0.002235
2 0.002178
3 0.002126
4 0.002076
5 0.002034
6 0.001991
7 0.001946
8 0.001905
9 0.001868
10 0.001835
11 0.001810
12 0.001782
13 0.001757
14 0.001738
15 0.001727
16 0.001713
17 0.001701
18 0.001692
19 0.001681
20 0.001667
21 0.001662
22 0.001656
23 0.001648
24 0.001640
25 0.001628
26 0.001622
27 0.001616
28 0.001604
29 0.001594
30 0.001587
31 0.001575
32 0.001567
33 0.001546
34 0.001530
35 0.001523
36 0.001517
37 0.001519
38 0.001528
39 0.001524
40 0.001520
41 0.001516
42 0.001513
43 0.001508
44 0.001494
45 0.001478
46 0.001462
47 0.001451
48 0.001432
49 0.001411
50 0.001396
51 0.001377
52 0.001356
53 0.001341
54 0.001333
55 0.001327
56 0.001324
57 0.001320
58 0.001317
59 0.001309
60 0.001302
61 0.001299
62 0.001297
63 0.001289
64 0.001282
65 0.001281
66 0.001272
67 0.001262
68 0.001252
69 0.001244
70 0.001236
71 0.001227
72 0.001219
73 0.001211
74 0.001207
75 0.001196
76 0.001193
77 0.001187
78 0.001179
79 0.001179
80 0.001184
81 0.001182
82 0.001179
83 0.001177
84 0.001169
85 0.001168
86 0.001168
87 0.001168
88 0.001174
89 0.001177
90 0.001176
91 0.001179
92 0.001176
93 0.001172
94 0.001166
95 0.001167
96 0.001157
97 0.001155
98 0.001147
99 0.001131
100 0.001123
101 0.001120
102 0.001119
103 0.001120
104 0.001121
105 0.001128
106 0.001128
107 0.001128
108 0.001136
109 0.001144
110 0.001152
111 0.001150
112 0.001151
113 0.001150
114 0.001151
115 0.001157
116 0.001156
117 0.001153
118 0.001146
119 0.001142
120 0.001136
121 0.001131
122 0.001124
123 0.001112
124 0.001108
125 0.001099
126 0.001091
127 0.001093
128 0.001086
129 0.001081
130 0.001077
131 0.001073
132 0.001072
133 0.001073
134 0.001074
135 0.001068
136 0.001065
137 0.001056
138 0.001045
139 0.001036
140 0.001023
141 0.001008
142 0.000987
143 0.000976
144 0.000965
145 0.000951
146 0.000937
147 0.000926
148 0.000922
149 0.000918
150 0.000913
151 0.000913
152 0.000920
153 0.000929
154 0.000935
155 0.000941
156 0.000946
157 0.000951
158 0.000948
159 0.000952
160 0.000952
161 0.000944
162 0.000938
163 0.000925
164 0.000921
165 0.000917
166 0.000911
167 0.000906
168 0.000896
169 0.000889
170 0.000882
171 0.000882
172 0.000874
173 0.000863
174 0.000852
175 0.000847
176 0.000842
177 0.000837
178 0.000829
179 0.000825
180 0.000824
181 0.000825
182 0.000826
183 0.000831
184 0.000836
185 0.000836
186 0.000841
187 0.000835
188 0.000832
189 0.000830
190 0.000835
191 0.000844
192 0.000848
193 0.000850
194 0.000856
195 0.000861
196 0.000865
197 0.000869
198 0.000872
199 0.000877
200 0.000880
201 0.000882
202 0.000884
203 0.000882
204 0.000879
205 0.000876
206 0.000870
207 0.000868
208 0.000865
209 0.000859
210 0.000856
211 0.000848
212 0.000844
213 0.000845
214 0.000841
215 0.000840
216 0.000839
217 0.000831
218 0.000830
219 0.000825
220 0.000818
221 0.000816
222 0.000818
223 0.000824
224 0.000830
225 0.000835
226 0.000831
227 0.000830
228 0.000825
229 0.000818
230 0.000802
231 0.000791
232 0.000784
233 0.000772
234 0.000763
235 0.000753
236 0.000742
237 0.000731
238 0.000721
239 0.000715
240 0.000712
241 0.000714
242 0.000713
243 0.000711
244 0.000710
245 0.000713
246 0.000717
247 0.000727
248 0.000735
249 0.000739
250 0.000741
251 0.000748
252 0.000753
253 0.000757
254 0.000759
255 0.000761
256 0.000761
257 0.000758
258 0.000762
259 0.000764
260 0.000763
261 0.000755
262 0.000750
263 0.000742
264 0.000737
265 0.000730
266 0.000728
267 0.000721
268 0.000710
269 0.000701
270 0.000697
271 0.000697
272 0.000696
273 0.000695
274 0.000700
275 0.000700
276 0.000694
277 0.000690
278 0.000682
279 0.000680
280 0.000671
281 0.000672
282 0.000668
283 0.000668
284 0.000666
285 0.000669
286 0.000670
287 0.000670
288 0.000670
289 0.000672
290 0.000674
291 0.000673
292 0.000675
293 0.000672
294 0.000669
295 0.000668
296 0.000679
297 0.000686
298 0.000695
299 0.000698
300 0.000701
301 0.000708
302 0.000708
303 0.000707
304 0.000708
305 0.000714
306 0.000717
307 0.000721
308 0.000720
309 0.000724
310 0.000727
311 0.000725
312 0.000722
313 0.000727
314 0.000729
315 0.000727
316 0.000724
317 0.000722
318 0.000718
319 0.000718
320 0.000720
321 0.000721
322 0.000717
323 0.000712
324 0.000707
325 0.000702
326 0.000694
327 0.000690
328 0.000689
329 0.000693
330 0.000689
331 0.000683
332 0.000678
333 0.000673
334 0.000666
335 0.000662
336 0.000661
337 0.000659
338 0.000655
339 0.000655
340 0.000655
341 0.000648
342 0.000639
343 0.000635
344 0.000630
345 0.000622
346 0.000615
347 0.000609
348 0.000602
349 0.000594
350 0.000588
351 0.000581
352 0.000579
353 0.000572
354 0.000562
355 0.000559
356 0.000556
357 0.000556
358 0.000554
359 0.000555
360 0.000556
361 0.000559
362 0.000561
363 0.000567
364 0.000575
365 0.000574
366 0.000578
367 0.000582
368 0.000589
369 0.000594
370 0.000597
371 0.000598
372 0.000601
373 0.000596
374 0.000594
375 0.000593
376 0.000595
377 0.000596
378 0.000594
379 0.000592
380 0.000589
381 0.000587
382 0.000591
383 0.000595
384 0.000599
385 0.000602
386 0.000606
387 0.000615
388 0.000614
389 0.000614
390 0.000615
391 0.000616
392 0.000613
393 0.000617
394 0.000618
395 0.000615
396 0.000612
397 0.000599
398 0.000591
399 0.000584
400 0.000572
401 0.000565
402 0.000555
403 0.000545
404 0.000539
405 0.000538
406 0.000539
407 0.000540
408 0.000545
409 0.000547
410 0.000551
411 0.000559
412 0.000567
413 0.000573
414 0.000580
415 0.000586
416 0.000592
417 0.000599
418 0.000607
419 0.000613
420 0.000617
421 0.000618
422 0.000617
423 0.000618
424 0.000620
425 0.000620
426 0.000622
427 0.000617
428 0.000611
429 0.000608
430 0.000606
431 0.000606
432 0.000605
433 0.000605
434 0.000609
435 0.000612
436 0.000612
437 0.000613
438 0.000611
439 0.000603
440 0.000597
441 0.000597
442 0.000593
443 0.000593
444 0.000591
445 0.000586
446 0.000578
447 0.000567
448 0.000558
449 0.000548
450 0.000544
451 0.000538
452 0.000534
453 0.000531
454 0.000525
455 0.000520
456 0.000518
457 0.000513
458 0.000507
459 0.000499
460 0.000488
461 0.000483
462 0.000476
463 0.000471
464 0.000465
465 0.000460
466 0.000458
467 0.000460
468 0.000459
469 0.000461
470 0.000460
471 0.000453
472 0.000455
473 0.000464
474 0.000473
475 0.000479
476 0.000490
477 0.000496
478 0.000498
479 0.000499
480 0.000502
481 0.000505
482 0.000508
483 0.000511
484 0.000517
485 0.000520
486 0.000522
487 0.000522
488 0.000527
489 0.000529
490 0.000526
491 0.000531
492 0.000531
493 0.000529
494 0.000523
495 0.000517
496 0.000515
497 0.000509
498 0.000502
499 0.000500
500 0.000498
501 0.000494
502 0.000493
503 0.000491
504 0.000492
505 0.000492
506 0.000498
507 0.000504
508 0.000511
509 0.000514
510 0.000517
511 0.000523
512 0.000530
513 0.000538
514 0.000546
515 0.000553
516 0.000555
517 0.000558
518 0.000560
519 0.000561
520 0.000563
521 0.000569
522 0.000569
523 0.000577
524 0.000585
525 0.000589
526 0.000593
527 0.000594
528 0.000595
529 0.000596
530 0.000597
531 0.000599
532 0.000605
533 0.000610
534 0.000615
535 0.000615
536 0.000610
537 0.000605
538 0.000601
539 0.000597
540 0.000586
541 0.000576
542 0.000566
543 0.000558
544 0.000546
545 0.000537
546 0.000531
547 0.000525
548 0.000521
549 0.000517
550 0.000515
551 0.000514
552 0.000514
553 0.000517
554 0.000521
555 0.000521
556 0.000523
557 0.000521
558 0.000522
559 0.000516
560 0.000514
561 0.000510
562 0.000510
563 0.000502
564 0.000497
565 0.000496
566 0.000492
567 0.000491
568 0.000494
569 0.000493
570 0.000494
571 0.000495
572 0.000498
573 0.000502
574 0.000502
575 0.000506
576 0.000505
577 0.000505
578 0.000505
579 0.000508
580 0.000509
581 0.000507
582 0.000504
583 0.000500
584 0.000499
585 0.000494
586 0.000488
587 0.000482
588 0.000476
589 0.000472
590 0.000466
591 0.000462
592 0.000458
593 0.000455
594 0.000455
595 0.000454
596 0.000459
597 0.000465
598 0.000472
599 0.000473
600 0.000479
601 0.000481
602 0.000480
603 0.000482
604 0.000482
605 0.000485
606 0.000490
607 0.000497
608 0.000501
609 0.000507
610 0.000514
611 0.000521
612 0.000528
613 0.000528
614 0.000526
615 0.000527
616 0.000525
617 0.000522
618 0.000520
619 0.000514
620 0.000508
621 0.000504
622 0.000503
623 0.000501
624 0.000498
625 0.000498
626 0.000499
627 0.000500
628 0.000501
629 0.000501
630 0.000500
631 0.000495
632 0.000492
633 0.000490
634 0.000491
635 0.000492
636 0.000496
637 0.000497
638 0.000503
639 0.000512
640 0.000524
641 0.000533
642 0.000541
643 0.000551
644 0.000559
645 0.000567
646 0.000567
647 0.000567
648 0.000571
649 0.000580
650 0.000582
651 0.000583
652 0.000576
653 0.000574
654 0.000570
655 0.000560
656 0.000550
657 0.000540
658 0.000528
659 0.000516
660 0.000507
661 0.000498
662 0.000490
663 0.000479
664 0.000470
665 0.000462
666 0.000454
667 0.000452
668 0.000456
669 0.000457
670 0.000463
671 0.000467
672 0.000475
673 0.000480
674 0.000480
675 0.000481
676 0.000478
677 0.000479
678 0.000481
679 0.000481
680 0.000482
681 0.000478
682 0.000478
683 0.000481
684 0.000479
685 0.000476
686 0.000475
687 0.000473
688 0.000472
689 0.000471
690 0.000465
691 0.000461
692 0.000459
693 0.000454
694 0.000447
695 0.000441
696 0.000433
697 0.000425
698 0.000417
699 0.000409
700 0.000402
701 0.000397
702 0.000389
703 0.000381
704 0.000372
705 0.000367
706 0.000363
707 0.000360
708 0.000355
709 0.000353
710 0.000351
711 0.000347
712 0.000343
713 0.000342
714 0.000340
715 0.000344
716 0.000342
717 0.000339
718 0.000339
719 0.000336
720 0.000335
721 0.000332
722 0.000325
723 0.000321
724 0.000316
725 0.000310
726 0.000300
727 0.000296
728 0.000290
729 0.000287
730 0.000289
731 0.000292
732 0.000295
733 0.000301
734 0.000304
735 0.000305
736 0.000307
737 0.000311
738 0.000309
739 0.000309
740 0.000308
741 0.000306
742 0.000301
743 0.000293
744 0.000290
745 0.000285
746 0.000279
747 0.000272
748 0.000265
749 0.000259
750 0.000256
751 0.000256
752 0.000252
753 0.000249
754 0.000243
755 0.000240
756 0.000235
757 0.000230
758 0.000227
759 0.000226
760 0.000225
761 0.000226
762 0.000231
763 0.000232
764 0.000230
765 0.000231
766 0.000232
767 0.000233
768 0.000231
769 0.000226
770 0.000223
771 0.000219
772 0.000216
773 0.000215
774 0.000212
775 0.000212
776 0.000210
777 0.000210
778 0.000212
779 0.000212
780 0.000215
781 0.000218
782 0.000222
783 0.000229
784 0.000230
785 0.000229
786 0.000224
787 0.000218
788 0.000214
789 0.000212
790 0.000206
791 0.000199
792 0.000194
793 0.000192
794 0.000190
795 0.000190
796 0.000188
797 0.000192
798 0.000199
799 0.000202
800 0.000205
801 0.000206
802 0.000207
803 0.000209
804 0.000211
805 0.000213
806 0.000216
807 0.000219
808 0.000221
809 0.000221
