# i correlation
1 0.002003
2 0.001942
3 0.001895
4 0.001852
5 0.001814
6 0.001777
7 0.001748
8 0.001726
9 0.001714
10 0.001701
11 0.001686
12 0.001677
13 0.001664
14 0.001655
15 0.001644
16 0.001626
17 0.001603
18 0.001586
19 0.001573
20 0.001556
21 0.001543
22 0.001528
23 0.001520
24 0.001513
25 0.001507
26 0.001508
27 0.001505
28 0.001497
29 0.001489
30 0.001482
31 0.001478
32 0.001475
33 0.001466
34 0.001453
35 0.001438
36 0.001425
37 0.001417
38 0.001415
39 0.001416
40 0.001413
41 0.001409
42 0.001409
43 0.001403
44 0.001397
45 0.001391
46 0.001385
47 0.001381
48 0.001376
49 0.001369
50 0.001360
51 0.001354
52 0.001344
53 0.001334
54 0.001325
55 0.001311
56 0.001305
57 0.001301
58 0.001294
59 0.001290
60 0.001292
61 0.001288
62 0.001280
63 0.001275
64 0.001261
65 0.001250
66 0.001240
67 0.001227
68 0.001218
69 0.001213
70 0.001205
71 0.001195
72 0.001190
73 0.001184
74 0.001176
75 0.001172
76 0.001166
77 0.001164
78 0.001166
79 0.001168
80 0.001169
81 0.001165
82 0.001158
83 0.001150
84 0.001147
85 0.001134
86 0.001124
87 0.001117
88 0.001107
89 0.001099
90 0.001091
91 0.001086
92 0.001075
93 0.001061
94 0.001050
95 0.001041
96 0.001038
97 0.001038
98 0.001038
99 0.001037
100 0.001033
101 0.001034
102 0.001032
103 0.001022
104 0.001014
105 0.001010
106 0.001002
107 0.000999
108 0.000997
109 0.000996
110 0.000997
111 0.001002
112 0.001012
113 0.001024
114 0.001032
115 0.001030
116 0.001031
117 0.001034
118 0.001036
119 0.001035
120 0.001033
121 0.001029
122 0.001026
123 0.001030
124 0.001033
125 0.001033
126 0.001034
127 0.001033
128 0.001027
129 0.001021
130 0.001018
131 0.001021
132 0.001021
133 0.001017
134 0.001007
135 0.001003
136 0.001003
137 0.000998
138 0.000993
139 0.000992
140 0.000992
141 0.000988
142 0.000984
143 0.000980
144 0.000979
145 0.000976
146 0.000965
147 0.000957
148 0.000945
149 0.000932
150 0.000930
151 0.000933
152 0.000934
153 0.000937
154 0.000938
155 0.000933
156 0.000931
157 0.000929
158 0.000929
159 0.000930
160 0.000929
161 0.000924
162 0.000918
163 0.000913
164 0.000912
165 0.000912
166 0.000910
167 0.000905
168 0.000905
169 0.000901
170 0.000902
171 0.000901
172 0.000901
173 0.000898
174 0.000897
175 0.000893
176 0.000889
177 0.000883
178 0.000880
179 0.000877
180 0.000871
181 0.000862
182 0.000850
183 0.000842
184 0.000837
185 0.000831
186 0.000823
187 0.000813
188 0.000805
189 0.000798
190 0.000793
191 0.000797
192 0.000798
193 0.000806
194 0.000813
195 0.000815
196 0.000818
197 0.000822
198 0.000823
199 0.000829
200 0.000837
201 0.000838
202 0.000842
203 0.000849
204 0.000849
205 0.000857
206 0.000854
207 0.000852
208 0.000850
209 0.000840
210 0.000836
211 0.000834
212 0.000831
213 0.000827
214 0.000823
215 0.000826
216 0.000824
217 0.000823
218 0.000823
219 0.000827
220 0.000832
221 0.000833
222 0.000835
223 0.000828
224 0.000816
225 0.000803
226 0.000792
227 0.000783
228 0.000769
229 0.000749
230 0.000737
231 0.000733
232 0.000732
233 0.000724
234 0.000722
235 0.000722
236 0.000716
237 0.000717
238 0.000715
239 0.000713
240 0.000703
241 0.000703
242 0.000700
243 0.000695
244 0.000696
245 0.000700
246 0.000698
247 0.000694
248 0.000688
249 0.000686
250 0.000683
251 0.000681
252 0.000675
253 0.000676
254 0.000676
255 0.000673
256 0.000676
257 0.000679
258 0.000684
259 0.000686
260 0.000693
261 0.000699
262 0.000701
263 0.000701
264 0.000700
265 0.000701
266 0.000697
267 0.000690
268 0.000683
269 0.000682
270 0.000682
271 0.000681
272 0.000682
273 0.000674
274 0.000669
275 0.000665
276 0.000667
277 0.000671
278 0.000676
279 0.000678
280 0.000681
281 0.000685
282 0.000682
283 0.000679
284 0.000678
285 0.000676
286 0.000676
287 0.000672
288 0.000673
289 0.000674
290 0.000670
291 0.000671
292 0.000673
293 0.000671
294 0.000663
295 0.000658
296 0.000652
297 0.000646
298 0.000644
299 0.000643
300 0.000639
301 0.000640
302 0.000640
303 0.000640
304 0.000645
305 0.000646
306 0.000640
307 0.000640
308 0.000641
309 0.000635
310 0.000632
311 0.000626
312 0.000618
313 0.000610
314 0.000601
315 0.000591
316 0.000584
317 0.000584
318 0.000595
319 0.000608
320 0.000616
321 0.000623
322 0.000633
323 0.000642
324 0.000645
325 0.000643
326 0.000636
327 0.000628
328 0.000621
329 0.000616
330 0.000618
331 0.000623
332 0.000630
333 0.000636
334 0.000646
335 0.000655
336 0.000663
337 0.000666
338 0.000669
339 0.000673
340 0.000675
341 0.000672
342 0.000664
343 0.000653
344 0.000645
345 0.000641
346 0.000637
347 0.000635
348 0.000632
349 0.000626
350 0.000626
351 0.000629
352 0.000629
353 0.000623
354 0.000612
355 0.000603
356 0.000594
357 0.000585
358 0.000580
359 0.000577
360 0.000570
361 0.000570
362 0.000571
363 0.000575
364 0.000579
365 0.000581
366 0.000580
367 0.000585
368 0.000587
369 0.000585
370 0.000589
371 0.000596
372 0.000603
373 0.000612
374 0.000616
375 0.000614
376 0.000616
377 0.000620
378 0.000623
379 0.000625
380 0.000627
381 0.000629
382 0.000637
383 0.000647
384 0.000648
385 0.000653
386 0.000655
387 0.000652
388 0.000652
389 0.000646
390 0.000639
391 0.000636
392 0.000633
393 0.000630
394 0.000624
395 0.000613
396 0.000610
397 0.000610
398 0.000608
399 0.000604
400 0.000599
401 0.000595
402 0.000596
403 0.000595
404 0.000588
405 0.000582
406 0.000578
407 0.000571
408 0.000558
409 0.000553
410 0.000549
411 0.000542
412 0.000542
413 0.000542
414 0.000545
415 0.000551
416 0.000557
417 0.000558
418 0.000560
419 0.000562
420 0.000561
421 0.000564
422 0.000564
423 0.000560
424 0.000559
425 0.000558
426 0.000551
427 0.000540
428 0.000533
429 0.000523
430 0.000520
431 0.000520
432 0.000523
433 0.000521
434 0.000513
435 0.000511
436 0.000514
437 0.000517
438 0.000509
439 0.000506
440 0.000505
441 0.000501
442 0.000504
443 0.000501
444 0.000499
445 0.000499
446 0.000498
447 0.000497
448 0.000493
449 0.000493
450 0.000493
451 0.000492
452 0.000488
453 0.000487
454 0.000494
455 0.000500
456 0.000500
457 0.000498
458 0.000499
459 0.000498
460 0.000493
461 0.000491
462 0.000486
463 0.000489
464 0.000495
465 0.000500
466 0.000505
467 0.000503
468 0.000499
469 0.000498
470 0.000492
471 0.000489
472 0.000486
473 0.000479
474 0.000476
475 0.000475
476 0.000472
477 0.000468
478 0.000470
479 0.000471
480 0.000472
481 0.000475
482 0.000482
483 0.000482
484 0.000487
485 0.000488
486 0.000490
487 0.000491
488 0.000489
489 0.000482
490 0.000477
491 0.000471
492 0.000467
493 0.000467
494 0.000465
495 0.000462
496 0.000460
497 0.000461
498 0.000460
499 0.000460
500 0.000459
501 0.000459
502 0.000459
503 0.000462
504 0.000466
505 0.000470
506 0.000477
507 0.000476
508 0.000474
509 0.000468
510 0.000466
511 0.000466
512 0.000465
513 0.000464
514 0.000462
515 0.000465
516 0.000465
517 0.000464
518 0.000465
519 0.000465
520 0.000462
521 0.000458
522 0.000453
523 0.000453
524 0.000457
525 0.000462
526 0.000469
527 0.000477
528 0.000478
529 0.000479
530 0.000477
531 0.000477
532 0.000473
533 0.000474
534 0.000471
535 0.000467
536 0.000464
537 0.000463
538 0.000466
539 0.000467
540 0.000468
541 0.000472
542 0.000481
543 0.000485
544 0.000488
545 0.000492
546 0.000495
547 0.000495
548 0.000488
549 0.000483
550 0.000479
551 0.000470
552 0.000464
553 0.000462
554 0.000458
555 0.000454
556 0.000455
557 0.000456
558 0.000458
559 0.000458
560 0.000456
561 0.000455
562 0.000453
563 0.000450
564 0.000442
565 0.000432
566 0.000428
567 0.000427
568 0.000428
569 0.000428
570 0.000421
571 0.000415
572 0.000410
573 0.000410
574 0.000407
575 0.000404
576 0.000403
577 0.000400
578 0.000396
579 0.000394
580 0.000388
581 0.000385
582 0.000384
583 0.000387
584 0.000387
585 0.000392
586 0.000395
587 0.000399
588 0.000405
589 0.000410
590 0.000415
591 0.000419
592 0.000418
593 0.000419
594 0.000421
595 0.000423
596 0.000429
597 0.000433
598 0.000436
599 0.000440
600 0.000445
601 0.000449
602 0.000453
603 0.000453
604 0.000451
605 0.000451
606 0.000450
607 0.000446
608 0.000445
609 0.000448
610 0.000448
611 0.000449
612 0.000450
613 0.000450
614 0.000445
615 0.000443
616 0.000441
617 0.000442
618 0.000440
619 0.000435
620 0.000429
621 0.000426
622 0.000420
623 0.000416
624 0.000418
625 0.000421
626 0.000420
627 0.000420
628 0.000420
629 0.000420
630 0.000418
631 0.000413
632 0.000407
633 0.000407
634 0.000401
635 0.000396
636 0.000391
637 0.000388
638 0.000384
639 0.000383
640 0.000380
641 0.000381
642 0.000383
643 0.000387
644 0.000393
645 0.000392
646 0.000389
647 0.000386
648 0.000382
649 0.000376
650 0.000375
651 0.000374
652 0.000373
653 0.000373
654 0.000375
655 0.000376
656 0.000379
657 0.000383
658 0.000391
659 0.000398
660 0.000408
661 0.000409
662 0.000412
663 0.000413
664 0.000411
665 0.000410
666 0.000410
667 0.000408
668 0.000406
669 0.000407
670 0.000408
671 0.000407
672 0.000407
673 0.000406
674 0.000406
675 0.000407
676 0.000409
677 0.000410
678 0.000413
679 0.000412
680 0.000406
681 0.000406
682 0.000402
683 0.000397
684 0.000392
685 0.000389
686 0.000390
687 0.000391
688 0.000385
689 0.000378
690 0.000373
691 0.000365
692 0.000358
693 0.000353
694 0.000344
695 0.000338
696 0.000331
697 0.000324
698 0.000316
699 0.000309
700 0.000306
701 0.000302
702 0.000300
703 0.000295
704 0.000292
705 0.000289
706 0.000285
707 0.000280
708 0.000272
709 0.000268
710 0.000262
711 0.000257
712 0.000252
713 0.000250
714 0.000250
715 0.000247
716 0.000244
717 0.000242
718 0.000241
719 0.000239
720 0.000237
721 0.000238
722 0.000236
723 0.000237
724 0.000234
725 0.000235
726 0.000238
727 0.000241
728 0.000243
729 0.000243
730 0.000242
731 0.000240
732 0.000238
733 0.000236
734 0.000233
735 0.000229
736 0.000227
737 0.000225
738 0.000226
739 0.000224
740 0.000226
741 0.000232
742 0.000236
743 0.000236
744 0.000240
745 0.000242
746 0.000245
747 0.000249
748 0.000250
749 0.000253
750 0.000256
751 0.000255
752 0.000251
753 0.000248
754 0.000244
755 0.000243
756 0.000242
757 0.000241
758 0.000241
759 0.000241
760 0.000242
761 0.000240
762 0.000237
763 0.000234
764 0.000230
765 0.000228
766 0.000226
767 0.000222
768 0.000222
769 0.000226
770 0.000229
771 0.000229
772 0.000229
773 0.000232
774 0.000237
775 0.000239
776 0.000241
777 0.000242
778 0.000241
779 0.000240
780 0.000237
781 0.000234
782 0.000234
783 0.000232
784 0.000231
785 0.000227
786 0.000222
787 0.000215
788 0.000207
789 0.000204
790 0.000200
791 0.000199
792 0.000196
793 0.000194
794 0.000194
795 0.000195
796 0.000193
797 0.000190
798 0.000188
799 0.000184
800 0.000181
801 0.000182
802 0.000183
803 0.000182
804 0.000183
805 0.000187
806 0.000191
807 0.000196
808 0.000196
809 0.000195
