# i correlation
1 0.001480
2 0.001422
3 0.001372
4 0.001324
5 0.001279
6 0.001244
7 0.001210
8 0.001187
9 0.001169
10 0.001153
11 0.001141
12 0.001129
13 0.001112
14 0.001104
15 0.001094
16 0.001093
17 0.001093
18 0.001091
19 0.001088
20 0.001087
21 0.001083
22 0.001086
23 0.001090
24 0.001092
25 0.001093
26 0.001092
27 0.001087
28 0.001085
29 0.001082
30 0.001081
31 0.001078
32 0.001076
33 0.001067
34 0.001064
35 0.001056
36 0.001047
37 0.001037
38 0.001024
39 0.001019
40 0.001020
41 0.001018
42 0.001018
43 0.001022
44 0.001021
45 0.001020
46 0.001023
47 0.001026
48 0.001020
49 0.001012
50 0.001004
51 0.000994
52 0.000991
53 0.000988
54 0.000982
55 0.000974
56 0.000969
57 0.000965
58 0.000961
59 0.000954
60 0.000942
61 0.000932
62 0.000922
63 0.000914
64 0.000905
65 0.000901
66 0.000901
67 0.000902
68 0.000897
69 0.000896
70 0.000896
71 0.000889
72 0.000880
73 0.000875
74 0.000872
75 0.000867
76 0.000869
77 0.000859
78 0.000846
79 0.000839
80 0.000834
81 0.000827
82 0.000821
83 0.000817
84 0.000818
85 0.000819
86 0.000828
87 0.000836
88 0.000841
89 0.000846
90 0.000855
91 0.000854
92 0.000851
93 0.000846
94 0.000834
95 0.000820
96 0.000815
97 0.000812
98 0.000810
99 0.000805
100 0.000795
101 0.000791
102 0.000794
103 0.000791
104 0.000792
105 0.000792
106 0.000790
107 0.000787
108 0.000778
109 0.000769
110 0.000761
111 0.000756
112 0.000753
113 0.000754
114 0.000749
115 0.000748
116 0.000749
117 0.000743
118 0.000738
119 0.000735
120 0.000733
121 0.000736
122 0.000743
123 0.000745
124 0.000742
125 0.000732
126 0.000725
127 0.000719
128 0.000715
129 0.000713
130 0.000711
131 0.000707
132 0.000706
133 0.000708
134 0.000706
135 0.000696
136 0.000682
137 0.000672
138 0.000667
139 0.000663
140 0.000656
141 0.000654
142 0.000650
143 0.000653
144 0.000653
145 0.000661
146 0.000670
147 0.000676
148 0.000673
149 0.000673
150 0.000669
151 0.000667
152 0.000663
153 0.000657
154 0.000654
155 0.000652
156 0.000651
157 0.000651
158 0.000647
159 0.000649
160 0.000648
161 0.000643
162 0.000638
163 0.000636
164 0.000632
165 0.000630
166 0.000623
167 0.000610
168 0.000600
169 0.000594
170 0.000591
171 0.000590
172 0.000588
173 0.000583
174 0.000580
175 0.000581
176 0.000579
177 0.000578
178 0.000582
179 0.000585
180 0.000589
181 0.000593
182 0.000595
183 0.000595
184 0.000588
185 0.000583
186 0.000580
187 0.000576
188 0.000578
189 0.000578
190 0.000579
191 0.000577
192 0.000570
193 0.000562
194 0.000556
195 0.000547
196 0.000538
197 0.000533
198 0.000530
199 0.000527
200 0.000527
201 0.000527
202 0.000531
203 0.000537
204 0.000549
205 0.000554
206 0.000563
207 0.000565
208 0.000563
209 0.000563
210 0.000563
211 0.000563
212 0.000567
213 0.000572
214 0.000572
215 0.000572
216 0.000571
217 0.000571
218 0.000572
219 0.000564
220 0.000563
221 0.000559
222 0.000556
223 0.000555
224 0.000549
225 0.000541
226 0.000530
227 0.000517
228 0.000505
229 0.000493
230 0.000483
231 0.000476
232 0.000476
233 0.000475
234 0.000473
235 0.000480
236 0.000486
237 0.000491
238 0.000494
239 0.000496
240 0.000495
241 0.000493
242 0.000491
243 0.000487
244 0.000484
245 0.000486
246 0.000488
247 0.000492
248 0.000496
249 0.000501
250 0.000503
251 0.000501
252 0.000501
253 0.000498
254 0.000487
255 0.000476
256 0.000467
257 0.000462
258 0.000458
259 0.000452
260 0.000451
261 0.000458
262 0.000475
263 0.000489
264 0.000499
265 0.000507
266 0.000511
267 0.000522
268 0.000527
269 0.000530
270 0.000529
271 0.000524
272 0.000519
273 0.000515
274 0.000509
275 0.000500
276 0.000494
277 0.000492
278 0.000492
279 0.000485
280 0.000477
281 0.000473
282 0.000469
283 0.000464
284 0.000460
285 0.000453
286 0.000450
287 0.000451
288 0.000450
289 0.000448
290 0.000448
291 0.000447
292 0.000454
293 0.000465
294 0.000475
295 0.000481
296 0.000489
297 0.000497
298 0.000506
299 0.000510
300 0.000508
301 0.000504
302 0.000500
303 0.000498
304 0.000494
305 0.000494
306 0.000491
307 0.000481
308 0.000476
309 0.000476
310 0.000479
311 0.000484
312 0.000484
313 0.000484
314 0.000488
315 0.000487
316 0.000484
317 0.000480
318 0.000474
319 0.000469
320 0.000474
321 0.000475
322 0.000478
323 0.000479
324 0.000477
325 0.000478
326 0.000477
327 0.000471
328 0.000472
329 0.000476
330 0.000475
331 0.000477
332 0.000479
333 0.000476
334 0.000474
335 0.000475
336 0.000475
337 0.000477
338 0.000481
339 0.000490
340 0.000497
341 0.000501
342 0.000500
343 0.000499
344 0.000496
345 0.000497
346 0.000494
347 0.000489
348 0.000484
349 0.000482
350 0.000475
351 0.000473
352 0.000471
353 0.000468
354 0.000465
355 0.000467
356 0.000465
357 0.000465
358 0.000466
359 0.000471
360 0.000476
361 0.000478
362 0.000480
363 0.000485
364 0.000489
365 0.000485
366 0.000486
367 0.000488
368 0.000490
369 0.000501
370 0.000505
371 0.000504
372 0.000504
373 0.000505
374 0.000503
375 0.000504
376 0.000498
377 0.000489
378 0.000482
379 0.000473
380 0.000463
381 0.000456
382 0.000451
383 0.000445
384 0.000440
385 0.000439
386 0.000441
387 0.000443
388 0.000442
389 0.000439
390 0.000436
391 0.000436
392 0.000432
393 0.000426
394 0.000427
395 0.000435
396 0.000442
397 0.000442
398 0.000443
399 0.000442
400 0.000442
401 0.000442
402 0.000436
403 0.000434
404 0.000428
405 0.000422
406 0.000417
407 0.000414
408 0.000408
409 0.000403
410 0.000400
411 0.000398
412 0.000402
413 0.000407
414 0.000411
415 0.000418
416 0.000426
417 0.000425
418 0.000424
419 0.000421
420 0.000418
421 0.000414
422 0.000415
423 0.000417
424 0.000416
425 0.000411
426 0.000408
427 0.000408
428 0.000407
429 0.000407
430 0.000406
431 0.000402
432 0.000398
433 0.000394
434 0.000386
435 0.000381
436 0.000377
437 0.000374
438 0.000373
439 0.000374
440 0.000375
441 0.000375
442 0.000375
443 0.000380
444 0.000387
445 0.000393
446 0.000395
447 0.000399
448 0.000403
449 0.000406
450 0.000408
451 0.000405
452 0.000406
453 0.000408
454 0.000404
455 0.000400
456 0.000397
457 0.000392
458 0.000388
459 0.000387
460 0.000380
461 0.000374
462 0.000370
463 0.000364
464 0.000355
465 0.000351
466 0.000348
467 0.000342
468 0.000338
469 0.000334
470 0.000332
471 0.000336
472 0.000337
473 0.000340
474 0.000342
475 0.000343
476 0.000342
477 0.000342
478 0.000340
479 0.000338
480 0.000337
481 0.000337
482 0.000345
483 0.000349
484 0.000353
485 0.000360
486 0.000365
487 0.000368
488 0.000371
489 0.000376
490 0.000381
491 0.000382
492 0.000381
493 0.000381
494 0.000379
495 0.000369
496 0.000359
497 0.000347
498 0.000338
499 0.000329
500 0.000327
501 0.000321
502 0.000318
503 0.000316
504 0.000313
505 0.000315
506 0.000311
507 0.000311
508 0.000309
509 0.000308
510 0.000310
511 0.000314
512 0.000315
513 0.000317
514 0.000319
515 0.000319
516 0.000321
517 0.000322
518 0.000320
519 0.000325
520 0.000329
521 0.000329
522 0.000330
523 0.000329
524 0.000327
525 0.000322
526 0.000315
527 0.000310
528 0.000305
529 0.000308
530 0.000309
531 0.000308
532 0.000304
533 0.000302
534 0.000305
535 0.000311
536 0.000316
537 0.000318
538 0.000321
539 0.000323
540 0.000322
541 0.000325
542 0.000326
543 0.000321
544 0.000316
545 0.000316
546 0.000316
547 0.000317
548 0.000316
549 0.000313
550 0.000310
551 0.000308
552 0.000305
553 0.000301
554 0.000294
555 0.000290
556 0.000285
557 0.000279
558 0.000276
559 0.000277
560 0.000280
561 0.000288
562 0.000292
563 0.000299
564 0.000303
565 0.000305
566 0.000304
567 0.000302
568 0.000295
569 0.000290
570 0.000288
571 0.000286
572 0.000282
573 0.000281
574 0.000278
575 0.000274
576 0.000271
577 0.000266
578 0.000263
579 0.000262
580 0.000258
581 0.000260
582 0.000261
583 0.000264
584 0.000266
585 0.000265
586 0.000262
587 0.000264
588 0.000264
589 0.000261
590 0.000253
591 0.000246
592 0.000241
593 0.000236
594 0.000231
595 0.000230
596 0.000224
597 0.000213
598 0.000208
599 0.000202
600 0.000191
601 0.000185
602 0.000182
603 0.000180
604 0.000181
605 0.000183
606 0.000187
607 0.000193
608 0.000195
609 0.000197
610 0.000197
611 0.000194
612 0.000193
613 0.000193
614 0.000194
615 0.000189
616 0.000182
617 0.000178
618 0.000175
619 0.000169
620 0.000163
621 0.000159
622 0.000155
623 0.000149
624 0.000143
625 0.000135
626 0.000135
627 0.000136
628 0.000138
629 0.000138
630 0.000136
631 0.000138
632 0.000139
633 0.000142
634 0.000142
635 0.000144
636 0.000148
637 0.000153
638 0.000160
639 0.000167
640 0.000172
641 0.000175
642 0.000174
643 0.000171
644 0.000166
645 0.000160
646 0.000156
647 0.000152
648 0.000145
649 0.000141
650 0.000139
651 0.000137
652 0.000136
653 0.000134
654 0.000135
655 0.000131
656 0.000128
657 0.000132
658 0.000132
659 0.000127
660 0.000126
661 0.000127
662 0.000128
663 0.000132
664 0.000137
665 0.000141
666 0.000143
667 0.000141
668 0.000141
669 0.000140
670 0.000137
671 0.000134
672 0.000134
673 0.000134
674 0.000137
675 0.000142
676 0.000144
677 0.000141
678 0.000139
679 0.000135
680 0.000132
681 0.000128
682 0.000123
683 0.000120
684 0.000120
685 0.000119
686 0.000121
687 0.000120
688 0.000121
689 0.000122
690 0.000121
691 0.000122
692 0.000124
693 0.000131
694 0.000141
695 0.000152
696 0.000158
697 0.000164
698 0.000171
699 0.000173
700 0.000174
701 0.000173
702 0.000171
703 0.000164
704 0.000158
705 0.000151
706 0.000143
707 0.000142
708 0.000142
709 0.000137
710 0.000138
711 0.000138
712 0.000139
713 0.000136
714 0.000136
715 0.000134
716 0.000134
717 0.000135
718 0.000141
719 0.000140
720 0.000141
721 0.000140
722 0.000139
723 0.000136
724 0.000134
725 0.000134
726 0.000136
727 0.000142
728 0.000149
729 0.000150
730 0.000154
731 0.000151
732 0.000147
733 0.000145
734 0.000140
735 0.000138
736 0.000139
737 0.000141
738 0.000141
739 0.000138
740 0.000137
741 0.000134
742 0.000134
743 0.000132
744 0.000132
745 0.000131
746 0.000130
747 0.000129
748 0.000130
749 0.000130
750 0.000130
751 0.000132
752 0.000136
753 0.000137
754 0.000142
755 0.000147
756 0.000148
757 0.000146
758 0.000144
759 0.000140
760 0.000134
761 0.000130
762 0.000127
763 0.000123
764 0.000122
765 0.000122
766 0.000118
767 0.000115
768 0.000113
769 0.000112
770 0.000110
771 0.000105
772 0.000101
773 0.000100
774 0.000099
775 0.000096
776 0.000095
777 0.000095
778 0.000093
779 0.000093
780 0.000091
781 0.000089
782 0.000086
783 0.000085
784 0.000086
785 0.000090
786 0.000095
787 0.000103
788 0.000111
789 0.000114
790 0.000116
791 0.000120
792 0.000123
793 0.000122
794 0.000118
795 0.000114
796 0.000110
797 0.000109
798 0.000110
799 0.000112
800 0.000110
801 0.000108
802 0.000104
803 0.000099
804 0.000095
805 0.000088
806 0.000081
807 0.000075
808 0.000071
809 0.000068
