# i correlation
1 0.001676
2 0.001612
3 0.001556
4 0.001517
5 0.001486
6 0.001454
7 0.001423
8 0.001394
9 0.001363
10 0.001338
11 0.001317
12 0.001292
13 0.001263
14 0.001241
15 0.001232
16 0.001221
17 0.001207
18 0.001191
19 0.001178
20 0.001164
21 0.001154
22 0.001142
23 0.001130
24 0.001118
25 0.001108
26 0.001103
27 0.001088
28 0.001076
29 0.001070
30 0.001067
31 0.001067
32 0.001063
33 0.001055
34 0.001047
35 0.001033
36 0.001025
37 0.001014
38 0.001017
39 0.001014
40 0.001013
41 0.001016
42 0.001019
43 0.001023
44 0.001020
45 0.001017
46 0.001009
47 0.001002
48 0.001002
49 0.001001
50 0.000991
51 0.000981
52 0.000966
53 0.000955
54 0.000940
55 0.000928
56 0.000918
57 0.000904
58 0.000894
59 0.000880
60 0.000871
61 0.000865
62 0.000866
63 0.000857
64 0.000854
65 0.000852
66 0.000849
67 0.000844
68 0.000839
69 0.000833
70 0.000828
71 0.000829
72 0.000836
73 0.000844
74 0.000843
75 0.000837
76 0.000837
77 0.000834
78 0.000832
79 0.000833
80 0.000838
81 0.000834
82 0.000833
83 0.000830
84 0.000831
85 0.000833
86 0.000839
87 0.000845
88 0.000852
89 0.000856
90 0.000857
91 0.000848
92 0.000840
93 0.000831
94 0.000826
95 0.000824
96 0.000813
97 0.000801
98 0.000797
99 0.000796
100 0.000792
101 0.000784
102 0.000775
103 0.000768
104 0.000762
105 0.000760
106 0.000753
107 0.000750
108 0.000744
109 0.000740
110 0.000737
111 0.000736
112 0.000726
113 0.000713
114 0.000710
115 0.000711
116 0.000712
117 0.000707
118 0.000698
119 0.000696
120 0.000692
121 0.000691
122 0.000683
123 0.000680
124 0.000680
125 0.000682
126 0.000681
127 0.000691
128 0.000698
129 0.000699
130 0.000696
131 0.000694
132 0.000685
133 0.000681
134 0.000673
135 0.000672
136 0.000669
137 0.000667
138 0.000669
139 0.000667
140 0.000663
141 0.000650
142 0.000643
143 0.000641
144 0.000636
145 0.000628
146 0.000629
147 0.000630
148 0.000630
149 0.000630
150 0.000633
151 0.000637
152 0.000639
153 0.000641
154 0.000641
155 0.000643
156 0.000642
157 0.000638
158 0.000635
159 0.000635
160 0.000636
161 0.000640
162 0.000643
163 0.000644
164 0.000644
165 0.000636
166 0.000634
167 0.000637
168 0.000639
169 0.000646
170 0.000644
171 0.000651
172 0.000652
173 0.000648
174 0.000637
175 0.000630
176 0.000633
177 0.000635
178 0.000645
179 0.000651
180 0.000655
181 0.000661
182 0.000663
183 0.000666
184 0.000665
185 0.000658
186 0.000650
187 0.000653
188 0.000655
189 0.000654
190 0.000648
191 0.000646
192 0.000646
193 0.000648
194 0.000647
195 0.000645
196 0.000640
197 0.000642
198 0.000642
199 0.000638
200 0.000639
201 0.000635
202 0.000635
203 0.000633
204 0.000631
205 0.000631
206 0.000621
207 0.000611
208 0.000598
209 0.000593
210 0.000586
211 0.000579
212 0.000570
213 0.000567
214 0.000565
215 0.000561
216 0.000558
217 0.000560
218 0.000553
219 0.000552
220 0.000552
221 0.000546
222 0.000546
223 0.000546
224 0.000548
225 0.000547
226 0.000551
227 0.000555
228 0.000555
229 0.000551
230 0.000543
231 0.000535
232 0.000528
233 0.000523
234 0.000520
235 0.000517
236 0.000514
237 0.000501
238 0.000491
239 0.000477
240 0.000471
241 0.000461
242 0.000452
243 0.000451
244 0.000449
245 0.000446
246 0.000452
247 0.000453
248 0.000452
249 0.000454
250 0.000457
251 0.000464
252 0.000462
253 0.000465
254 0.000469
255 0.000472
256 0.000473
257 0.000475
258 0.000484
259 0.000489
260 0.000494
261 0.000495
262 0.000496
263 0.000485
264 0.000467
265 0.000452
266 0.000442
267 0.000436
268 0.000434
269 0.000427
270 0.000419
271 0.000411
272 0.000400
273 0.000395
274 0.000393
275 0.000383
276 0.000377
277 0.000372
278 0.000374
279 0.000381
280 0.000386
281 0.000387
282 0.000390
283 0.000394
284 0.000398
285 0.000406
286 0.000408
287 0.000409
288 0.000414
289 0.000419
290 0.000415
291 0.000412
292 0.000413
293 0.000406
294 0.000401
295 0.000398
296 0.000398
297 0.000392
298 0.000378
299 0.000373
300 0.000376
301 0.000369
302 0.000373
303 0.000373
304 0.000378
305 0.000381
306 0.000386
307 0.000393
308 0.000402
309 0.000411
310 0.000408
311 0.000407
312 0.000404
313 0.000395
314 0.000397
315 0.000395
316 0.000395
317 0.000389
318 0.000384
319 0.000383
320 0.000378
321 0.000371
322 0.000368
323 0.000367
324 0.000363
325 0.000355
326 0.000354
327 0.000355
328 0.000351
329 0.000340
330 0.000336
331 0.000336
332 0.000337
333 0.000343
334 0.000350
335 0.000356
336 0.000357
337 0.000346
338 0.000342
339 0.000333
340 0.000330
341 0.000325
342 0.000321
343 0.000316
344 0.000317
345 0.000320
346 0.000314
347 0.000312
348 0.000313
349 0.000317
350 0.000325
351 0.000325
352 0.000324
353 0.000327
354 0.000333
355 0.000337
356 0.000342
357 0.000343
358 0.000343
359 0.000341
360 0.000347
361 0.000354
362 0.000357
363 0.000354
364 0.000354
365 0.000362
366 0.000364
367 0.000361
368 0.000357
369 0.000353
370 0.000352
371 0.000355
372 0.000355
373 0.000356
374 0.000359
375 0.000356
376 0.000361
377 0.000359
378 0.000354
379 0.000351
380 0.000345
381 0.000338
382 0.000335
383 0.000332
384 0.000331
385 0.000334
386 0.000342
387 0.000345
388 0.000348
389 0.000354
390 0.000361
391 0.000365
392 0.000365
393 0.000364
394 0.000365
395 0.000372
396 0.000380
397 0.000390
398 0.000394
399 0.000399
400 0.000399
401 0.000392
402 0.000384
403 0.000377
404 0.000377
405 0.000376
406 0.000376
407 0.000382
408 0.000379
409 0.000381
410 0.000380
411 0.000385
412 0.000389
413 0.000388
414 0.000393
415 0.000395
416 0.000398
417 0.000397
418 0.000399
419 0.000398
420 0.000399
421 0.000394
422 0.000393
423 0.000393
424 0.000388
425 0.000381
426 0.000374
427 0.000370
428 0.000362
429 0.000358
430 0.000353
431 0.000350
432 0.000345
433 0.000341
434 0.000336
435 0.000340
436 0.000341
437 0.000344
438 0.000349
439 0.000353
440 0.000356
441 0.000355
442 0.000356
443 0.000361
444 0.000364
445 0.000368
446 0.000368
447 0.000367
448 0.000363
449 0.000357
450 0.000352
451 0.000352
452 0.000357
453 0.000356
454 0.000348
455 0.000346
456 0.000340
457 0.000334
458 0.000330
459 0.000325
460 0.000326
461 0.000323
462 0.000322
463 0.000324
464 0.000324
465 0.000321
466 0.000323
467 0.000316
468 0.000306
469 0.000296
470 0.000290
471 0.000290
472 0.000291
473 0.000294
474 0.000292
475 0.000291
476 0.000288
477 0.000290
478 0.000293
479 0.000290
480 0.000286
481 0.000286
482 0.000286
483 0.000292
484 0.000302
485 0.000316
486 0.000325
487 0.000336
488 0.000345
489 0.000353
490 0.000355
491 0.000357
492 0.000353
493 0.000348
494 0.000343
495 0.000339
496 0.000339
497 0.000335
498 0.000328
499 0.000320
500 0.000311
501 0.000299
502 0.000294
503 0.000288
504 0.000288
505 0.000290
506 0.000291
507 0.000292
508 0.000290
509 0.000291
510 0.000288
511 0.000294
512 0.000293
513 0.000297
514 0.000297
515 0.000300
516 0.000303
517 0.000306
518 0.000305
519 0.000304
520 0.000302
521 0.000298
522 0.000292
523 0.000291
524 0.000287
525 0.000284
526 0.000281
527 0.000277
528 0.000280
529 0.000281
530 0.000278
531 0.000273
532 0.000276
533 0.000278
534 0.000278
535 0.000275
536 0.000270
537 0.000269
538 0.000270
539 0.000269
540 0.000269
541 0.000264
542 0.000260
543 0.000260
544 0.000257
545 0.000255
546 0.000249
547 0.000248
548 0.000243
549 0.000236
550 0.000231
551 0.000223
552 0.000216
553 0.000210
554 0.000212
555 0.000212
556 0.000207
557 0.000198
558 0.000201
559 0.000201
560 0.000208
561 0.000209
562 0.000215
563 0.000214
564 0.000214
565 0.000211
566 0.000210
567 0.000211
568 0.000215
569 0.000215
570 0.000215
571 0.000217
572 0.000211
573 0.000210
574 0.000208
575 0.000210
576 0.000220
577 0.000230
578 0.000241
579 0.000250
580 0.000254
581 0.000257
582 0.000259
583 0.000260
584 0.000258
585 0.000257
586 0.000251
587 0.000247
588 0.000243
589 0.000237
590 0.000238
591 0.000243
592 0.000246
593 0.000248
594 0.000253
595 0.000259
596 0.000268
597 0.000268
598 0.000267
599 0.000267
600 0.000268
601 0.000269
602 0.000271
603 0.000272
604 0.000269
605 0.000265
606 0.000270
607 0.000274
608 0.000275
609 0.000277
610 0.000279
611 0.000285
612 0.000293
613 0.000298
614 0.000301
615 0.000301
616 0.000306
617 0.000310
618 0.000317
619 0.000322
620 0.000323
621 0.000320
622 0.000322
623 0.000324
624 0.000330
625 0.000330
626 0.000329
627 0.000328
628 0.000329
629 0.000322
630 0.000312
631 0.000299
632 0.000289
633 0.000284
634 0.000283
635 0.000281
636 0.000275
637 0.000263
638 0.000252
639 0.000244
640 0.000243
641 0.000238
642 0.000235
643 0.000229
644 0.000229
645 0.000228
646 0.000224
647 0.000217
648 0.000212
649 0.000208
650 0.000208
651 0.000206
652 0.000205
653 0.000202
654 0.000200
655 0.000198
656 0.000199
657 0.000199
658 0.000203
659 0.000206
660 0.000211
661 0.000211
662 0.000210
663 0.000205
664 0.000201
665 0.000201
666 0.000203
667 0.000208
668 0.000213
669 0.000219
670 0.000223
671 0.000228
672 0.000230
673 0.000230
674 0.000229
675 0.000226
676 0.000227
677 0.000227
678 0.000229
679 0.000231
680 0.000232
681 0.000230
682 0.000227
683 0.000226
684 0.000226
685 0.000228
686 0.000228
687 0.000224
688 0.000219
689 0.000214
690 0.000209
691 0.000205
692 0.000205
693 0.000198
694 0.000193
695 0.000189
696 0.000187
697 0.000186
698 0.000187
699 0.000184
700 0.000183
701 0.000178
702 0.000175
703 0.000170
704 0.000168
705 0.000164
706 0.000165
707 0.000167
708 0.000167
709 0.000165
710 0.000165
711 0.000165
712 0.000165
713 0.000165
714 0.000165
715 0.000165
716 0.000164
717 0.000158
718 0.000153
719 0.000142
720 0.000133
721 0.000127
722 0.000122
723 0.000125
724 0.000123
725 0.000118
726 0.000119
727 0.000117
728 0.000117
729 0.000114
730 0.000110
731 0.000108
732 0.000106
733 0.000105
734 0.000109
735 0.000106
736 0.000097
737 0.000088
738 0.000080
739 0.000076
740 0.000073
741 0.000068
742 0.000064
743 0.000058
744 0.000052
745 0.000050
746 0.000051
747 0.000056
748 0.000056
749 0.000059
750 0.000058
751 0.000058
752 0.000058
753 0.000054
754 0.000052
755 0.000053
756 0.000055
757 0.000056
758 0.000055
759 0.000056
760 0.000056
761 0.000055
762 0.000055
763 0.000057
764 0.000061
765 0.000066
766 0.000071
767 0.000074
768 0.000076
769 0.000077
770 0.000078
771 0.000082
772 0.000086
773 0.000091
774 0.000096
775 0.000098
776 0.000098
777 0.000096
778 0.000097
779 0.000101
780 0.000108
781 0.000115
782 0.000121
783 0.000122
784 0.000118
785 0.000117
786 0.000113
787 0.000112
788 0.000115
789 0.000115
790 0.000116
791 0.000115
792 0.000114
793 0.000110
794 0.000107
795 0.000107
796 0.000110
797 0.000113
798 0.000116
799 0.000118
800 0.000123
801 0.000129
802 0.000129
803 0.000129
804 0.000127
805 0.000128
806 0.000133
807 0.000141
808 0.000146
809 0.000150
