# i correlation
1 0.002035
2 0.001977
3 0.001923
4 0.001876
5 0.001835
6 0.001801
7 0.001777
8 0.001757
9 0.001737
10 0.001711
11 0.001684
12 0.001653
13 0.001629
14 0.001610
15 0.001587
16 0.001575
17 0.001566
18 0.001561
19 0.001552
20 0.001545
21 0.001534
22 0.001525
23 0.001520
24 0.001514
25 0.001510
26 0.001508
27 0.001517
28 0.001527
29 0.001531
30 0.001534
31 0.001538
32 0.001533
33 0.001528
34 0.001528
35 0.001524
36 0.001531
37 0.001523
38 0.001512
39 0.001508
40 0.001499
41 0.001487
42 0.001472
43 0.001456
44 0.001449
45 0.001442
46 0.001444
47 0.001446
48 0.001444
49 0.001447
50 0.001445
51 0.001440
52 0.001435
53 0.001435
54 0.001432
55 0.001427
56 0.001421
57 0.001417
58 0.001417
59 0.001413
60 0.001415
61 0.001409
62 0.001404
63 0.001404
64 0.001399
65 0.001391
66 0.001381
67 0.001373
68 0.001357
69 0.001344
70 0.001333
71 0.001319
72 0.001305
73 0.001302
74 0.001293
75 0.001283
76 0.001275
77 0.001270
78 0.001272
79 0.001264
80 0.001259
81 0.001255
82 0.001251
83 0.001253
84 0.001257
85 0.001261
86 0.001264
87 0.001277
88 0.001283
89 0.001286
90 0.001287
91 0.001279
92 0.001271
93 0.001265
94 0.001264
95 0.001267
96 0.001271
97 0.001274
98 0.001277
99 0.001276
100 0.001274
101 0.001276
102 0.001273
103 0.001267
104 0.001259
105 0.001246
106 0.001230
107 0.001219
108 0.001207
109 0.001195
110 0.001187
111 0.001181
112 0.001178
113 0.001178
114 0.001179
115 0.001171
116 0.001163
117 0.001155
118 0.001152
119 0.001143
120 0.001138
121 0.001141
122 0.001145
123 0.001155
124 0.001158
125 0.001156
126 0.001148
127 0.001144
128 0.001139
129 0.001137
130 0.001133
131 0.001133
132 0.001142
133 0.001144
134 0.001142
135 0.001139
136 0.001134
137 0.001133
138 0.001133
139 0.001133
140 0.001132
141 0.001138
142 0.001141
143 0.001137
144 0.001135
145 0.001128
146 0.001119
147 0.001112
148 0.001107
149 0.001109
150 0.001110
151 0.001114
152 0.001110
153 0.001103
154 0.001102
155 0.001090
156 0.001070
157 0.001054
158 0.001038
159 0.001025
160 0.001016
161 0.001006
162 0.001004
163 0.001006
164 0.001004
165 0.001008
166 0.000996
167 0.000986
168 0.000979
169 0.000970
170 0.000960
171 0.000955
172 0.000955
173 0.000962
174 0.000971
175 0.000972
176 0.000976
177 0.000980
178 0.000983
179 0.000982
180 0.000980
181 0.000983
182 0.000983
183 0.000976
184 0.000967
185 0.000964
186 0.000962
187 0.000955
188 0.000947
189 0.000939
190 0.000938
191 0.000939
192 0.000934
193 0.000921
194 0.000909
195 0.000895
196 0.000886
197 0.000872
198 0.000859
199 0.000845
200 0.000834
201 0.000838
202 0.000838
203 0.000838
204 0.000840
205 0.000844
206 0.000840
207 0.000839
208 0.000838
209 0.000843
210 0.000843
211 0.000846
212 0.000854
213 0.000856
214 0.000854
215 0.000852
216 0.000847
217 0.000843
218 0.000840
219 0.000834
220 0.000827
221 0.000818
222 0.000809
223 0.000798
224 0.000789
225 0.000785
226 0.000783
227 0.000785
228 0.000790
229 0.000788
230 0.000784
231 0.000775
232 0.000775
233 0.000768
234 0.000763
235 0.000758
236 0.000760
237 0.000767
238 0.000776
239 0.000786
240 0.000795
241 0.000807
242 0.000811
243 0.000817
244 0.000816
245 0.000813
246 0.000811
247 0.000805
248 0.000799
249 0.000790
250 0.000785
251 0.000782
252 0.000785
253 0.000784
254 0.000784
255 0.000784
256 0.000777
257 0.000770
258 0.000762
259 0.000748
260 0.000735
261 0.000728
262 0.000722
263 0.000716
264 0.000717
265 0.000717
266 0.000714
267 0.000707
268 0.000701
269 0.000693
270 0.000686
271 0.000678
272 0.000678
273 0.000681
274 0.000686
275 0.000691
276 0.000698
277 0.000700
278 0.000703
279 0.000705
280 0.000703
281 0.000701
282 0.000702
283 0.000699
284 0.000694
285 0.000687
286 0.000687
287 0.000686
288 0.000687
289 0.000682
290 0.000682
291 0.000685
292 0.000686
293 0.000684
294 0.000679
295 0.000676
296 0.000671
297 0.000668
298 0.000667
299 0.000669
300 0.000671
301 0.000673
302 0.000675
303 0.000676
304 0.000678
305 0.000682
306 0.000687
307 0.000692
308 0.000691
309 0.000695
310 0.000689
311 0.000683
312 0.000679
313 0.000678
314 0.000678
315 0.000681
316 0.000681
317 0.000673
318 0.000669
319 0.000672
320 0.000669
321 0.000661
322 0.000653
323 0.000644
324 0.000637
325 0.000634
326 0.000633
327 0.000632
328 0.000636
329 0.000636
330 0.000640
331 0.000640
332 0.000637
333 0.000638
334 0.000637
335 0.000635
336 0.000638
337 0.000639
338 0.000633
339 0.000628
340 0.000623
341 0.000622
342 0.000619
343 0.000623
344 0.000624
345 0.000625
346 0.000622
347 0.000614
348 0.000609
349 0.000605
350 0.000600
351 0.000603
352 0.000603
353 0.000607
354 0.000611
355 0.000620
356 0.000626
357 0.000622
358 0.000612
359 0.000603
360 0.000606
361 0.000606
362 0.000606
363 0.000607
364 0.000610
365 0.000610
366 0.000614
367 0.000615
368 0.000615
369 0.000621
370 0.000622
371 0.000626
372 0.000629
373 0.000628
374 0.000623
375 0.000617
376 0.000613
377 0.000612
378 0.000613
379 0.000612
380 0.000615
381 0.000610
382 0.000611
383 0.000614
384 0.000612
385 0.000615
386 0.000615
387 0.000617
388 0.000618
389 0.000622
390 0.000626
391 0.000633
392 0.000639
393 0.000644
394 0.000653
395 0.000649
396 0.000647
397 0.000647
398 0.000639
399 0.000632
400 0.000623
401 0.000616
402 0.000612
403 0.000610
404 0.000605
405 0.000600
406 0.000595
407 0.000586
408 0.000579
409 0.000573
410 0.000570
411 0.000568
412 0.000564
413 0.000559
414 0.000558
415 0.000558
416 0.000559
417 0.000563
418 0.000565
419 0.000573
420 0.000581
421 0.000588
422 0.000596
423 0.000603
424 0.000608
425 0.000607
426 0.000603
427 0.000599
428 0.000597
429 0.000600
430 0.000609
431 0.000615
432 0.000620
433 0.000633
434 0.000638
435 0.000639
436 0.000635
437 0.000635
438 0.000634
439 0.000631
440 0.000628
441 0.000624
442 0.000616
443 0.000608
444 0.000601
445 0.000593
446 0.000585
447 0.000577
448 0.000568
449 0.000554
450 0.000546
451 0.000545
452 0.000545
453 0.000545
454 0.000549
455 0.000552
456 0.000555
457 0.000556
458 0.000559
459 0.000560
460 0.000561
461 0.000564
462 0.000560
463 0.000556
464 0.000554
465 0.000552
466 0.000552
467 0.000553
468 0.000559
469 0.000570
470 0.000583
471 0.000584
472 0.000587
473 0.000587
474 0.000590
475 0.000586
476 0.000578
477 0.000570
478 0.000570
479 0.000570
480 0.000571
481 0.000569
482 0.000569
483 0.000568
484 0.000566
485 0.000562
486 0.000556
487 0.000554
488 0.000554
489 0.000550
490 0.000550
491 0.000544
492 0.000541
493 0.000541
494 0.000540
495 0.000540
496 0.000534
497 0.000527
498 0.000522
499 0.000515
500 0.000509
501 0.000502
502 0.000495
503 0.000487
504 0.000481
505 0.000470
506 0.000464
507 0.000456
508 0.000449
509 0.000440
510 0.000436
511 0.000433
512 0.000427
513 0.000417
514 0.000411
515 0.000406
516 0.000405
517 0.000406
518 0.000413
519 0.000419
520 0.000424
521 0.000427
522 0.000425
523 0.000420
524 0.000419
525 0.000419
526 0.000420
527 0.000426
528 0.000430
529 0.000435
530 0.000434
531 0.000437
532 0.000434
533 0.000430
534 0.000434
535 0.000437
536 0.000438
537 0.000438
538 0.000440
539 0.000437
540 0.000431
541 0.000429
542 0.000425
543 0.000423
544 0.000419
545 0.000420
546 0.000425
547 0.000428
548 0.000431
549 0.000428
550 0.000421
551 0.000410
552 0.000406
553 0.000403
554 0.000400
555 0.000395
556 0.000396
557 0.000397
558 0.000403
559 0.000405
560 0.000401
561 0.000398
562 0.000394
563 0.000389
564 0.000384
565 0.000384
566 0.000384
567 0.000385
568 0.000386
569 0.000386
570 0.000386
571 0.000389
572 0.000389
573 0.000392
574 0.000396
575 0.000397
576 0.000397
577 0.000398
578 0.000395
579 0.000392
580 0.000388
581 0.000386
582 0.000382
583 0.000380
584 0.000383
585 0.000383
586 0.000380
587 0.000379
588 0.000381
589 0.000382
590 0.000380
591 0.000373
592 0.000371
593 0.000366
594 0.000363
595 0.000360
596 0.000356
597 0.000355
598 0.000354
599 0.000352
600 0.000346
601 0.000347
602 0.000350
603 0.000353
604 0.000353
605 0.000355
606 0.000357
607 0.000363
608 0.000368
609 0.000369
610 0.000369
611 0.000369
612 0.000372
613 0.000372
614 0.000369
615 0.000370
616 0.000373
617 0.000371
618 0.000368
619 0.000364
620 0.000356
621 0.000351
622 0.000344
623 0.000340
624 0.000342
625 0.000341
626 0.000340
627 0.000336
628 0.000329
629 0.000324
630 0.000316
631 0.000310
632 0.000305
633 0.000302
634 0.000299
635 0.000298
636 0.000298
637 0.000298
638 0.000295
639 0.000291
640 0.000283
641 0.000274
642 0.000266
643 0.000264
644 0.000263
645 0.000261
646 0.000261
647 0.000262
648 0.000262
649 0.000261
650 0.000259
651 0.000254
652 0.000255
653 0.000250
654 0.000245
655 0.000246
656 0.000246
657 0.000244
658 0.000240
659 0.000234
660 0.000232
661 0.000226
662 0.000220
663 0.000215
664 0.000209
665 0.000205
666 0.000200
667 0.000195
668 0.000190
669 0.000189
670 0.000188
671 0.000186
672 0.000187
673 0.000187
674 0.000187
675 0.000189
676 0.000194
677 0.000195
678 0.000195
679 0.000199
680 0.000202
681 0.000203
682 0.000204
683 0.000204
684 0.000201
685 0.000204
686 0.000206
687 0.000206
688 0.000208
689 0.000211
690 0.000210
691 0.000210
692 0.000210
693 0.000207
694 0.000205
695 0.000200
696 0.000199
697 0.000202
698 0.000204
699 0.000205
700 0.000203
701 0.000201
702 0.000199
703 0.000199
704 0.000196
705 0.000192
706 0.000193
707 0.000193
708 0.000193
709 0.000194
710 0.000194
711 0.000196
712 0.000197
713 0.000200
714 0.000199
715 0.000197
716 0.000194
717 0.000190
718 0.000184
719 0.000180
720 0.000178
721 0.000178
722 0.000180
723 0.000181
724 0.000179
725 0.000178
726 0.000177
727 0.000177
728 0.000175
729 0.000169
730 0.000162
731 0.000154
732 0.000147
733 0.000143
734 0.000141
735 0.000139
736 0.000139
737 0.000140
738 0.000143
739 0.000146
740 0.000149
741 0.000148
742 0.000150
743 0.000152
744 0.000152
745 0.000155
746 0.000156
747 0.000160
748 0.000161
749 0.000160
750 0.000161
751 0.000157
752 0.000155
753 0.000152
754 0.000152
755 0.000151
756 0.000150
757 0.000149
758 0.000144
759 0.000139
760 0.000132
761 0.000125
762 0.000118
763 0.000110
764 0.000101
765 0.000091
766 0.000085
767 0.000081
768 0.000077
769 0.000074
770 0.000070
771 0.000065
772 0.000061
773 0.000061
774 0.000064
775 0.000070
776 0.000077
777 0.000085
778 0.000089
779 0.000093
780 0.000097
781 0.000102
782 0.000108
783 0.000111
784 0.000115
785 0.000118
786 0.000123
787 0.000122
788 0.000125
789 0.000129
790 0.000133
791 0.000135
792 0.000135
793 0.000141
794 0.000144
795 0.000146
796 0.000145
797 0.000145
798 0.000142
799 0.000139
800 0.000136
801 0.000137
802 0.000140
803 0.000140
804 0.000139
805 0.000135
806 0.000132
807 0.000129
808 0.000126
809 0.000127
