# i correlation
1 0.001581
2 0.001519
3 0.001465
4 0.001424
5 0.001386
6 0.001351
7 0.001320
8 0.001297
9 0.001274
10 0.001250
11 0.001237
12 0.001226
13 0.001212
14 0.001194
15 0.001183
16 0.001170
17 0.001156
18 0.001150
19 0.001142
20 0.001131
21 0.001121
22 0.001112
23 0.001106
24 0.001101
25 0.001094
26 0.001081
27 0.001080
28 0.001070
29 0.001057
30 0.001039
31 0.001029
32 0.001023
33 0.001015
34 0.001007
35 0.000993
36 0.000989
37 0.000977
38 0.000966
39 0.000958
40 0.000955
41 0.000949
42 0.000938
43 0.000925
44 0.000914
45 0.000919
46 0.000922
47 0.000927
48 0.000932
49 0.000940
50 0.000939
51 0.000934
52 0.000923
53 0.000906
54 0.000899
55 0.000891
56 0.000895
57 0.000893
58 0.000885
59 0.000878
60 0.000874
61 0.000871
62 0.000873
63 0.000871
64 0.000870
65 0.000868
66 0.000860
67 0.000850
68 0.000847
69 0.000847
70 0.000852
71 0.000848
72 0.000849
73 0.000845
74 0.000836
75 0.000831
76 0.000823
77 0.000809
78 0.000796
79 0.000786
80 0.000779
81 0.000774
82 0.000761
83 0.000757
84 0.000753
85 0.000749
86 0.000744
87 0.000739
88 0.000741
89 0.000735
90 0.000731
91 0.000725
92 0.000717
93 0.000706
94 0.000691
95 0.000681
96 0.000681
97 0.000683
98 0.000687
99 0.000689
100 0.000684
101 0.000677
102 0.000669
103 0.000662
104 0.000653
105 0.000654
106 0.000649
107 0.000650
108 0.000654
109 0.000658
110 0.000657
111 0.000662
112 0.000662
113 0.000661
114 0.000658
115 0.000661
116 0.000656
117 0.000647
118 0.000635
119 0.000619
120 0.000607
121 0.000605
122 0.000601
123 0.000592
124 0.000582
125 0.000570
126 0.000568
127 0.000567
128 0.000563
129 0.000565
130 0.000572
131 0.000574
132 0.000579
133 0.000583
134 0.000587
135 0.000592
136 0.000600
137 0.000601
138 0.000602
139 0.000603
140 0.000596
141 0.000589
142 0.000587
143 0.000578
144 0.000567
145 0.000564
146 0.000556
147 0.000552
148 0.000551
149 0.000547
150 0.000543
151 0.000537
152 0.000523
153 0.000516
154 0.000513
155 0.000513
156 0.000508
157 0.000511
158 0.000508
159 0.000502
160 0.000505
161 0.000508
162 0.000515
163 0.000526
164 0.000529
165 0.000530
166 0.000525
167 0.000519
168 0.000513
169 0.000507
170 0.000500
171 0.000501
172 0.000505
173 0.000513
174 0.000514
175 0.000514
176 0.000515
177 0.000517
178 0.000520
179 0.000518
180 0.000516
181 0.000517
182 0.000516
183 0.000522
184 0.000524
185 0.000527
186 0.000534
187 0.000541
188 0.000549
189 0.000556
190 0.000563
191 0.000568
192 0.000566
193 0.000562
194 0.000562
195 0.000560
196 0.000565
197 0.000567
198 0.000566
199 0.000566
200 0.000560
201 0.000553
202 0.000552
203 0.000547
204 0.000545
205 0.000545
206 0.000547
207 0.000554
208 0.000553
209 0.000553
210 0.000553
211 0.000551
212 0.000544
213 0.000537
214 0.000537
215 0.000533
216 0.000524
217 0.000514
218 0.000505
219 0.000501
220 0.000500
221 0.000493
222 0.000488
223 0.000490
224 0.000490
225 0.000495
226 0.000503
227 0.000515
228 0.000520
229 0.000520
230 0.000522
231 0.000519
232 0.000513
233 0.000500
234 0.000492
235 0.000484
236 0.000478
237 0.000470
238 0.000472
239 0.000473
240 0.000466
241 0.000466
242 0.000466
243 0.000470
244 0.000474
245 0.000477
246 0.000485
247 0.000495
248 0.000497
249 0.000490
250 0.000481
251 0.000474
252 0.000470
253 0.000468
254 0.000465
255 0.000462
256 0.000465
257 0.000468
258 0.000470
259 0.000471
260 0.000474
261 0.000486
262 0.000493
263 0.000503
264 0.000510
265 0.000517
266 0.000531
267 0.000535
268 0.000537
269 0.000536
270 0.000536
271 0.000531
272 0.000528
273 0.000517
274 0.000511
275 0.000507
276 0.000505
277 0.000505
278 0.000504
279 0.000505
280 0.000505
281 0.000506
282 0.000501
283 0.000497
284 0.000496
285 0.000490
286 0.000483
287 0.000473
288 0.000464
289 0.000457
290 0.000456
291 0.000456
292 0.000464
293 0.000469
294 0.000469
295 0.000474
296 0.000476
297 0.000477
298 0.000478
299 0.000483
300 0.000484
301 0.000482
302 0.000480
303 0.000478
304 0.000483
305 0.000479
306 0.000472
307 0.000462
308 0.000454
309 0.000446
310 0.000445
311 0.000449
312 0.000452
313 0.000446
314 0.000436
315 0.000432
316 0.000428
317 0.000428
318 0.000429
319 0.000432
320 0.000435
321 0.000430
322 0.000426
323 0.000427
324 0.000430
325 0.000431
326 0.000436
327 0.000436
328 0.000440
329 0.000443
330 0.000446
331 0.000450
332 0.000449
333 0.000446
334 0.000442
335 0.000437
336 0.000436
337 0.000441
338 0.000445
339 0.000445
340 0.000449
341 0.000452
342 0.000451
343 0.000445
344 0.000437
345 0.000429
346 0.000424
347 0.000420
348 0.000410
349 0.000412
350 0.000408
351 0.000408
352 0.000407
353 0.000408
354 0.000411
355 0.000408
356 0.000407
357 0.000409
358 0.000409
359 0.000411
360 0.000415
361 0.000414
362 0.000418
363 0.000416
364 0.000417
365 0.000416
366 0.000413
367 0.000407
368 0.000404
369 0.000407
370 0.000410
371 0.000409
372 0.000404
373 0.000396
374 0.000396
375 0.000397
376 0.000399
377 0.000401
378 0.000401
379 0.000397
380 0.000398
381 0.000401
382 0.000409
383 0.000414
384 0.000409
385 0.000408
386 0.000405
387 0.000404
388 0.000404
389 0.000405
390 0.000406
391 0.000408
392 0.000409
393 0.000410
394 0.000412
395 0.000409
396 0.000410
397 0.000409
398 0.000409
399 0.000410
400 0.000409
401 0.000409
402 0.000409
403 0.000416
404 0.000411
405 0.000406
406 0.000400
407 0.000400
408 0.000399
409 0.000401
410 0.000407
411 0.000417
412 0.000416
413 0.000414
414 0.000413
415 0.000410
416 0.000406
417 0.000404
418 0.000402
419 0.000402
420 0.000395
421 0.000390
422 0.000386
423 0.000378
424 0.000368
425 0.000357
426 0.000350
427 0.000344
428 0.000337
429 0.000327
430 0.000325
431 0.000319
432 0.000318
433 0.000313
434 0.000317
435 0.000323
436 0.000320
437 0.000320
438 0.000322
439 0.000330
440 0.000337
441 0.000341
442 0.000340
443 0.000341
444 0.000337
445 0.000334
446 0.000325
447 0.000317
448 0.000305
449 0.000292
450 0.000286
451 0.000282
452 0.000282
453 0.000282
454 0.000280
455 0.000281
456 0.000281
457 0.000283
458 0.000286
459 0.000293
460 0.000294
461 0.000294
462 0.000297
463 0.000296
464 0.000295
465 0.000291
466 0.000290
467 0.000294
468 0.000300
469 0.000304
470 0.000304
471 0.000303
472 0.000304
473 0.000304
474 0.000303
475 0.000308
476 0.000310
477 0.000313
478 0.000307
479 0.000300
480 0.000296
481 0.000292
482 0.000284
483 0.000278
484 0.000274
485 0.000267
486 0.000261
487 0.000256
488 0.000253
489 0.000248
490 0.000248
491 0.000254
492 0.000263
493 0.000268
494 0.000274
495 0.000273
496 0.000271
497 0.000267
498 0.000259
499 0.000251
500 0.000245
501 0.000240
502 0.000238
503 0.000235
504 0.000231
505 0.000223
506 0.000216
507 0.000214
508 0.000213
509 0.000217
510 0.000216
511 0.000212
512 0.000207
513 0.000201
514 0.000199
515 0.000194
516 0.000188
517 0.000181
518 0.000180
519 0.000181
520 0.000179
521 0.000173
522 0.000169
523 0.000168
524 0.000169
525 0.000173
526 0.000180
527 0.000189
528 0.000195
529 0.000196
530 0.000196
531 0.000200
532 0.000205
533 0.000208
534 0.000205
535 0.000199
536 0.000196
537 0.000193
538 0.000191
539 0.000195
540 0.000199
541 0.000199
542 0.000197
543 0.000203
544 0.000204
545 0.000210
546 0.000213
547 0.000218
548 0.000224
549 0.000231
550 0.000240
551 0.000245
552 0.000249
553 0.000252
554 0.000255
555 0.000256
556 0.000260
557 0.000265
558 0.000272
559 0.000278
560 0.000283
561 0.000286
562 0.000286
563 0.000283
564 0.000278
565 0.000276
566 0.000273
567 0.000274
568 0.000278
569 0.000278
570 0.000276
571 0.000274
572 0.000277
573 0.000280
574 0.000282
575 0.000282
576 0.000284
577 0.000288
578 0.000286
579 0.000285
580 0.000283
581 0.000283
582 0.000280
583 0.000276
584 0.000273
585 0.000268
586 0.000265
587 0.000261
588 0.000256
589 0.000252
590 0.000252
591 0.000247
592 0.000242
593 0.000237
594 0.000230
595 0.000227
596 0.000229
597 0.000231
598 0.000231
599 0.000234
600 0.000232
601 0.000233
602 0.000232
603 0.000235
604 0.000236
605 0.000236
606 0.000233
607 0.000234
608 0.000239
609 0.000240
610 0.000238
611 0.000231
612 0.000221
613 0.000212
614 0.000202
615 0.000198
616 0.000195
617 0.000198
618 0.000202
619 0.000204
620 0.000202
621 0.000198
622 0.000195
623 0.000198
624 0.000200
625 0.000197
626 0.000197
627 0.000196
628 0.000198
629 0.000201
630 0.000204
631 0.000206
632 0.000206
633 0.000203
634 0.000199
635 0.000193
636 0.000187
637 0.000179
638 0.000175
639 0.000169
640 0.000165
641 0.000163
642 0.000165
643 0.000163
644 0.000163
645 0.000161
646 0.000159
647 0.000153
648 0.000148
649 0.000143
650 0.000142
651 0.000137
652 0.000130
653 0.000122
654 0.000113
655 0.000110
656 0.000102
657 0.000100
658 0.000098
659 0.000098
660 0.000098
661 0.000103
662 0.000104
663 0.000106
664 0.000107
665 0.000107
666 0.000111
667 0.000115
668 0.000118
669 0.000127
670 0.000134
671 0.000136
672 0.000135
673 0.000134
674 0.000135
675 0.000139
676 0.000138
677 0.000134
678 0.000129
679 0.000130
680 0.000127
681 0.000126
682 0.000132
683 0.000136
684 0.000139
685 0.000138
686 0.000139
687 0.000140
688 0.000145
689 0.000151
690 0.000154
691 0.000159
692 0.000160
693 0.000163
694 0.000162
695 0.000161
696 0.000156
697 0.000151
698 0.000147
699 0.000137
700 0.000127
701 0.000124
702 0.000122
703 0.000122
704 0.000120
705 0.000113
706 0.000112
707 0.000112
708 0.000112
709 0.000113
710 0.000113
711 0.000114
712 0.000109
713 0.000105
714 0.000101
715 0.000102
716 0.000104
717 0.000103
718 0.000101
719 0.000102
720 0.000104
721 0.000101
722 0.000102
723 0.000103
724 0.000103
725 0.000103
726 0.000102
727 0.000096
728 0.000087
729 0.000081
730 0.000077
731 0.000075
732 0.000072
733 0.000070
734 0.000070
735 0.000072
736 0.000073
737 0.000071
738 0.000077
739 0.000083
740 0.000089
741 0.000095
742 0.000097
743 0.000096
744 0.000092
745 0.000092
746 0.000087
747 0.000086
748 0.000077
749 0.000072
750 0.000069
751 0.000070
752 0.000071
753 0.000074
754 0.000078
755 0.000081
756 0.000083
757 0.000087
758 0.000093
759 0.000100
760 0.000108
761 0.000112
762 0.000114
763 0.000117
764 0.000120
765 0.000124
766 0.000126
767 0.000126
768 0.000128
769 0.000127
770 0.000124
771 0.000123
772 0.000125
773 0.000125
774 0.000125
775 0.000123
776 0.000122
777 0.000120
778 0.000120
779 0.000120
780 0.000120
781 0.000122
782 0.000120
783 0.000115
784 0.000114
785 0.000111
786 0.000111
787 0.000113
788 0.000111
789 0.000108
790 0.000107
791 0.000103
792 0.000100
793 0.000099
794 0.000098
795 0.000094
796 0.000093
797 0.000092
798 0.000089
799 0.000086
800 0.000083
801 0.000083
802 0.000085
803 0.000084
804 0.000085
805 0.000083
806 0.000089
807 0.000094
808 0.000099
809 0.000102
