# i correlation
1 0.002073
2 0.002004
3 0.001942
4 0.001885
5 0.001837
6 0.001796
7 0.001754
8 0.001716
9 0.001686
10 0.001660
11 0.001638
12 0.001621
13 0.001608
14 0.001595
15 0.001581
16 0.001569
17 0.001560
18 0.001554
19 0.001548
20 0.001542
21 0.001537
22 0.001539
23 0.001538
24 0.001537
25 0.001532
26 0.001523
27 0.001515
28 0.001507
29 0.001495
30 0.001479
31 0.001468
32 0.001464
33 0.001462
34 0.001463
35 0.001467
36 0.001476
37 0.001482
38 0.001485
39 0.001487
40 0.001486
41 0.001487
42 0.001487
43 0.001485
44 0.001477
45 0.001471
46 0.001468
47 0.001461
48 0.001450
49 0.001446
50 0.001439
51 0.001435
52 0.001427
53 0.001418
54 0.001408
55 0.001399
56 0.001387
57 0.001372
58 0.001357
59 0.001346
60 0.001330
61 0.001323
62 0.001313
63 0.001304
64 0.001296
65 0.001294
66 0.001291
67 0.001297
68 0.001300
69 0.001300
70 0.001300
71 0.001300
72 0.001300
73 0.001297
74 0.001293
75 0.001284
76 0.001274
77 0.001263
78 0.001260
79 0.001251
80 0.001244
81 0.001230
82 0.001218
83 0.001217
84 0.001216
85 0.001219
86 0.001231
87 0.001240
88 0.001247
89 0.001253
90 0.001257
91 0.001262
92 0.001267
93 0.001260
94 0.001251
95 0.001244
96 0.001235
97 0.001230
98 0.001225
99 0.001217
100 0.001204
101 0.001193
102 0.001186
103 0.001185
104 0.001190
105 0.001197
106 0.001197
107 0.001189
108 0.001190
109 0.001185
110 0.001190
111 0.001190
112 0.001187
113 0.001183
114 0.001178
115 0.001173
116 0.001167
117 0.001154
118 0.001137
119 0.001125
120 0.001111
121 0.001098
122 0.001091
123 0.001086
124 0.001082
125 0.001084
126 0.001089
127 0.001095
128 0.001101
129 0.001110
130 0.001109
131 0.001103
132 0.001096
133 0.001088
134 0.001076
135 0.001064
136 0.001055
137 0.001048
138 0.001042
139 0.001036
140 0.001031
141 0.001031
142 0.001024
143 0.001023
144 0.001021
145 0.001020
146 0.001023
147 0.001027
148 0.001029
149 0.001030
150 0.001029
151 0.001030
152 0.001027
153 0.001031
154 0.001030
155 0.001027
156 0.001021
157 0.001014
158 0.001009
159 0.001005
160 0.001000
161 0.000996
162 0.000988
163 0.000988
164 0.000991
165 0.000995
166 0.000994
167 0.000987
168 0.000978
169 0.000972
170 0.000961
171 0.000954
172 0.000949
173 0.000937
174 0.000915
175 0.000903
176 0.000894
177 0.000887
178 0.000886
179 0.000883
180 0.000875
181 0.000861
182 0.000854
183 0.000847
184 0.000840
185 0.000833
186 0.000828
187 0.000821
188 0.000816
189 0.000810
190 0.000806
191 0.000806
192 0.000810
193 0.000806
194 0.000806
195 0.000814
196 0.000823
197 0.000831
198 0.000833
199 0.000828
200 0.000830
201 0.000831
202 0.000834
203 0.000830
204 0.000828
205 0.000825
206 0.000820
207 0.000814
208 0.000806
209 0.000801
210 0.000805
211 0.000807
212 0.000810
213 0.000808
214 0.000815
215 0.000821
216 0.000833
217 0.000835
218 0.000840
219 0.000846
220 0.000853
221 0.000857
222 0.000856
223 0.000852
224 0.000858
225 0.000863
226 0.000858
227 0.000849
228 0.000837
229 0.000820
230 0.000803
231 0.000787
232 0.000778
233 0.000776
234 0.000776
235 0.000777
236 0.000781
237 0.000787
238 0.000802
239 0.000823
240 0.000833
241 0.000842
242 0.000847
243 0.000851
244 0.000850
245 0.000844
246 0.000838
247 0.000835
248 0.000831
249 0.000829
250 0.000823
251 0.000819
252 0.000815
253 0.000812
254 0.000809
255 0.000801
256 0.000804
257 0.000808
258 0.000810
259 0.000810
260 0.000813
261 0.000814
262 0.000816
263 0.000825
264 0.000828
265 0.000832
266 0.000835
267 0.000837
268 0.000836
269 0.000835
270 0.000834
271 0.000834
272 0.000826
273 0.000810
274 0.000793
275 0.000787
276 0.000778
277 0.000773
278 0.000769
279 0.000768
280 0.000760
281 0.000757
282 0.000754
283 0.000751
284 0.000747
285 0.000744
286 0.000741
287 0.000738
288 0.000743
289 0.000748
290 0.000755
291 0.000759
292 0.000763
293 0.000764
294 0.000766
295 0.000763
296 0.000754
297 0.000740
298 0.000729
299 0.000715
300 0.000705
301 0.000696
302 0.000688
303 0.000678
304 0.000672
305 0.000669
306 0.000664
307 0.000663
308 0.000666
309 0.000666
310 0.000670
311 0.000674
312 0.000683
313 0.000695
314 0.000708
315 0.000720
316 0.000731
317 0.000742
318 0.000747
319 0.000747
320 0.000737
321 0.000724
322 0.000711
323 0.000692
324 0.000682
325 0.000673
326 0.000671
327 0.000671
328 0.000665
329 0.000662
330 0.000664
331 0.000668
332 0.000670
333 0.000671
334 0.000670
335 0.000664
336 0.000661
337 0.000660
338 0.000661
339 0.000660
340 0.000662
341 0.000667
342 0.000665
343 0.000663
344 0.000661
345 0.000657
346 0.000648
347 0.000640
348 0.000634
349 0.000629
350 0.000619
351 0.000616
352 0.000611
353 0.000609
354 0.000611
355 0.000619
356 0.000619
357 0.000618
358 0.000618
359 0.000619
360 0.000615
361 0.000612
362 0.000609
363 0.000607
364 0.000611
365 0.000617
366 0.000622
367 0.000633
368 0.000644
369 0.000656
370 0.000663
371 0.000665
372 0.000661
373 0.000657
374 0.000653
375 0.000647
376 0.000645
377 0.000643
378 0.000638
379 0.000636
380 0.000635
381 0.000632
382 0.000628
383 0.000625
384 0.000619
385 0.000617
386 0.000615
387 0.000612
388 0.000607
389 0.000606
390 0.000608
391 0.000606
392 0.000601
393 0.000590
394 0.000582
395 0.000572
396 0.000567
397 0.000566
398 0.000564
399 0.000560
400 0.000557
401 0.000553
402 0.000551
403 0.000551
404 0.000558
405 0.000565
406 0.000572
407 0.000580
408 0.000586
409 0.000583
410 0.000581
411 0.000581
412 0.000583
413 0.000578
414 0.000574
415 0.000567
416 0.000564
417 0.000560
418 0.000559
419 0.000556
420 0.000553
421 0.000553
422 0.000553
423 0.000555
424 0.000556
425 0.000556
426 0.000556
427 0.000553
428 0.000547
429 0.000543
430 0.000541
431 0.000541
432 0.000540
433 0.000535
434 0.000533
435 0.000534
436 0.000536
437 0.000535
438 0.000534
439 0.000531
440 0.000528
441 0.000525
442 0.000521
443 0.000519
444 0.000518
445 0.000518
446 0.000517
447 0.000514
448 0.000511
449 0.000506
450 0.000496
451 0.000488
452 0.000473
453 0.000459
454 0.000453
455 0.000445
456 0.000437
457 0.000433
458 0.000434
459 0.000436
460 0.000434
461 0.000431
462 0.000426
463 0.000423
464 0.000417
465 0.000408
466 0.000398
467 0.000393
468 0.000391
469 0.000391
470 0.000392
471 0.000386
472 0.000376
473 0.000370
474 0.000370
475 0.000368
476 0.000363
477 0.000361
478 0.000359
479 0.000358
480 0.000359
481 0.000361
482 0.000365
483 0.000377
484 0.000387
485 0.000398
486 0.000407
487 0.000415
488 0.000416
489 0.000414
490 0.000412
491 0.000408
492 0.000408
493 0.000407
494 0.000406
495 0.000412
496 0.000418
497 0.000423
498 0.000427
499 0.000423
500 0.000417
501 0.000406
502 0.000396
503 0.000382
504 0.000374
505 0.000370
506 0.000366
507 0.000363
508 0.000358
509 0.000356
510 0.000356
511 0.000357
512 0.000355
513 0.000355
514 0.000353
515 0.000346
516 0.000338
517 0.000329
518 0.000320
519 0.000310
520 0.000304
521 0.000297
522 0.000294
523 0.000293
524 0.000291
525 0.000287
526 0.000287
527 0.000288
528 0.000289
529 0.000292
530 0.000291
531 0.000292
532 0.000295
533 0.000301
534 0.000306
535 0.000311
536 0.000309
537 0.000314
538 0.000316
539 0.000316
540 0.000315
541 0.000316
542 0.000314
543 0.000310
544 0.000304
545 0.000297
546 0.000291
547 0.000280
548 0.000269
549 0.000260
550 0.000256
551 0.000255
552 0.000256
553 0.000251
554 0.000248
555 0.000244
556 0.000242
557 0.000245
558 0.000243
559 0.000240
560 0.000236
561 0.000233
562 0.000232
563 0.000231
564 0.000227
565 0.000230
566 0.000234
567 0.000232
568 0.000229
569 0.000227
570 0.000218
571 0.000211
572 0.000206
573 0.000201
574 0.000198
575 0.000194
576 0.000188
577 0.000180
578 0.000173
579 0.000169
580 0.000169
581 0.000170
582 0.000171
583 0.000176
584 0.000178
585 0.000183
586 0.000184
587 0.000186
588 0.000190
589 0.000190
590 0.000189
591 0.000187
592 0.000186
593 0.000180
594 0.000179
595 0.000176
596 0.000174
597 0.000174
598 0.000174
599 0.000172
600 0.000172
601 0.000170
602 0.000168
603 0.000169
604 0.000166
605 0.000163
606 0.000166
607 0.000168
608 0.000173
609 0.000178
610 0.000182
611 0.000179
612 0.000180
613 0.000176
614 0.000167
615 0.000158
616 0.000148
617 0.000142
618 0.000139
619 0.000133
620 0.000126
621 0.000122
622 0.000117
623 0.000116
624 0.000117
625 0.000116
626 0.000117
627 0.000120
628 0.000123
629 0.000121
630 0.000123
631 0.000123
632 0.000125
633 0.000129
634 0.000130
635 0.000128
636 0.000127
637 0.000125
638 0.000123
639 0.000124
640 0.000127
641 0.000129
642 0.000128
643 0.000130
644 0.000127
645 0.000126
646 0.000131
647 0.000133
648 0.000133
649 0.000137
650 0.000139
651 0.000144
652 0.000148
653 0.000149
654 0.000149
655 0.000150
656 0.000155
657 0.000154
658 0.000153
659 0.000154
660 0.000155
661 0.000159
662 0.000162
663 0.000162
664 0.000160
665 0.000158
666 0.000153
667 0.000147
668 0.000141
669 0.000133
670 0.000127
671 0.000121
672 0.000113
673 0.000108
674 0.000106
675 0.000105
676 0.000101
677 0.000096
678 0.000093
679 0.000094
680 0.000095
681 0.000095
682 0.000096
683 0.000096
684 0.000097
685 0.000099
686 0.000104
687 0.000104
688 0.000105
689 0.000107
690 0.000107
691 0.000107
692 0.000106
693 0.000107
694 0.000107
695 0.000110
696 0.000115
697 0.000120
698 0.000128
699 0.000135
700 0.000140
701 0.000141
702 0.000145
703 0.000147
704 0.000149
705 0.000149
706 0.000146
707 0.000143
708 0.000142
709 0.000142
710 0.000143
711 0.000144
712 0.000143
713 0.000141
714 0.000138
715 0.000132
716 0.000127
717 0.000121
718 0.000118
719 0.000114
720 0.000110
721 0.000110
722 0.000111
723 0.000116
724 0.000121
725 0.000126
726 0.000129
727 0.000129
728 0.000128
729 0.000130
730 0.000130
731 0.000129
732 0.000127
733 0.000126
734 0.000126
735 0.000127
736 0.000126
737 0.000129
738 0.000135
739 0.000141
740 0.000142
741 0.000143
742 0.000142
743 0.000139
744 0.000139
745 0.000140
746 0.000139
747 0.000139
748 0.000139
749 0.000138
750 0.000139
751 0.000143
752 0.000144
753 0.000150
754 0.000153
755 0.000157
756 0.000160
757 0.000163
758 0.000165
759 0.000164
760 0.000162
761 0.000158
762 0.000156
763 0.000157
764 0.000155
765 0.000152
766 0.000150
767 0.000150
768 0.000143
769 0.000135
770 0.000126
771 0.000121
772 0.000118
773 0.000112
774 0.000106
775 0.000101
776 0.000096
777 0.000093
778 0.000095
779 0.000097
780 0.000098
781 0.000099
782 0.000096
783 0.000096
784 0.000096
785 0.000098
786 0.000100
787 0.000100
788 0.000102
789 0.000105
790 0.000113
791 0.000120
792 0.000124
793 0.000126
794 0.000128
795 0.000128
796 0.000129
797 0.000129
798 0.000127
799 0.000128
800 0.000127
801 0.000125
802 0.000124
803 0.000120
804 0.000119
805 0.000118
806 0.000117
807 0.000114
808 0.000109
809 0.000104
