# i correlation
1 0.001789
2 0.001719
3 0.001659
4 0.001611
5 0.001575
6 0.001555
7 0.001534
8 0.001515
9 0.001494
10 0.001486
11 0.001475
12 0.001477
13 0.001482
14 0.001485
15 0.001481
16 0.001474
17 0.001463
18 0.001448
19 0.001427
20 0.001405
21 0.001383
22 0.001364
23 0.001349
24 0.001344
25 0.001340
26 0.001328
27 0.001313
28 0.001296
29 0.001282
30 0.001268
31 0.001254
32 0.001249
33 0.001249
34 0.001240
35 0.001229
36 0.001214
37 0.001206
38 0.001200
39 0.001189
40 0.001180
41 0.001168
42 0.001157
43 0.001142
44 0.001128
45 0.001111
46 0.001099
47 0.001089
48 0.001078
49 0.001062
50 0.001048
51 0.001044
52 0.001047
53 0.001042
54 0.001035
55 0.001035
56 0.001031
57 0.001024
58 0.001020
59 0.001012
60 0.001001
61 0.000993
62 0.000989
63 0.000990
64 0.000983
65 0.000977
66 0.000971
67 0.000963
68 0.000956
69 0.000955
70 0.000959
71 0.000970
72 0.000978
73 0.000980
74 0.000973
75 0.000966
76 0.000966
77 0.000970
78 0.000968
79 0.000961
80 0.000950
81 0.000940
82 0.000927
83 0.000917
84 0.000915
85 0.000910
86 0.000905
87 0.000894
88 0.000886
89 0.000884
90 0.000882
91 0.000878
92 0.000879
93 0.000879
94 0.000877
95 0.000874
96 0.000873
97 0.000869
98 0.000861
99 0.000852
100 0.000843
101 0.000834
102 0.000826
103 0.000810
104 0.000805
105 0.000803
106 0.000801
107 0.000798
108 0.000796
109 0.000796
110 0.000799
111 0.000804
112 0.000804
113 0.000803
114 0.000803
115 0.000801
116 0.000799
117 0.000797
118 0.000798
119 0.000800
120 0.000798
121 0.000796
122 0.000789
123 0.000790
124 0.000796
125 0.000800
126 0.000797
127 0.000788
128 0.000776
129 0.000775
130 0.000774
131 0.000774
132 0.000775
133 0.000773
134 0.000775
135 0.000782
136 0.000783
137 0.000784
138 0.000792
139 0.000797
140 0.000805
141 0.000809
142 0.000806
143 0.000800
144 0.000795
145 0.000792
146 0.000788
147 0.000781
148 0.000776
149 0.000775
150 0.000771
151 0.000773
152 0.000775
153 0.000777
154 0.000772
155 0.000774
156 0.000774
157 0.000777
158 0.000779
159 0.000781
160 0.000770
161 0.000770
162 0.000764
163 0.000757
164 0.000757
165 0.000759
166 0.000747
167 0.000735
168 0.000721
169 0.000709
170 0.000697
171 0.000694
172 0.000694
173 0.000696
174 0.000695
175 0.000695
176 0.000683
177 0.000675
178 0.000667
179 0.000666
180 0.000661
181 0.000659
182 0.000653
183 0.000643
184 0.000628
185 0.000612
186 0.000607
187 0.000608
188 0.000610
189 0.000606
190 0.000597
191 0.000592
192 0.000582
193 0.000574
194 0.000567
195 0.000561
196 0.000556
197 0.000557
198 0.000559
199 0.000556
200 0.000548
201 0.000539
202 0.000532
203 0.000524
204 0.000518
205 0.000515
206 0.000511
207 0.000512
208 0.000512
209 0.000508
210 0.000505
211 0.000504
212 0.000505
213 0.000506
214 0.000510
215 0.000509
216 0.000506
217 0.000507
218 0.000498
219 0.000492
220 0.000483
221 0.000475
222 0.000464
223 0.000457
224 0.000455
225 0.000451
226 0.000448
227 0.000447
228 0.000445
229 0.000444
230 0.000450
231 0.000459
232 0.000463
233 0.000458
234 0.000451
235 0.000445
236 0.000443
237 0.000441
238 0.000439
239 0.000436
240 0.000432
241 0.000425
242 0.000417
243 0.000409
244 0.000408
245 0.000413
246 0.000419
247 0.000418
248 0.000412
249 0.000405
250 0.000401
251 0.000394
252 0.000392
253 0.000388
254 0.000391
255 0.000391
256 0.000388
257 0.000386
258 0.000382
259 0.000380
260 0.000375
261 0.000373
262 0.000366
263 0.000364
264 0.000367
265 0.000373
266 0.000373
267 0.000372
268 0.000367
269 0.000365
270 0.000372
271 0.000379
272 0.000385
273 0.000387
274 0.000386
275 0.000382
276 0.000374
277 0.000372
278 0.000369
279 0.000367
280 0.000363
281 0.000362
282 0.000363
283 0.000365
284 0.000372
285 0.000378
286 0.000383
287 0.000386
288 0.000392
289 0.000392
290 0.000388
291 0.000383
292 0.000377
293 0.000368
294 0.000364
295 0.000361
296 0.000361
297 0.000367
298 0.000375
299 0.000384
300 0.000392
301 0.000396
302 0.000401
303 0.000402
304 0.000404
305 0.000401
306 0.000396
307 0.000392
308 0.000385
309 0.000377
310 0.000374
311 0.000372
312 0.000376
313 0.000381
314 0.000386
315 0.000383
316 0.000382
317 0.000383
318 0.000378
319 0.000374
320 0.000366
321 0.000360
322 0.000363
323 0.000364
324 0.000361
325 0.000357
326 0.000357
327 0.000353
328 0.000349
329 0.000350
330 0.000350
331 0.000344
332 0.000334
333 0.000325
334 0.000318
335 0.000308
336 0.000305
337 0.000302
338 0.000302
339 0.000302
340 0.000309
341 0.000313
342 0.000316
343 0.000320
344 0.000324
345 0.000320
346 0.000318
347 0.000313
348 0.000310
349 0.000308
350 0.000313
351 0.000317
352 0.000319
353 0.000316
354 0.000313
355 0.000313
356 0.000315
357 0.000313
358 0.000308
359 0.000302
360 0.000291
361 0.000283
362 0.000279
363 0.000281
364 0.000284
365 0.000291
366 0.000297
367 0.000304
368 0.000308
369 0.000316
370 0.000322
371 0.000318
372 0.000312
373 0.000306
374 0.000301
375 0.000303
376 0.000311
377 0.000321
378 0.000331
379 0.000332
380 0.000332
381 0.000334
382 0.000337
383 0.000344
384 0.000350
385 0.000354
386 0.000354
387 0.000345
388 0.000337
389 0.000329
390 0.000330
391 0.000326
392 0.000323
393 0.000317
394 0.000319
395 0.000323
396 0.000333
397 0.000337
398 0.000339
399 0.000338
400 0.000340
401 0.000337
402 0.000339
403 0.000341
404 0.000337
405 0.000338
406 0.000333
407 0.000333
408 0.000330
409 0.000329
410 0.000328
411 0.000333
412 0.000341
413 0.000349
414 0.000355
415 0.000360
416 0.000359
417 0.000353
418 0.000349
419 0.000353
420 0.000358
421 0.000367
422 0.000375
423 0.000379
424 0.000378
425 0.000374
426 0.000368
427 0.000367
428 0.000369
429 0.000371
430 0.000372
431 0.000365
432 0.000362
433 0.000362
434 0.000361
435 0.000362
436 0.000362
437 0.000359
438 0.000361
439 0.000365
440 0.000373
441 0.000379
442 0.000383
443 0.000382
444 0.000374
445 0.000369
446 0.000364
447 0.000362
448 0.000367
449 0.000368
450 0.000361
451 0.000353
452 0.000346
453 0.000342
454 0.000344
455 0.000345
456 0.000342
457 0.000341
458 0.000338
459 0.000338
460 0.000339
461 0.000342
462 0.000342
463 0.000348
464 0.000346
465 0.000346
466 0.000342
467 0.000341
468 0.000336
469 0.000334
470 0.000334
471 0.000331
472 0.000326
473 0.000322
474 0.000319
475 0.000316
476 0.000314
477 0.000310
478 0.000309
479 0.000308
480 0.000308
481 0.000307
482 0.000305
483 0.000303
484 0.000302
485 0.000297
486 0.000294
487 0.000291
488 0.000287
489 0.000278
490 0.000266
491 0.000260
492 0.000255
493 0.000252
494 0.000251
495 0.000246
496 0.000249
497 0.000249
498 0.000254
499 0.000260
500 0.000264
501 0.000274
502 0.000282
503 0.000285
504 0.000287
505 0.000292
506 0.000296
507 0.000294
508 0.000295
509 0.000295
510 0.000297
511 0.000302
512 0.000305
513 0.000304
514 0.000304
515 0.000309
516 0.000314
517 0.000319
518 0.000323
519 0.000325
520 0.000333
521 0.000342
522 0.000345
523 0.000343
524 0.000339
525 0.000338
526 0.000340
527 0.000342
528 0.000340
529 0.000340
530 0.000338
531 0.000344
532 0.000348
533 0.000353
534 0.000358
535 0.000362
536 0.000365
537 0.000369
538 0.000370
539 0.000374
540 0.000376
541 0.000378
542 0.000376
543 0.000377
544 0.000376
545 0.000380
546 0.000382
547 0.000385
548 0.000385
549 0.000390
550 0.000391
551 0.000390
552 0.000388
553 0.000391
554 0.000396
555 0.000399
556 0.000401
557 0.000405
558 0.000407
559 0.000412
560 0.000414
561 0.000418
562 0.000418
563 0.000415
564 0.000416
565 0.000414
566 0.000408
567 0.000404
568 0.000402
569 0.000399
570 0.000394
571 0.000391
572 0.000392
573 0.000396
574 0.000406
575 0.000415
576 0.000419
577 0.000424
578 0.000427
579 0.000428
580 0.000426
581 0.000422
582 0.000415
583 0.000410
584 0.000409
585 0.000406
586 0.000405
587 0.000406
588 0.000409
589 0.000408
590 0.000407
591 0.000409
592 0.000409
593 0.000406
594 0.000408
595 0.000407
596 0.000406
597 0.000399
598 0.000394
599 0.000386
600 0.000381
601 0.000381
602 0.000379
603 0.000373
604 0.000369
605 0.000363
606 0.000353
607 0.000347
608 0.000343
609 0.000337
610 0.000337
611 0.000334
612 0.000333
613 0.000331
614 0.000327
615 0.000322
616 0.000324
617 0.000322
618 0.000313
619 0.000304
620 0.000295
621 0.000291
622 0.000292
623 0.000291
624 0.000290
625 0.000286
626 0.000284
627 0.000282
628 0.000281
629 0.000282
630 0.000280
631 0.000277
632 0.000272
633 0.000265
634 0.000258
635 0.000252
636 0.000245
637 0.000236
638 0.000225
639 0.000215
640 0.000208
641 0.000201
642 0.000198
643 0.000191
644 0.000184
645 0.000182
646 0.000183
647 0.000184
648 0.000185
649 0.000187
650 0.000191
651 0.000194
652 0.000196
653 0.000196
654 0.000194
655 0.000196
656 0.000195
657 0.000192
658 0.000188
659 0.000185
660 0.000180
661 0.000178
662 0.000176
663 0.000175
664 0.000176
665 0.000175
666 0.000175
667 0.000176
668 0.000176
669 0.000180
670 0.000186
671 0.000189
672 0.000192
673 0.000196
674 0.000195
675 0.000195
676 0.000194
677 0.000194
678 0.000190
679 0.000189
680 0.000189
681 0.000187
682 0.000187
683 0.000184
684 0.000185
685 0.000188
686 0.000191
687 0.000192
688 0.000195
689 0.000197
690 0.000198
691 0.000194
692 0.000194
693 0.000194
694 0.000198
695 0.000202
696 0.000205
697 0.000206
698 0.000212
699 0.000216
700 0.000218
701 0.000218
702 0.000219
703 0.000217
704 0.000214
705 0.000211
706 0.000212
707 0.000211
708 0.000213
709 0.000212
710 0.000211
711 0.000209
712 0.000207
713 0.000209
714 0.000209
715 0.000205
716 0.000201
717 0.000198
718 0.000198
719 0.000205
720 0.000210
721 0.000211
722 0.000210
723 0.000208
724 0.000201
725 0.000197
726 0.000197
727 0.000194
728 0.000190
729 0.000189
730 0.000186
731 0.000183
732 0.000185
733 0.000188
734 0.000194
735 0.000196
736 0.000203
737 0.000209
738 0.000211
739 0.000210
740 0.000210
741 0.000209
742 0.000210
743 0.000213
744 0.000208
745 0.000204
746 0.000200
747 0.000200
748 0.000203
749 0.000205
750 0.000209
751 0.000215
752 0.000216
753 0.000218
754 0.000219
755 0.000219
756 0.000216
757 0.000214
758 0.000209
759 0.000201
760 0.000192
761 0.000185
762 0.000179
763 0.000177
764 0.000173
765 0.000172
766 0.000175
767 0.000179
768 0.000184
769 0.000189
770 0.000191
771 0.000194
772 0.000191
773 0.000188
774 0.000185
775 0.000180
776 0.000171
777 0.000163
778 0.000154
779 0.000145
780 0.000137
781 0.000132
782 0.000126
783 0.000119
784 0.000112
785 0.000110
786 0.000108
787 0.000104
788 0.000099
789 0.000093
790 0.000091
791 0.000091
792 0.000092
793 0.000092
794 0.000088
795 0.000083
796 0.000073
797 0.000064
798 0.000056
799 0.000049
800 0.000042
801 0.000031
802 0.000020
803 0.000014
804 0.000008
805 0.000004
806 0.000001
807 -0.000004
808 -0.000008
809 -0.000012
