# i correlation
1 0.001440
2 0.001383
3 0.001338
4 0.001297
5 0.001252
6 0.001219
7 0.001191
8 0.001160
9 0.001136
10 0.001123
11 0.001119
12 0.001115
13 0.001115
14 0.001111
15 0.001099
16 0.001091
17 0.001085
18 0.001072
19 0.001063
20 0.001058
21 0.001050
22 0.001033
23 0.001019
24 0.001011
25 0.001007
26 0.000998
27 0.000996
28 0.000994
29 0.000995
30 0.000994
31 0.000984
32 0.000979
33 0.000973
34 0.000964
35 0.000955
36 0.000941
37 0.000929
38 0.000920
39 0.000917
40 0.000910
41 0.000906
42 0.000899
43 0.000896
44 0.000899
45 0.000902
46 0.000913
47 0.000912
48 0.000917
49 0.000916
50 0.000910
51 0.000896
52 0.000882
53 0.000871
54 0.000856
55 0.000841
56 0.000825
57 0.000817
58 0.000806
59 0.000805
60 0.000807
61 0.000805
62 0.000807
63 0.000812
64 0.000816
65 0.000817
66 0.000814
67 0.000807
68 0.000804
69 0.000804
70 0.000799
71 0.000796
72 0.000798
73 0.000800
74 0.000793
75 0.000787
76 0.000791
77 0.000794
78 0.000794
79 0.000794
80 0.000800
81 0.000799
82 0.000799
83 0.000807
84 0.000815
85 0.000816
86 0.000810
87 0.000808
88 0.000800
89 0.000793
90 0.000784
91 0.000775
92 0.000766
93 0.000762
94 0.000757
95 0.000756
96 0.000757
97 0.000761
98 0.000764
99 0.000763
100 0.000757
101 0.000755
102 0.000758
103 0.000760
104 0.000761
105 0.000767
106 0.000769
107 0.000775
108 0.000783
109 0.000782
110 0.000781
111 0.000774
112 0.000776
113 0.000771
114 0.000763
115 0.000757
116 0.000749
117 0.000746
118 0.000743
119 0.000747
120 0.000748
121 0.000743
122 0.000742
123 0.000744
124 0.000738
125 0.000730
126 0.000731
127 0.000725
128 0.000720
129 0.000716
130 0.000710
131 0.000711
132 0.000713
133 0.000722
134 0.000718
135 0.000711
136 0.000705
137 0.000700
138 0.000690
139 0.000681
140 0.000675
141 0.000667
142 0.000660
143 0.000653
144 0.000646
145 0.000638
146 0.000639
147 0.000640
148 0.000638
149 0.000630
150 0.000621
151 0.000617
152 0.000617
153 0.000618
154 0.000624
155 0.000627
156 0.000636
157 0.000647
158 0.000663
159 0.000667
160 0.000676
161 0.000683
162 0.000674
163 0.000671
164 0.000660
165 0.000656
166 0.000645
167 0.000641
168 0.000639
169 0.000641
170 0.000639
171 0.000642
172 0.000652
173 0.000654
174 0.000648
175 0.000645
176 0.000638
177 0.000639
178 0.000635
179 0.000632
180 0.000626
181 0.000623
182 0.000625
183 0.000626
184 0.000622
185 0.000627
186 0.000632
187 0.000633
188 0.000634
189 0.000630
190 0.000626
191 0.000622
192 0.000619
193 0.000617
194 0.000606
195 0.000600
196 0.000595
197 0.000593
198 0.000590
199 0.000594
200 0.000594
201 0.000593
202 0.000594
203 0.000595
204 0.000602
205 0.000605
206 0.000606
207 0.000615
208 0.000621
209 0.000623
210 0.000626
211 0.000633
212 0.000630
213 0.000624
214 0.000613
215 0.000604
216 0.000596
217 0.000595
218 0.000590
219 0.000581
220 0.000581
221 0.000583
222 0.000581
223 0.000579
224 0.000582
225 0.000583
226 0.000580
227 0.000581
228 0.000579
229 0.000581
230 0.000585
231 0.000594
232 0.000601
233 0.000607
234 0.000611
235 0.000612
236 0.000612
237 0.000611
238 0.000607
239 0.000599
240 0.000588
241 0.000584
242 0.000577
243 0.000573
244 0.000570
245 0.000571
246 0.000570
247 0.000567
248 0.000564
249 0.000558
250 0.000556
251 0.000547
252 0.000535
253 0.000525
254 0.000516
255 0.000506
256 0.000506
257 0.000503
258 0.000496
259 0.000498
260 0.000495
261 0.000491
262 0.000489
263 0.000489
264 0.000491
265 0.000491
266 0.000496
267 0.000495
268 0.000497
269 0.000491
270 0.000488
271 0.000488
272 0.000483
273 0.000477
274 0.000470
275 0.000467
276 0.000461
277 0.000462
278 0.000462
279 0.000460
280 0.000467
281 0.000466
282 0.000459
283 0.000453
284 0.000459
285 0.000461
286 0.000453
287 0.000445
288 0.000438
289 0.000436
290 0.000428
291 0.000424
292 0.000423
293 0.000423
294 0.000428
295 0.000430
296 0.000433
297 0.000431
298 0.000427
299 0.000418
300 0.000415
301 0.000411
302 0.000401
303 0.000387
304 0.000376
305 0.000372
306 0.000369
307 0.000368
308 0.000365
309 0.000364
310 0.000364
311 0.000366
312 0.000365
313 0.000368
314 0.000374
315 0.000379
316 0.000379
317 0.000379
318 0.000386
319 0.000401
320 0.000410
321 0.000417
322 0.000417
323 0.000420
324 0.000425
325 0.000430
326 0.000435
327 0.000432
328 0.000435
329 0.000435
330 0.000437
331 0.000438
332 0.000442
333 0.000448
334 0.000453
335 0.000456
336 0.000448
337 0.000439
338 0.000426
339 0.000422
340 0.000419
341 0.000416
342 0.000411
343 0.000411
344 0.000418
345 0.000422
346 0.000426
347 0.000425
348 0.000425
349 0.000424
350 0.000424
351 0.000425
352 0.000420
353 0.000420
354 0.000414
355 0.000409
356 0.000409
357 0.000408
358 0.000407
359 0.000401
360 0.000405
361 0.000401
362 0.000393
363 0.000385
364 0.000389
365 0.000391
366 0.000389
367 0.000388
368 0.000389
369 0.000390
370 0.000391
371 0.000394
372 0.000400
373 0.000407
374 0.000416
375 0.000417
376 0.000420
377 0.000423
378 0.000427
379 0.000427
380 0.000431
381 0.000433
382 0.000429
383 0.000428
384 0.000425
385 0.000423
386 0.000414
387 0.000409
388 0.000403
389 0.000397
390 0.000399
391 0.000396
392 0.000398
393 0.000397
394 0.000402
395 0.000398
396 0.000394
397 0.000394
398 0.000395
399 0.000396
400 0.000390
401 0.000387
402 0.000383
403 0.000381
404 0.000387
405 0.000392
406 0.000401
407 0.000406
408 0.000413
409 0.000414
410 0.000415
411 0.000412
412 0.000406
413 0.000403
414 0.000400
415 0.000395
416 0.000392
417 0.000393
418 0.000395
419 0.000398
420 0.000402
421 0.000409
422 0.000413
423 0.000415
424 0.000419
425 0.000418
426 0.000416
427 0.000412
428 0.000416
429 0.000418
430 0.000413
431 0.000413
432 0.000412
433 0.000409
434 0.000404
435 0.000396
436 0.000395
437 0.000396
438 0.000398
439 0.000396
440 0.000400
441 0.000406
442 0.000409
443 0.000414
444 0.000414
445 0.000410
446 0.000404
447 0.000401
448 0.000399
449 0.000396
450 0.000394
451 0.000389
452 0.000384
453 0.000386
454 0.000392
455 0.000393
456 0.000397
457 0.000406
458 0.000409
459 0.000408
460 0.000407
461 0.000409
462 0.000407
463 0.000405
464 0.000400
465 0.000389
466 0.000378
467 0.000377
468 0.000382
469 0.000378
470 0.000381
471 0.000381
472 0.000380
473 0.000375
474 0.000372
475 0.000363
476 0.000354
477 0.000348
478 0.000345
479 0.000342
480 0.000341
481 0.000337
482 0.000333
483 0.000332
484 0.000328
485 0.000322
486 0.000319
487 0.000313
488 0.000310
489 0.000309
490 0.000305
491 0.000303
492 0.000305
493 0.000312
494 0.000310
495 0.000310
496 0.000309
497 0.000314
498 0.000319
499 0.000316
500 0.000316
501 0.000315
502 0.000316
503 0.000315
504 0.000318
505 0.000318
506 0.000321
507 0.000320
508 0.000318
509 0.000319
510 0.000319
511 0.000316
512 0.000313
513 0.000310
514 0.000311
515 0.000305
516 0.000301
517 0.000296
518 0.000297
519 0.000295
520 0.000289
521 0.000289
522 0.000289
523 0.000285
524 0.000277
525 0.000273
526 0.000267
527 0.000262
528 0.000261
529 0.000260
530 0.000257
531 0.000256
532 0.000253
533 0.000257
534 0.000256
535 0.000254
536 0.000254
537 0.000254
538 0.000250
539 0.000251
540 0.000250
541 0.000252
542 0.000255
543 0.000255
544 0.000255
545 0.000255
546 0.000259
547 0.000261
548 0.000265
549 0.000264
550 0.000268
551 0.000272
552 0.000277
553 0.000280
554 0.000275
555 0.000273
556 0.000267
557 0.000264
558 0.000259
559 0.000253
560 0.000249
561 0.000244
562 0.000241
563 0.000239
564 0.000240
565 0.000240
566 0.000246
567 0.000251
568 0.000251
569 0.000255
570 0.000255
571 0.000253
572 0.000247
573 0.000239
574 0.000230
575 0.000224
576 0.000217
577 0.000213
578 0.000209
579 0.000211
580 0.000213
581 0.000216
582 0.000220
583 0.000228
584 0.000227
585 0.000227
586 0.000228
587 0.000235
588 0.000238
589 0.000241
590 0.000243
591 0.000245
592 0.000245
593 0.000246
594 0.000250
595 0.000250
596 0.000252
597 0.000254
598 0.000253
599 0.000252
600 0.000250
601 0.000254
602 0.000252
603 0.000252
604 0.000249
605 0.000247
606 0.000240
607 0.000230
608 0.000226
609 0.000228
610 0.000229
611 0.000228
612 0.000230
613 0.000230
614 0.000235
615 0.000238
616 0.000244
617 0.000246
618 0.000250
619 0.000251
620 0.000254
621 0.000255
622 0.000251
623 0.000244
624 0.000237
625 0.000230
626 0.000228
627 0.000222
628 0.000218
629 0.000222
630 0.000225
631 0.000228
632 0.000231
633 0.000235
634 0.000235
635 0.000232
636 0.000228
637 0.000223
638 0.000218
639 0.000211
640 0.000209
641 0.000210
642 0.000210
643 0.000210
644 0.000210
645 0.000214
646 0.000214
647 0.000213
648 0.000211
649 0.000214
650 0.000214
651 0.000214
652 0.000213
653 0.000216
654 0.000216
655 0.000219
656 0.000221
657 0.000218
658 0.000220
659 0.000218
660 0.000219
661 0.000220
662 0.000221
663 0.000221
664 0.000221
665 0.000222
666 0.000223
667 0.000224
668 0.000222
669 0.000220
670 0.000221
671 0.000221
672 0.000220
673 0.000219
674 0.000223
675 0.000225
676 0.000218
677 0.000216
678 0.000216
679 0.000220
680 0.000217
681 0.000215
682 0.000212
683 0.000207
684 0.000200
685 0.000198
686 0.000197
687 0.000193
688 0.000190
689 0.000183
690 0.000178
691 0.000174
692 0.000173
693 0.000170
694 0.000170
695 0.000168
696 0.000165
697 0.000160
698 0.000157
699 0.000156
700 0.000157
701 0.000157
702 0.000157
703 0.000158
704 0.000158
705 0.000159
706 0.000162
707 0.000167
708 0.000172
709 0.000178
710 0.000182
711 0.000182
712 0.000176
713 0.000174
714 0.000171
715 0.000166
716 0.000161
717 0.000155
718 0.000152
719 0.000143
720 0.000137
721 0.000135
722 0.000133
723 0.000130
724 0.000127
725 0.000126
726 0.000124
727 0.000126
728 0.000131
729 0.000136
730 0.000140
731 0.000143
732 0.000142
733 0.000141
734 0.000139
735 0.000138
736 0.000135
737 0.000131
738 0.000130
739 0.000130
740 0.000130
741 0.000129
742 0.000130
743 0.000131
744 0.000131
745 0.000128
746 0.000124
747 0.000123
748 0.000122
749 0.000121
750 0.000121
751 0.000122
752 0.000126
753 0.000128
754 0.000132
755 0.000134
756 0.000135
757 0.000137
758 0.000139
759 0.000138
760 0.000135
761 0.000129
762 0.000124
763 0.000118
764 0.000116
765 0.000111
766 0.000107
767 0.000102
768 0.000101
769 0.000098
770 0.000098
771 0.000096
772 0.000097
773 0.000095
774 0.000096
775 0.000096
776 0.000098
777 0.000101
778 0.000104
779 0.000106
780 0.000103
781 0.000103
782 0.000104
783 0.000103
784 0.000099
785 0.000094
786 0.000090
787 0.000089
788 0.000087
789 0.000088
790 0.000086
791 0.000083
792 0.000082
793 0.000084
794 0.000086
795 0.000087
796 0.000086
797 0.000085
798 0.000086
799 0.000086
800 0.000087
801 0.000087
802 0.000083
803 0.000082
804 0.000080
805 0.000078
806 0.000075
807 0.000072
808 0.000071
809 0.000066
