# i correlation
1 0.001564
2 0.001501
3 0.001451
4 0.001409
5 0.001371
6 0.001341
7 0.001312
8 0.001279
9 0.001257
10 0.001238
11 0.001217
12 0.001200
13 0.001183
14 0.001162
15 0.001139
16 0.001115
17 0.001097
18 0.001073
19 0.001062
20 0.001049
21 0.001034
22 0.001014
23 0.001007
24 0.000999
25 0.000981
26 0.000969
27 0.000956
28 0.000950
29 0.000937
30 0.000928
31 0.000922
32 0.000920
33 0.000923
34 0.000926
35 0.000927
36 0.000923
37 0.000912
38 0.000909
39 0.000909
40 0.000906
41 0.000906
42 0.000904
43 0.000894
44 0.000887
45 0.000879
46 0.000873
47 0.000870
48 0.000864
49 0.000860
50 0.000857
51 0.000864
52 0.000866
53 0.000861
54 0.000859
55 0.000858
56 0.000864
57 0.000869
58 0.000874
59 0.000885
60 0.000890
61 0.000893
62 0.000898
63 0.000898
64 0.000900
65 0.000905
66 0.000903
67 0.000904
68 0.000913
69 0.000915
70 0.000914
71 0.000914
72 0.000919
73 0.000921
74 0.000917
75 0.000912
76 0.000902
77 0.000894
78 0.000888
79 0.000878
80 0.000865
81 0.000850
82 0.000834
83 0.000822
84 0.000815
85 0.000811
86 0.000805
87 0.000802
88 0.000790
89 0.000778
90 0.000771
91 0.000761
92 0.000751
93 0.000748
94 0.000741
95 0.000738
96 0.000736
97 0.000738
98 0.000742
99 0.000745
100 0.000745
101 0.000744
102 0.000735
103 0.000726
104 0.000723
105 0.000710
106 0.000693
107 0.000683
108 0.000680
109 0.000680
110 0.000678
111 0.000675
112 0.000675
113 0.000673
114 0.000674
115 0.000669
116 0.000667
117 0.000659
118 0.000652
119 0.000642
120 0.000631
121 0.000630
122 0.000625
123 0.000620
124 0.000618
125 0.000624
126 0.000625
127 0.000627
128 0.000633
129 0.000638
130 0.000640
131 0.000651
132 0.000668
133 0.000681
134 0.000695
135 0.000706
136 0.000710
137 0.000718
138 0.000721
139 0.000718
140 0.000720
141 0.000721
142 0.000719
143 0.000723
144 0.000726
145 0.000730
146 0.000734
147 0.000738
148 0.000734
149 0.000730
150 0.000723
151 0.000718
152 0.000714
153 0.000705
154 0.000695
155 0.000690
156 0.000686
157 0.000683
158 0.000680
159 0.000683
160 0.000683
161 0.000672
162 0.000652
163 0.000642
164 0.000637
165 0.000640
166 0.000650
167 0.000651
168 0.000655
169 0.000656
170 0.000657
171 0.000646
172 0.000645
173 0.000644
174 0.000633
175 0.000624
176 0.000627
177 0.000624
178 0.000614
179 0.000608
180 0.000600
181 0.000594
182 0.000585
183 0.000575
184 0.000565
185 0.000556
186 0.000549
187 0.000548
188 0.000542
189 0.000538
190 0.000532
191 0.000522
192 0.000513
193 0.000506
194 0.000498
195 0.000484
196 0.000475
197 0.000467
198 0.000454
199 0.000450
200 0.000459
201 0.000460
202 0.000457
203 0.000458
204 0.000461
205 0.000465
206 0.000471
207 0.000478
208 0.000482
209 0.000480
210 0.000479
211 0.000485
212 0.000488
213 0.000497
214 0.000495
215 0.000495
216 0.000493
217 0.000502
218 0.000506
219 0.000513
220 0.000525
221 0.000532
222 0.000535
223 0.000535
224 0.000533
225 0.000531
226 0.000527
227 0.000526
228 0.000527
229 0.000528
230 0.000525
231 0.000524
232 0.000521
233 0.000519
234 0.000520
235 0.000519
236 0.000523
237 0.000526
238 0.000531
239 0.000527
240 0.000523
241 0.000528
242 0.000532
243 0.000531
244 0.000529
245 0.000528
246 0.000528
247 0.000534
248 0.000538
249 0.000531
250 0.000525
251 0.000525
252 0.000521
253 0.000520
254 0.000514
255 0.000510
256 0.000506
257 0.000506
258 0.000506
259 0.000505
260 0.000499
261 0.000492
262 0.000490
263 0.000485
264 0.000482
265 0.000476
266 0.000470
267 0.000461
268 0.000459
269 0.000456
270 0.000452
271 0.000450
272 0.000450
273 0.000448
274 0.000438
275 0.000427
276 0.000423
277 0.000420
278 0.000424
279 0.000432
280 0.000438
281 0.000447
282 0.000455
283 0.000458
284 0.000461
285 0.000466
286 0.000470
287 0.000474
288 0.000482
289 0.000484
290 0.000482
291 0.000487
292 0.000502
293 0.000519
294 0.000526
295 0.000526
296 0.000516
297 0.000513
298 0.000512
299 0.000510
300 0.000515
301 0.000518
302 0.000526
303 0.000527
304 0.000535
305 0.000540
306 0.000545
307 0.000552
308 0.000553
309 0.000553
310 0.000550
311 0.000545
312 0.000544
313 0.000546
314 0.000541
315 0.000539
316 0.000539
317 0.000534
318 0.000528
319 0.000529
320 0.000518
321 0.000514
322 0.000501
323 0.000491
324 0.000479
325 0.000472
326 0.000469
327 0.000465
328 0.000454
329 0.000447
330 0.000436
331 0.000427
332 0.000424
333 0.000424
334 0.000423
335 0.000421
336 0.000427
337 0.000427
338 0.000424
339 0.000418
340 0.000412
341 0.000412
342 0.000411
343 0.000405
344 0.000398
345 0.000393
346 0.000395
347 0.000399
348 0.000406
349 0.000412
350 0.000412
351 0.000417
352 0.000427
353 0.000439
354 0.000444
355 0.000450
356 0.000454
357 0.000454
358 0.000453
359 0.000450
360 0.000454
361 0.000452
362 0.000447
363 0.000444
364 0.000441
365 0.000443
366 0.000448
367 0.000453
368 0.000457
369 0.000459
370 0.000461
371 0.000456
372 0.000459
373 0.000461
374 0.000451
375 0.000447
376 0.000449
377 0.000452
378 0.000452
379 0.000450
380 0.000449
381 0.000445
382 0.000439
383 0.000436
384 0.000428
385 0.000420
386 0.000416
387 0.000418
388 0.000421
389 0.000427
390 0.000431
391 0.000426
392 0.000420
393 0.000418
394 0.000417
395 0.000417
396 0.000414
397 0.000411
398 0.000404
399 0.000392
400 0.000379
401 0.000368
402 0.000366
403 0.000361
404 0.000361
405 0.000359
406 0.000361
407 0.000366
408 0.000366
409 0.000367
410 0.000363
411 0.000366
412 0.000362
413 0.000358
414 0.000359
415 0.000351
416 0.000345
417 0.000344
418 0.000346
419 0.000340
420 0.000334
421 0.000328
422 0.000319
423 0.000314
424 0.000313
425 0.000315
426 0.000317
427 0.000324
428 0.000337
429 0.000348
430 0.000360
431 0.000367
432 0.000374
433 0.000374
434 0.000376
435 0.000376
436 0.000371
437 0.000369
438 0.000374
439 0.000377
440 0.000384
441 0.000391
442 0.000395
443 0.000390
444 0.000389
445 0.000390
446 0.000388
447 0.000387
448 0.000390
449 0.000393
450 0.000395
451 0.000397
452 0.000400
453 0.000412
454 0.000420
455 0.000420
456 0.000413
457 0.000404
458 0.000398
459 0.000384
460 0.000374
461 0.000367
462 0.000361
463 0.000358
464 0.000355
465 0.000356
466 0.000355
467 0.000354
468 0.000358
469 0.000356
470 0.000360
471 0.000358
472 0.000356
473 0.000358
474 0.000367
475 0.000369
476 0.000374
477 0.000380
478 0.000378
479 0.000377
480 0.000377
481 0.000377
482 0.000371
483 0.000365
484 0.000359
485 0.000355
486 0.000354
487 0.000348
488 0.000343
489 0.000342
490 0.000331
491 0.000322
492 0.000318
493 0.000318
494 0.000315
495 0.000310
496 0.000307
497 0.000297
498 0.000282
499 0.000273
500 0.000270
501 0.000265
502 0.000264
503 0.000258
504 0.000256
505 0.000255
506 0.000257
507 0.000258
508 0.000264
509 0.000270
510 0.000272
511 0.000273
512 0.000275
513 0.000282
514 0.000285
515 0.000291
516 0.000291
517 0.000294
518 0.000293
519 0.000295
520 0.000300
521 0.000305
522 0.000308
523 0.000314
524 0.000320
525 0.000326
526 0.000337
527 0.000350
528 0.000360
529 0.000367
530 0.000375
531 0.000374
532 0.000373
533 0.000369
534 0.000362
535 0.000354
536 0.000350
537 0.000345
538 0.000337
539 0.000334
540 0.000334
541 0.000339
542 0.000347
543 0.000351
544 0.000356
545 0.000356
546 0.000360
547 0.000359
548 0.000358
549 0.000354
550 0.000349
551 0.000341
552 0.000329
553 0.000320
554 0.000317
555 0.000314
556 0.000307
557 0.000300
558 0.000291
559 0.000282
560 0.000269
561 0.000265
562 0.000258
563 0.000253
564 0.000245
565 0.000240
566 0.000234
567 0.000229
568 0.000225
569 0.000221
570 0.000222
571 0.000217
572 0.000218
573 0.000216
574 0.000218
575 0.000218
576 0.000217
577 0.000217
578 0.000218
579 0.000220
580 0.000220
581 0.000217
582 0.000218
583 0.000221
584 0.000224
585 0.000226
586 0.000228
587 0.000231
588 0.000234
589 0.000239
590 0.000246
591 0.000249
592 0.000246
593 0.000248
594 0.000248
595 0.000251
596 0.000257
597 0.000264
598 0.000273
599 0.000278
600 0.000284
601 0.000287
602 0.000289
603 0.000288
604 0.000285
605 0.000283
606 0.000282
607 0.000282
608 0.000285
609 0.000284
610 0.000287
611 0.000293
612 0.000296
613 0.000297
614 0.000304
615 0.000310
616 0.000306
617 0.000308
618 0.000313
619 0.000313
620 0.000317
621 0.000321
622 0.000319
623 0.000316
624 0.000313
625 0.000310
626 0.000307
627 0.000303
628 0.000294
629 0.000289
630 0.000282
631 0.000281
632 0.000272
633 0.000259
634 0.000252
635 0.000246
636 0.000236
637 0.000225
638 0.000215
639 0.000203
640 0.000199
641 0.000199
642 0.000198
643 0.000189
644 0.000184
645 0.000185
646 0.000184
647 0.000183
648 0.000180
649 0.000178
650 0.000176
651 0.000174
652 0.000170
653 0.000170
654 0.000173
655 0.000180
656 0.000181
657 0.000182
658 0.000185
659 0.000190
660 0.000195
661 0.000202
662 0.000210
663 0.000212
664 0.000211
665 0.000215
666 0.000215
667 0.000212
668 0.000210
669 0.000211
670 0.000216
671 0.000218
672 0.000221
673 0.000226
674 0.000234
675 0.000241
676 0.000249
677 0.000257
678 0.000262
679 0.000266
680 0.000269
681 0.000274
682 0.000279
683 0.000286
684 0.000289
685 0.000288
686 0.000289
687 0.000292
688 0.000293
689 0.000300
690 0.000303
691 0.000307
692 0.000306
693 0.000306
694 0.000305
695 0.000300
696 0.000299
697 0.000301
698 0.000301
699 0.000304
700 0.000306
701 0.000307
702 0.000309
703 0.000303
704 0.000297
705 0.000289
706 0.000284
707 0.000279
708 0.000269
709 0.000259
710 0.000250
711 0.000242
712 0.000233
713 0.000230
714 0.000230
715 0.000226
716 0.000219
717 0.000213
718 0.000209
719 0.000204
720 0.000200
721 0.000196
722 0.000195
723 0.000193
724 0.000193
725 0.000192
726 0.000193
727 0.000194
728 0.000194
729 0.000191
730 0.000189
731 0.000188
732 0.000189
733 0.000188
734 0.000190
735 0.000190
736 0.000191
737 0.000189
738 0.000184
739 0.000181
740 0.000179
741 0.000177
742 0.000174
743 0.000175
744 0.000172
745 0.000169
746 0.000169
747 0.000166
748 0.000167
749 0.000166
750 0.000167
751 0.000166
752 0.000161
753 0.000159
754 0.000152
755 0.000154
756 0.000158
757 0.000156
758 0.000156
759 0.000157
760 0.000158
761 0.000157
762 0.000157
763 0.000155
764 0.000152
765 0.000149
766 0.000149
767 0.000152
768 0.000152
769 0.000155
770 0.000153
771 0.000148
772 0.000144
773 0.000135
774 0.000132
775 0.000128
776 0.000123
777 0.000116
778 0.000108
779 0.000105
780 0.000102
781 0.000096
782 0.000091
783 0.000087
784 0.000085
785 0.000082
786 0.000082
787 0.000084
788 0.000086
789 0.000085
790 0.000084
791 0.000084
792 0.000084
793 0.000086
794 0.000087
795 0.000088
796 0.000087
797 0.000088
798 0.000085
799 0.000084
800 0.000086
801 0.000088
802 0.000089
803 0.000087
804 0.000086
805 0.000084
806 0.000083
807 0.000082
808 0.000083
809 0.000080
