# i correlation
1 0.001628
2 0.001564
3 0.001514
4 0.001481
5 0.001448
6 0.001415
7 0.001385
8 0.001357
9 0.001332
10 0.001303
11 0.001284
12 0.001268
13 0.001252
14 0.001240
15 0.001225
16 0.001209
17 0.001198
18 0.001196
19 0.001197
20 0.001194
21 0.001182
22 0.001175
23 0.001169
24 0.001167
25 0.001161
26 0.001155
27 0.001156
28 0.001155
29 0.001148
30 0.001140
31 0.001135
32 0.001128
33 0.001123
34 0.001116
35 0.001110
36 0.001097
37 0.001082
38 0.001064
39 0.001056
40 0.001047
41 0.001036
42 0.001026
43 0.001021
44 0.001016
45 0.001006
46 0.000998
47 0.000990
48 0.000976
49 0.000965
50 0.000960
51 0.000955
52 0.000949
53 0.000941
54 0.000937
55 0.000933
56 0.000928
57 0.000926
58 0.000928
59 0.000928
60 0.000926
61 0.000936
62 0.000947
63 0.000960
64 0.000961
65 0.000952
66 0.000945
67 0.000943
68 0.000945
69 0.000944
70 0.000940
71 0.000930
72 0.000926
73 0.000923
74 0.000920
75 0.000917
76 0.000906
77 0.000901
78 0.000899
79 0.000897
80 0.000888
81 0.000885
82 0.000883
83 0.000883
84 0.000874
85 0.000870
86 0.000871
87 0.000872
88 0.000881
89 0.000885
90 0.000891
91 0.000900
92 0.000908
93 0.000914
94 0.000919
95 0.000916
96 0.000912
97 0.000917
98 0.000919
99 0.000916
100 0.000916
101 0.000909
102 0.000911
103 0.000912
104 0.000911
105 0.000903
106 0.000899
107 0.000895
108 0.000894
109 0.000889
110 0.000881
111 0.000874
112 0.000875
113 0.000867
114 0.000862
115 0.000857
116 0.000851
117 0.000843
118 0.000831
119 0.000824
120 0.000815
121 0.000806
122 0.000804
123 0.000799
124 0.000791
125 0.000786
126 0.000789
127 0.000790
128 0.000789
129 0.000784
130 0.000780
131 0.000778
132 0.000781
133 0.000789
134 0.000794
135 0.000789
136 0.000782
137 0.000781
138 0.000773
139 0.000766
140 0.000760
141 0.000757
142 0.000751
143 0.000751
144 0.000751
145 0.000750
146 0.000753
147 0.000758
148 0.000757
149 0.000756
150 0.000757
151 0.000755
152 0.000756
153 0.000753
154 0.000752
155 0.000755
156 0.000757
157 0.000753
158 0.000744
159 0.000733
160 0.000722
161 0.000717
162 0.000714
163 0.000706
164 0.000693
165 0.000678
166 0.000672
167 0.000672
168 0.000668
169 0.000665
170 0.000661
171 0.000659
172 0.000656
173 0.000653
174 0.000653
175 0.000656
176 0.000661
177 0.000666
178 0.000660
179 0.000653
180 0.000658
181 0.000668
182 0.000670
183 0.000672
184 0.000672
185 0.000674
186 0.000670
187 0.000664
188 0.000653
189 0.000649
190 0.000648
191 0.000643
192 0.000633
193 0.000618
194 0.000612
195 0.000609
196 0.000609
197 0.000601
198 0.000595
199 0.000585
200 0.000583
201 0.000583
202 0.000583
203 0.000584
204 0.000587
205 0.000593
206 0.000596
207 0.000602
208 0.000608
209 0.000615
210 0.000623
211 0.000629
212 0.000630
213 0.000632
214 0.000632
215 0.000630
216 0.000632
217 0.000630
218 0.000628
219 0.000627
220 0.000621
221 0.000617
222 0.000608
223 0.000596
224 0.000586
225 0.000579
226 0.000565
227 0.000554
228 0.000542
229 0.000535
230 0.000530
231 0.000529
232 0.000522
233 0.000515
234 0.000514
235 0.000518
236 0.000520
237 0.000519
238 0.000517
239 0.000516
240 0.000515
241 0.000517
242 0.000512
243 0.000510
244 0.000518
245 0.000525
246 0.000531
247 0.000533
248 0.000529
249 0.000535
250 0.000545
251 0.000544
252 0.000548
253 0.000553
254 0.000557
255 0.000557
256 0.000551
257 0.000543
258 0.000542
259 0.000541
260 0.000537
261 0.000529
262 0.000527
263 0.000522
264 0.000523
265 0.000522
266 0.000524
267 0.000525
268 0.000522
269 0.000524
270 0.000528
271 0.000532
272 0.000528
273 0.000526
274 0.000525
275 0.000523
276 0.000519
277 0.000520
278 0.000524
279 0.000528
280 0.000522
281 0.000518
282 0.000515
283 0.000514
284 0.000514
285 0.000511
286 0.000509
287 0.000505
288 0.000501
289 0.000501
290 0.000500
291 0.000495
292 0.000493
293 0.000493
294 0.000495
295 0.000490
296 0.000493
297 0.000497
298 0.000498
299 0.000498
300 0.000496
301 0.000491
302 0.000487
303 0.000483
304 0.000477
305 0.000469
306 0.000463
307 0.000456
308 0.000453
309 0.000451
310 0.000450
311 0.000446
312 0.000438
313 0.000435
314 0.000435
315 0.000433
316 0.000434
317 0.000436
318 0.000438
319 0.000438
320 0.000440
321 0.000442
322 0.000446
323 0.000445
324 0.000445
325 0.000444
326 0.000436
327 0.000433
328 0.000434
329 0.000435
330 0.000431
331 0.000428
332 0.000422
333 0.000418
334 0.000408
335 0.000400
336 0.000388
337 0.000380
338 0.000376
339 0.000375
340 0.000375
341 0.000376
342 0.000375
343 0.000377
344 0.000380
345 0.000386
346 0.000388
347 0.000394
348 0.000396
349 0.000399
350 0.000401
351 0.000400
352 0.000397
353 0.000398
354 0.000399
355 0.000400
356 0.000400
357 0.000406
358 0.000414
359 0.000416
360 0.000416
361 0.000420
362 0.000430
363 0.000437
364 0.000443
365 0.000441
366 0.000438
367 0.000436
368 0.000437
369 0.000438
370 0.000440
371 0.000442
372 0.000446
373 0.000448
374 0.000445
375 0.000441
376 0.000431
377 0.000424
378 0.000421
379 0.000420
380 0.000411
381 0.000410
382 0.000411
383 0.000409
384 0.000408
385 0.000410
386 0.000415
387 0.000419
388 0.000420
389 0.000420
390 0.000425
391 0.000438
392 0.000452
393 0.000461
394 0.000463
395 0.000459
396 0.000458
397 0.000457
398 0.000454
399 0.000450
400 0.000444
401 0.000441
402 0.000435
403 0.000433
404 0.000434
405 0.000434
406 0.000433
407 0.000427
408 0.000421
409 0.000409
410 0.000402
411 0.000394
412 0.000389
413 0.000382
414 0.000377
415 0.000366
416 0.000362
417 0.000358
418 0.000358
419 0.000357
420 0.000362
421 0.000365
422 0.000371
423 0.000373
424 0.000377
425 0.000386
426 0.000398
427 0.000406
428 0.000407
429 0.000405
430 0.000402
431 0.000400
432 0.000397
433 0.000392
434 0.000385
435 0.000375
436 0.000369
437 0.000365
438 0.000357
439 0.000346
440 0.000339
441 0.000331
442 0.000323
443 0.000316
444 0.000311
445 0.000312
446 0.000306
447 0.000305
448 0.000303
449 0.000302
450 0.000302
451 0.000305
452 0.000309
453 0.000315
454 0.000326
455 0.000334
456 0.000342
457 0.000342
458 0.000341
459 0.000336
460 0.000335
461 0.000338
462 0.000333
463 0.000325
464 0.000318
465 0.000315
466 0.000312
467 0.000310
468 0.000302
469 0.000298
470 0.000294
471 0.000288
472 0.000280
473 0.000275
474 0.000274
475 0.000270
476 0.000265
477 0.000262
478 0.000259
479 0.000260
480 0.000259
481 0.000256
482 0.000252
483 0.000253
484 0.000256
485 0.000257
486 0.000252
487 0.000251
488 0.000252
489 0.000255
490 0.000257
491 0.000261
492 0.000260
493 0.000251
494 0.000246
495 0.000246
496 0.000249
497 0.000248
498 0.000248
499 0.000251
500 0.000249
501 0.000245
502 0.000241
503 0.000238
504 0.000237
505 0.000237
506 0.000234
507 0.000229
508 0.000226
509 0.000217
510 0.000209
511 0.000207
512 0.000202
513 0.000197
514 0.000191
515 0.000189
516 0.000187
517 0.000185
518 0.000186
519 0.000188
520 0.000189
521 0.000182
522 0.000178
523 0.000172
524 0.000172
525 0.000171
526 0.000173
527 0.000174
528 0.000178
529 0.000184
530 0.000189
531 0.000198
532 0.000203
533 0.000207
534 0.000210
535 0.000215
536 0.000215
537 0.000212
538 0.000211
539 0.000214
540 0.000219
541 0.000223
542 0.000226
543 0.000229
544 0.000229
545 0.000226
546 0.000233
547 0.000243
548 0.000254
549 0.000261
550 0.000266
551 0.000268
552 0.000273
553 0.000274
554 0.000279
555 0.000281
556 0.000274
557 0.000267
558 0.000260
559 0.000255
560 0.000248
561 0.000244
562 0.000243
563 0.000247
564 0.000248
565 0.000246
566 0.000249
567 0.000255
568 0.000259
569 0.000262
570 0.000261
571 0.000259
572 0.000256
573 0.000258
574 0.000261
575 0.000262
576 0.000262
577 0.000264
578 0.000266
579 0.000265
580 0.000263
581 0.000264
582 0.000267
583 0.000268
584 0.000266
585 0.000261
586 0.000259
587 0.000255
588 0.000251
589 0.000249
590 0.000244
591 0.000237
592 0.000230
593 0.000228
594 0.000231
595 0.000231
596 0.000225
597 0.000218
598 0.000214
599 0.000215
600 0.000214
601 0.000214
602 0.000214
603 0.000216
604 0.000217
605 0.000212
606 0.000205
607 0.000203
608 0.000208
609 0.000209
610 0.000211
611 0.000210
612 0.000208
613 0.000206
614 0.000208
615 0.000204
616 0.000198
617 0.000199
618 0.000200
619 0.000193
620 0.000185
621 0.000178
622 0.000176
623 0.000170
624 0.000158
625 0.000148
626 0.000138
627 0.000127
628 0.000121
629 0.000119
630 0.000115
631 0.000112
632 0.000112
633 0.000111
634 0.000109
635 0.000108
636 0.000112
637 0.000117
638 0.000122
639 0.000127
640 0.000131
641 0.000142
642 0.000149
643 0.000155
644 0.000163
645 0.000174
646 0.000184
647 0.000191
648 0.000196
649 0.000198
650 0.000198
651 0.000198
652 0.000199
653 0.000195
654 0.000187
655 0.000181
656 0.000175
657 0.000171
658 0.000167
659 0.000166
660 0.000161
661 0.000160
662 0.000156
663 0.000157
664 0.000160
665 0.000165
666 0.000173
667 0.000178
668 0.000182
669 0.000185
670 0.000187
671 0.000188
672 0.000192
673 0.000191
674 0.000195
675 0.000198
676 0.000200
677 0.000203
678 0.000208
679 0.000213
680 0.000218
681 0.000227
682 0.000234
683 0.000241
684 0.000247
685 0.000252
686 0.000257
687 0.000260
688 0.000259
689 0.000261
690 0.000259
691 0.000257
692 0.000258
693 0.000258
694 0.000253
695 0.000251
696 0.000250
697 0.000245
698 0.000242
699 0.000237
700 0.000236
701 0.000235
702 0.000236
703 0.000237
704 0.000241
705 0.000237
706 0.000234
707 0.000231
708 0.000231
709 0.000233
710 0.000233
711 0.000236
712 0.000234
713 0.000231
714 0.000231
715 0.000229
716 0.000228
717 0.000221
718 0.000215
719 0.000207
720 0.000206
721 0.000203
722 0.000199
723 0.000194
724 0.000192
725 0.000188
726 0.000186
727 0.000182
728 0.000176
729 0.000173
730 0.000168
731 0.000161
732 0.000156
733 0.000154
734 0.000151
735 0.000149
736 0.000149
737 0.000147
738 0.000143
739 0.000139
740 0.000133
741 0.000126
742 0.000118
743 0.000113
744 0.000114
745 0.000116
746 0.000117
747 0.000118
748 0.000119
749 0.000120
750 0.000122
751 0.000127
752 0.000129
753 0.000133
754 0.000139
755 0.000143
756 0.000147
757 0.000154
758 0.000158
759 0.000160
760 0.000159
761 0.000160
762 0.000159
763 0.000159
764 0.000155
765 0.000154
766 0.000155
767 0.000158
768 0.000156
769 0.000154
770 0.000150
771 0.000149
772 0.000143
773 0.000135
774 0.000130
775 0.000127
776 0.000128
777 0.000128
778 0.000131
779 0.000133
780 0.000129
781 0.000127
782 0.000121
783 0.000117
784 0.000116
785 0.000117
786 0.000117
787 0.000117
788 0.000113
789 0.000111
790 0.000109
791 0.000107
792 0.000104
793 0.000102
794 0.000102
795 0.000100
796 0.000097
797 0.000098
798 0.000103
799 0.000109
800 0.000112
801 0.000116
802 0.000119
803 0.000118
804 0.000119
805 0.000116
806 0.000112
807 0.000110
808 0.000111
809 0.000108
