# i correlation
1 0.001531
2 0.001473
3 0.001425
4 0.001385
5 0.001354
6 0.001324
7 0.001293
8 0.001259
9 0.001235
10 0.001215
11 0.001193
12 0.001178
13 0.001169
14 0.001168
15 0.001168
16 0.001163
17 0.001157
18 0.001153
19 0.001145
20 0.001134
21 0.001129
22 0.001118
23 0.001111
24 0.001102
25 0.001090
26 0.001084
27 0.001082
28 0.001074
29 0.001076
30 0.001074
31 0.001071
32 0.001063
33 0.001057
34 0.001047
35 0.001039
36 0.001030
37 0.001024
38 0.001012
39 0.000999
40 0.000988
41 0.000983
42 0.000981
43 0.000977
44 0.000983
45 0.000982
46 0.000981
47 0.000976
48 0.000978
49 0.000973
50 0.000972
51 0.000973
52 0.000975
53 0.000967
54 0.000957
55 0.000949
56 0.000940
57 0.000925
58 0.000916
59 0.000905
60 0.000900
61 0.000893
62 0.000884
63 0.000877
64 0.000867
65 0.000860
66 0.000861
67 0.000858
68 0.000854
69 0.000844
70 0.000842
71 0.000836
72 0.000838
73 0.000838
74 0.000833
75 0.000828
76 0.000816
77 0.000809
78 0.000803
79 0.000803
80 0.000800
81 0.000802
82 0.000803
83 0.000795
84 0.000786
85 0.000773
86 0.000756
87 0.000741
88 0.000731
89 0.000724
90 0.000717
91 0.000710
92 0.000698
93 0.000690
94 0.000685
95 0.000689
96 0.000701
97 0.000711
98 0.000718
99 0.000724
100 0.000729
101 0.000735
102 0.000736
103 0.000739
104 0.000740
105 0.000735
106 0.000729
107 0.000726
108 0.000720
109 0.000711
110 0.000712
111 0.000712
112 0.000713
113 0.000708
114 0.000710
115 0.000706
116 0.000703
117 0.000698
118 0.000684
119 0.000666
120 0.000646
121 0.000631
122 0.000616
123 0.000603
124 0.000590
125 0.000584
126 0.000580
127 0.000574
128 0.000569
129 0.000570
130 0.000573
131 0.000580
132 0.000589
133 0.000592
134 0.000590
135 0.000592
136 0.000590
137 0.000583
138 0.000579
139 0.000570
140 0.000565
141 0.000557
142 0.000548
143 0.000542
144 0.000536
145 0.000531
146 0.000524
147 0.000520
148 0.000513
149 0.000511
150 0.000512
151 0.000513
152 0.000515
153 0.000516
154 0.000522
155 0.000524
156 0.000533
157 0.000531
158 0.000532
159 0.000534
160 0.000528
161 0.000517
162 0.000514
163 0.000514
164 0.000512
165 0.000512
166 0.000509
167 0.000504
168 0.000502
169 0.000500
170 0.000501
171 0.000504
172 0.000498
173 0.000491
174 0.000490
175 0.000491
176 0.000484
177 0.000487
178 0.000488
179 0.000482
180 0.000481
181 0.000485
182 0.000488
183 0.000490
184 0.000490
185 0.000494
186 0.000500
187 0.000505
188 0.000503
189 0.000502
190 0.000494
191 0.000491
192 0.000486
193 0.000480
194 0.000472
195 0.000465
196 0.000462
197 0.000456
198 0.000456
199 0.000448
200 0.000438
201 0.000437
202 0.000435
203 0.000430
204 0.000433
205 0.000441
206 0.000442
207 0.000453
208 0.000462
209 0.000462
210 0.000459
211 0.000458
212 0.000460
213 0.000465
214 0.000470
215 0.000470
216 0.000469
217 0.000469
218 0.000467
219 0.000467
220 0.000462
221 0.000451
222 0.000444
223 0.000442
224 0.000442
225 0.000439
226 0.000435
227 0.000429
228 0.000421
229 0.000423
230 0.000418
231 0.000414
232 0.000410
233 0.000405
234 0.000398
235 0.000390
236 0.000388
237 0.000384
238 0.000380
239 0.000384
240 0.000387
241 0.000390
242 0.000396
243 0.000398
244 0.000395
245 0.000393
246 0.000393
247 0.000394
248 0.000392
249 0.000396
250 0.000392
251 0.000382
252 0.000371
253 0.000369
254 0.000368
255 0.000371
256 0.000368
257 0.000364
258 0.000362
259 0.000361
260 0.000362
261 0.000360
262 0.000358
263 0.000357
264 0.000358
265 0.000355
266 0.000349
267 0.000345
268 0.000341
269 0.000337
270 0.000338
271 0.000339
272 0.000339
273 0.000338
274 0.000340
275 0.000341
276 0.000339
277 0.000343
278 0.000343
279 0.000343
280 0.000343
281 0.000343
282 0.000346
283 0.000344
284 0.000342
285 0.000342
286 0.000342
287 0.000344
288 0.000343
289 0.000344
290 0.000349
291 0.000356
292 0.000361
293 0.000362
294 0.000366
295 0.000369
296 0.000374
297 0.000378
298 0.000384
299 0.000388
300 0.000390
301 0.000393
302 0.000393
303 0.000395
304 0.000389
305 0.000381
306 0.000378
307 0.000370
308 0.000367
309 0.000370
310 0.000369
311 0.000371
312 0.000371
313 0.000371
314 0.000373
315 0.000377
316 0.000380
317 0.000378
318 0.000379
319 0.000382
320 0.000381
321 0.000387
322 0.000392
323 0.000399
324 0.000407
325 0.000416
326 0.000412
327 0.000407
328 0.000401
329 0.000399
330 0.000396
331 0.000389
332 0.000380
333 0.000371
334 0.000365
335 0.000353
336 0.000340
337 0.000326
338 0.000316
339 0.000313
340 0.000313
341 0.000313
342 0.000318
343 0.000327
344 0.000338
345 0.000350
346 0.000358
347 0.000360
348 0.000359
349 0.000357
350 0.000356
351 0.000354
352 0.000354
353 0.000348
354 0.000341
355 0.000336
356 0.000330
357 0.000325
358 0.000320
359 0.000316
360 0.000314
361 0.000320
362 0.000319
363 0.000318
364 0.000316
365 0.000307
366 0.000304
367 0.000302
368 0.000299
369 0.000291
370 0.000284
371 0.000280
372 0.000278
373 0.000282
374 0.000285
375 0.000294
376 0.000305
377 0.000309
378 0.000311
379 0.000318
380 0.000316
381 0.000316
382 0.000321
383 0.000322
384 0.000316
385 0.000310
386 0.000301
387 0.000294
388 0.000291
389 0.000286
390 0.000280
391 0.000276
392 0.000273
393 0.000269
394 0.000270
395 0.000271
396 0.000276
397 0.000279
398 0.000286
399 0.000295
400 0.000303
401 0.000307
402 0.000312
403 0.000309
404 0.000305
405 0.000303
406 0.000308
407 0.000310
408 0.000309
409 0.000302
410 0.000299
411 0.000296
412 0.000298
413 0.000305
414 0.000311
415 0.000314
416 0.000316
417 0.000316
418 0.000315
419 0.000316
420 0.000316
421 0.000312
422 0.000306
423 0.000301
424 0.000299
425 0.000301
426 0.000302
427 0.000306
428 0.000309
429 0.000314
430 0.000316
431 0.000322
432 0.000325
433 0.000326
434 0.000331
435 0.000331
436 0.000330
437 0.000323
438 0.000316
439 0.000309
440 0.000304
441 0.000305
442 0.000302
443 0.000299
444 0.000294
445 0.000287
446 0.000288
447 0.000287
448 0.000288
449 0.000291
450 0.000295
451 0.000297
452 0.000298
453 0.000292
454 0.000292
455 0.000294
456 0.000303
457 0.000311
458 0.000318
459 0.000322
460 0.000327
461 0.000331
462 0.000333
463 0.000338
464 0.000337
465 0.000337
466 0.000340
467 0.000338
468 0.000336
469 0.000332
470 0.000326
471 0.000321
472 0.000317
473 0.000321
474 0.000322
475 0.000320
476 0.000319
477 0.000316
478 0.000323
479 0.000329
480 0.000335
481 0.000339
482 0.000338
483 0.000341
484 0.000341
485 0.000341
486 0.000339
487 0.000336
488 0.000329
489 0.000327
490 0.000324
491 0.000317
492 0.000313
493 0.000307
494 0.000298
495 0.000290
496 0.000286
497 0.000283
498 0.000282
499 0.000284
500 0.000285
501 0.000285
502 0.000290
503 0.000290
504 0.000293
505 0.000290
506 0.000290
507 0.000295
508 0.000298
509 0.000298
510 0.000299
511 0.000300
512 0.000300
513 0.000300
514 0.000303
515 0.000301
516 0.000304
517 0.000304
518 0.000305
519 0.000307
520 0.000311
521 0.000311
522 0.000312
523 0.000314
524 0.000310
525 0.000302
526 0.000299
527 0.000298
528 0.000295
529 0.000296
530 0.000297
531 0.000301
532 0.000305
533 0.000310
534 0.000308
535 0.000304
536 0.000295
537 0.000291
538 0.000292
539 0.000292
540 0.000285
541 0.000284
542 0.000282
543 0.000277
544 0.000275
545 0.000276
546 0.000275
547 0.000276
548 0.000281
549 0.000280
550 0.000279
551 0.000276
552 0.000270
553 0.000271
554 0.000268
555 0.000263
556 0.000255
557 0.000246
558 0.000240
559 0.000237
560 0.000233
561 0.000226
562 0.000223
563 0.000217
564 0.000218
565 0.000223
566 0.000227
567 0.000225
568 0.000224
569 0.000229
570 0.000234
571 0.000241
572 0.000249
573 0.000253
574 0.000264
575 0.000271
576 0.000272
577 0.000272
578 0.000268
579 0.000262
580 0.000257
581 0.000254
582 0.000250
583 0.000250
584 0.000253
585 0.000251
586 0.000249
587 0.000246
588 0.000249
589 0.000253
590 0.000258
591 0.000258
592 0.000259
593 0.000262
594 0.000262
595 0.000262
596 0.000258
597 0.000253
598 0.000248
599 0.000246
600 0.000246
601 0.000248
602 0.000249
603 0.000249
604 0.000250
605 0.000253
606 0.000253
607 0.000254
608 0.000254
609 0.000252
610 0.000249
611 0.000247
612 0.000244
613 0.000237
614 0.000230
615 0.000225
616 0.000221
617 0.000219
618 0.000218
619 0.000217
620 0.000216
621 0.000224
622 0.000232
623 0.000236
624 0.000239
625 0.000247
626 0.000250
627 0.000254
628 0.000258
629 0.000258
630 0.000262
631 0.000266
632 0.000271
633 0.000272
634 0.000275
635 0.000275
636 0.000276
637 0.000280
638 0.000288
639 0.000294
640 0.000299
641 0.000304
642 0.000304
643 0.000305
644 0.000310
645 0.000316
646 0.000322
647 0.000324
648 0.000328
649 0.000334
650 0.000333
651 0.000332
652 0.000328
653 0.000323
654 0.000322
655 0.000321
656 0.000323
657 0.000323
658 0.000318
659 0.000313
660 0.000306
661 0.000302
662 0.000301
663 0.000300
664 0.000298
665 0.000296
666 0.000294
667 0.000292
668 0.000289
669 0.000287
670 0.000288
671 0.000288
672 0.000288
673 0.000288
674 0.000288
675 0.000290
676 0.000291
677 0.000294
678 0.000297
679 0.000298
680 0.000297
681 0.000294
682 0.000292
683 0.000292
684 0.000287
685 0.000288
686 0.000290
687 0.000289
688 0.000285
689 0.000282
690 0.000277
691 0.000280
692 0.000281
693 0.000276
694 0.000271
695 0.000263
696 0.000254
697 0.000247
698 0.000241
699 0.000232
700 0.000229
701 0.000227
702 0.000224
703 0.000219
704 0.000219
705 0.000222
706 0.000227
707 0.000230
708 0.000228
709 0.000227
710 0.000225
711 0.000220
712 0.000215
713 0.000212
714 0.000205
715 0.000203
716 0.000201
717 0.000198
718 0.000195
719 0.000192
720 0.000191
721 0.000190
722 0.000191
723 0.000191
724 0.000194
725 0.000199
726 0.000197
727 0.000195
728 0.000194
729 0.000190
730 0.000187
731 0.000185
732 0.000180
733 0.000174
734 0.000168
735 0.000165
736 0.000161
737 0.000156
738 0.000153
739 0.000150
740 0.000148
741 0.000144
742 0.000140
743 0.000137
744 0.000137
745 0.000135
746 0.000136
747 0.000136
748 0.000134
749 0.000128
750 0.000122
751 0.000117
752 0.000115
753 0.000112
754 0.000109
755 0.000107
756 0.000102
757 0.000102
758 0.000098
759 0.000097
760 0.000097
761 0.000100
762 0.000105
763 0.000109
764 0.000110
765 0.000108
766 0.000104
767 0.000100
768 0.000097
769 0.000094
770 0.000090
771 0.000085
772 0.000076
773 0.000068
774 0.000063
775 0.000059
776 0.000057
777 0.000057
778 0.000057
779 0.000060
780 0.000066
781 0.000071
782 0.000076
783 0.000076
784 0.000079
785 0.000079
786 0.000079
787 0.000078
788 0.000079
789 0.000080
790 0.000081
791 0.000080
792 0.000078
793 0.000076
794 0.000074
795 0.000074
796 0.000072
797 0.000068
798 0.000066
799 0.000065
800 0.000063
801 0.000061
802 0.000061
803 0.000061
804 0.000060
805 0.000057
806 0.000055
807 0.000056
808 0.000059
809 0.000061
