# i correlation
1 0.001627
2 0.001576
3 0.001528
4 0.001495
5 0.001461
6 0.001434
7 0.001408
8 0.001381
9 0.001356
10 0.001338
11 0.001321
12 0.001309
13 0.001300
14 0.001293
15 0.001282
16 0.001277
17 0.001268
18 0.001263
19 0.001259
20 0.001251
21 0.001243
22 0.001227
23 0.001213
24 0.001205
25 0.001194
26 0.001188
27 0.001180
28 0.001175
29 0.001172
30 0.001167
31 0.001154
32 0.001141
33 0.001127
34 0.001118
35 0.001103
36 0.001093
37 0.001094
38 0.001096
39 0.001095
40 0.001094
41 0.001092
42 0.001091
43 0.001093
44 0.001091
45 0.001082
46 0.001073
47 0.001068
48 0.001065
49 0.001057
50 0.001051
51 0.001048
52 0.001047
53 0.001052
54 0.001046
55 0.001038
56 0.001034
57 0.001030
58 0.001023
59 0.001015
60 0.001006
61 0.001002
62 0.000993
63 0.000987
64 0.000978
65 0.000966
66 0.000959
67 0.000952
68 0.000938
69 0.000928
70 0.000922
71 0.000920
72 0.000916
73 0.000919
74 0.000920
75 0.000919
76 0.000913
77 0.000910
78 0.000910
79 0.000906
80 0.000905
81 0.000900
82 0.000900
83 0.000898
84 0.000899
85 0.000899
86 0.000903
87 0.000903
88 0.000900
89 0.000891
90 0.000885
91 0.000883
92 0.000881
93 0.000881
94 0.000878
95 0.000875
96 0.000875
97 0.000874
98 0.000871
99 0.000870
100 0.000870
101 0.000869
102 0.000865
103 0.000863
104 0.000857
105 0.000854
106 0.000848
107 0.000842
108 0.000838
109 0.000831
110 0.000823
111 0.000812
112 0.000808
113 0.000805
114 0.000803
115 0.000801
116 0.000803
117 0.000805
118 0.000804
119 0.000796
120 0.000789
121 0.000784
122 0.000775
123 0.000778
124 0.000777
125 0.000775
126 0.000775
127 0.000780
128 0.000781
129 0.000779
130 0.000773
131 0.000763
132 0.000751
133 0.000742
134 0.000730
135 0.000724
136 0.000720
137 0.000718
138 0.000714
139 0.000712
140 0.000710
141 0.000713
142 0.000717
143 0.000715
144 0.000719
145 0.000717
146 0.000716
147 0.000723
148 0.000722
149 0.000723
150 0.000720
151 0.000712
152 0.000704
153 0.000699
154 0.000695
155 0.000694
156 0.000691
157 0.000690
158 0.000686
159 0.000678
160 0.000667
161 0.000661
162 0.000654
163 0.000650
164 0.000639
165 0.000631
166 0.000630
167 0.000629
168 0.000629
169 0.000629
170 0.000631
171 0.000639
172 0.000636
173 0.000634
174 0.000638
175 0.000640
176 0.000638
177 0.000639
178 0.000634
179 0.000631
180 0.000626
181 0.000633
182 0.000630
183 0.000630
184 0.000629
185 0.000630
186 0.000625
187 0.000631
188 0.000631
189 0.000634
190 0.000637
191 0.000642
192 0.000642
193 0.000643
194 0.000640
195 0.000638
196 0.000634
197 0.000630
198 0.000623
199 0.000618
200 0.000621
201 0.000626
202 0.000634
203 0.000641
204 0.000641
205 0.000643
206 0.000640
207 0.000636
208 0.000641
209 0.000641
210 0.000641
211 0.000641
212 0.000634
213 0.000630
214 0.000631
215 0.000629
216 0.000625
217 0.000617
218 0.000608
219 0.000599
220 0.000589
221 0.000585
222 0.000575
223 0.000572
224 0.000572
225 0.000572
226 0.000568
227 0.000567
228 0.000563
229 0.000563
230 0.000564
231 0.000567
232 0.000572
233 0.000572
234 0.000580
235 0.000583
236 0.000578
237 0.000569
238 0.000564
239 0.000559
240 0.000552
241 0.000547
242 0.000541
243 0.000533
244 0.000526
245 0.000521
246 0.000517
247 0.000509
248 0.000500
249 0.000491
250 0.000485
251 0.000478
252 0.000475
253 0.000475
254 0.000481
255 0.000488
256 0.000498
257 0.000505
258 0.000510
259 0.000509
260 0.000500
261 0.000496
262 0.000492
263 0.000487
264 0.000483
265 0.000479
266 0.000472
267 0.000468
268 0.000468
269 0.000475
270 0.000482
271 0.000484
272 0.000484
273 0.000483
274 0.000484
275 0.000481
276 0.000482
277 0.000479
278 0.000473
279 0.000466
280 0.000463
281 0.000451
282 0.000441
283 0.000441
284 0.000443
285 0.000442
286 0.000440
287 0.000437
288 0.000433
289 0.000427
290 0.000426
291 0.000424
292 0.000417
293 0.000403
294 0.000388
295 0.000381
296 0.000371
297 0.000364
298 0.000358
299 0.000358
300 0.000359
301 0.000356
302 0.000353
303 0.000347
304 0.000345
305 0.000343
306 0.000341
307 0.000341
308 0.000344
309 0.000344
310 0.000343
311 0.000343
312 0.000339
313 0.000338
314 0.000341
315 0.000339
316 0.000344
317 0.000348
318 0.000353
319 0.000349
320 0.000352
321 0.000358
322 0.000357
323 0.000352
324 0.000347
325 0.000341
326 0.000340
327 0.000339
328 0.000344
329 0.000349
330 0.000350
331 0.000353
332 0.000357
333 0.000361
334 0.000366
335 0.000365
336 0.000365
337 0.000369
338 0.000369
339 0.000364
340 0.000360
341 0.000353
342 0.000347
343 0.000341
344 0.000342
345 0.000338
346 0.000332
347 0.000327
348 0.000324
349 0.000321
350 0.000323
351 0.000323
352 0.000324
353 0.000314
354 0.000304
355 0.000298
356 0.000295
357 0.000289
358 0.000294
359 0.000296
360 0.000294
361 0.000293
362 0.000296
363 0.000295
364 0.000298
365 0.000297
366 0.000298
367 0.000291
368 0.000286
369 0.000279
370 0.000279
371 0.000280
372 0.000286
373 0.000289
374 0.000298
375 0.000301
376 0.000305
377 0.000314
378 0.000316
379 0.000320
380 0.000322
381 0.000324
382 0.000327
383 0.000331
384 0.000333
385 0.000333
386 0.000335
387 0.000334
388 0.000335
389 0.000332
390 0.000328
391 0.000324
392 0.000320
393 0.000321
394 0.000316
395 0.000312
396 0.000308
397 0.000307
398 0.000309
399 0.000308
400 0.000308
401 0.000308
402 0.000312
403 0.000319
404 0.000327
405 0.000330
406 0.000325
407 0.000319
408 0.000313
409 0.000310
410 0.000303
411 0.000299
412 0.000296
413 0.000291
414 0.000288
415 0.000287
416 0.000287
417 0.000288
418 0.000291
419 0.000294
420 0.000292
421 0.000293
422 0.000290
423 0.000290
424 0.000288
425 0.000289
426 0.000288
427 0.000289
428 0.000289
429 0.000291
430 0.000292
431 0.000292
432 0.000299
433 0.000305
434 0.000306
435 0.000311
436 0.000314
437 0.000320
438 0.000320
439 0.000321
440 0.000316
441 0.000318
442 0.000318
443 0.000317
444 0.000315
445 0.000314
446 0.000312
447 0.000308
448 0.000306
449 0.000306
450 0.000315
451 0.000317
452 0.000319
453 0.000318
454 0.000313
455 0.000310
456 0.000307
457 0.000308
458 0.000309
459 0.000311
460 0.000311
461 0.000315
462 0.000318
463 0.000319
464 0.000318
465 0.000322
466 0.000326
467 0.000332
468 0.000329
469 0.000331
470 0.000333
471 0.000333
472 0.000331
473 0.000327
474 0.000325
475 0.000324
476 0.000326
477 0.000329
478 0.000329
479 0.000331
480 0.000333
481 0.000335
482 0.000339
483 0.000338
484 0.000336
485 0.000333
486 0.000330
487 0.000323
488 0.000320
489 0.000320
490 0.000320
491 0.000321
492 0.000320
493 0.000321
494 0.000321
495 0.000321
496 0.000315
497 0.000308
498 0.000303
499 0.000300
500 0.000297
501 0.000293
502 0.000289
503 0.000287
504 0.000284
505 0.000284
506 0.000287
507 0.000284
508 0.000286
509 0.000284
510 0.000286
511 0.000289
512 0.000288
513 0.000291
514 0.000294
515 0.000298
516 0.000300
517 0.000295
518 0.000296
519 0.000303
520 0.000307
521 0.000308
522 0.000310
523 0.000312
524 0.000314
525 0.000318
526 0.000322
527 0.000323
528 0.000325
529 0.000328
530 0.000335
531 0.000338
532 0.000347
533 0.000352
534 0.000354
535 0.000357
536 0.000356
537 0.000358
538 0.000354
539 0.000354
540 0.000356
541 0.000354
542 0.000362
543 0.000367
544 0.000368
545 0.000372
546 0.000379
547 0.000387
548 0.000394
549 0.000402
550 0.000407
551 0.000407
552 0.000409
553 0.000412
554 0.000415
555 0.000416
556 0.000418
557 0.000414
558 0.000410
559 0.000405
560 0.000399
561 0.000398
562 0.000396
563 0.000395
564 0.000392
565 0.000387
566 0.000385
567 0.000384
568 0.000382
569 0.000382
570 0.000381
571 0.000379
572 0.000380
573 0.000384
574 0.000389
575 0.000396
576 0.000400
577 0.000403
578 0.000401
579 0.000402
580 0.000401
581 0.000394
582 0.000386
583 0.000379
584 0.000364
585 0.000359
586 0.000357
587 0.000355
588 0.000350
589 0.000345
590 0.000346
591 0.000346
592 0.000347
593 0.000353
594 0.000359
595 0.000358
596 0.000357
597 0.000351
598 0.000347
599 0.000342
600 0.000336
601 0.000331
602 0.000327
603 0.000319
604 0.000316
605 0.000312
606 0.000314
607 0.000318
608 0.000324
609 0.000328
610 0.000322
611 0.000317
612 0.000312
613 0.000313
614 0.000310
615 0.000302
616 0.000297
617 0.000292
618 0.000289
619 0.000283
620 0.000283
621 0.000278
622 0.000279
623 0.000274
624 0.000270
625 0.000264
626 0.000257
627 0.000253
628 0.000252
629 0.000254
630 0.000250
631 0.000245
632 0.000244
633 0.000242
634 0.000240
635 0.000244
636 0.000248
637 0.000248
638 0.000246
639 0.000245
640 0.000240
641 0.000235
642 0.000231
643 0.000230
644 0.000229
645 0.000226
646 0.000229
647 0.000231
648 0.000236
649 0.000240
650 0.000247
651 0.000253
652 0.000259
653 0.000262
654 0.000262
655 0.000264
656 0.000267
657 0.000272
658 0.000273
659 0.000271
660 0.000273
661 0.000275
662 0.000273
663 0.000272
664 0.000269
665 0.000269
666 0.000274
667 0.000280
668 0.000280
669 0.000280
670 0.000280
671 0.000281
672 0.000279
673 0.000279
674 0.000281
675 0.000281
676 0.000281
677 0.000281
678 0.000280
679 0.000279
680 0.000277
681 0.000270
682 0.000265
683 0.000259
684 0.000259
685 0.000253
686 0.000251
687 0.000246
688 0.000241
689 0.000235
690 0.000230
691 0.000227
692 0.000224
693 0.000222
694 0.000219
695 0.000220
696 0.000220
697 0.000220
698 0.000217
699 0.000216
700 0.000213
701 0.000209
702 0.000204
703 0.000205
704 0.000205
705 0.000203
706 0.000203
707 0.000197
708 0.000194
709 0.000195
710 0.000198
711 0.000198
712 0.000192
713 0.000193
714 0.000192
715 0.000190
716 0.000190
717 0.000187
718 0.000184
719 0.000179
720 0.000176
721 0.000177
722 0.000178
723 0.000181
724 0.000185
725 0.000188
726 0.000186
727 0.000187
728 0.000186
729 0.000185
730 0.000186
731 0.000181
732 0.000178
733 0.000173
734 0.000172
735 0.000170
736 0.000170
737 0.000172
738 0.000171
739 0.000167
740 0.000166
741 0.000166
742 0.000163
743 0.000163
744 0.000161
745 0.000162
746 0.000161
747 0.000162
748 0.000162
749 0.000165
750 0.000169
751 0.000174
752 0.000178
753 0.000187
754 0.000194
755 0.000197
756 0.000199
757 0.000203
758 0.000205
759 0.000203
760 0.000201
761 0.000199
762 0.000197
763 0.000194
764 0.000195
765 0.000192
766 0.000190
767 0.000191
768 0.000190
769 0.000186
770 0.000183
771 0.000181
772 0.000179
773 0.000175
774 0.000170
775 0.000165
776 0.000161
777 0.000161
778 0.000160
779 0.000160
780 0.000157
781 0.000156
782 0.000155
783 0.000158
784 0.000162
785 0.000164
786 0.000164
787 0.000164
788 0.000166
789 0.000166
790 0.000165
791 0.000164
792 0.000162
793 0.000163
794 0.000163
795 0.000162
796 0.000162
797 0.000161
798 0.000159
799 0.000155
800 0.000151
801 0.000150
802 0.000149
803 0.000147
804 0.000146
805 0.000144
806 0.000139
807 0.000140
808 0.000136
809 0.000135
