# i correlation
1 0.001586
2 0.001528
3 0.001489
4 0.001452
5 0.001406
6 0.001362
7 0.001339
8 0.001326
9 0.001307
10 0.001288
11 0.001271
12 0.001267
13 0.001253
14 0.001237
15 0.001219
16 0.001209
17 0.001191
18 0.001165
19 0.001139
20 0.001118
21 0.001106
22 0.001089
23 0.001076
24 0.001071
25 0.001064
26 0.001059
27 0.001053
28 0.001047
29 0.001042
30 0.001037
31 0.001027
32 0.001022
33 0.001021
34 0.001015
35 0.001008
36 0.000998
37 0.001001
38 0.000997
39 0.000995
40 0.000991
41 0.000986
42 0.000982
43 0.000974
44 0.000967
45 0.000960
46 0.000952
47 0.000947
48 0.000938
49 0.000932
50 0.000919
51 0.000914
52 0.000907
53 0.000899
54 0.000889
55 0.000887
56 0.000887
57 0.000883
58 0.000877
59 0.000873
60 0.000875
61 0.000868
62 0.000860
63 0.000858
64 0.000848
65 0.000836
66 0.000820
67 0.000812
68 0.000803
69 0.000786
70 0.000770
71 0.000759
72 0.000749
73 0.000741
74 0.000731
75 0.000724
76 0.000724
77 0.000732
78 0.000731
79 0.000731
80 0.000724
81 0.000727
82 0.000726
83 0.000722
84 0.000711
85 0.000709
86 0.000710
87 0.000710
88 0.000706
89 0.000707
90 0.000704
91 0.000700
92 0.000697
93 0.000703
94 0.000710
95 0.000719
96 0.000715
97 0.000714
98 0.000710
99 0.000709
100 0.000708
101 0.000707
102 0.000705
103 0.000698
104 0.000700
105 0.000696
106 0.000695
107 0.000701
108 0.000702
109 0.000700
110 0.000699
111 0.000701
112 0.000699
113 0.000692
114 0.000688
115 0.000679
116 0.000676
117 0.000676
118 0.000671
119 0.000662
120 0.000661
121 0.000668
122 0.000678
123 0.000680
124 0.000676
125 0.000683
126 0.000689
127 0.000691
128 0.000695
129 0.000694
130 0.000697
131 0.000695
132 0.000693
133 0.000694
134 0.000694
135 0.000693
136 0.000690
137 0.000686
138 0.000687
139 0.000691
140 0.000694
141 0.000697
142 0.000692
143 0.000691
144 0.000690
145 0.000694
146 0.000701
147 0.000703
148 0.000707
149 0.000709
150 0.000711
151 0.000708
152 0.000696
153 0.000691
154 0.000687
155 0.000691
156 0.000693
157 0.000703
158 0.000709
159 0.000709
160 0.000710
161 0.000705
162 0.000708
163 0.000706
164 0.000705
165 0.000705
166 0.000696
167 0.000689
168 0.000687
169 0.000685
170 0.000682
171 0.000675
172 0.000673
173 0.000677
174 0.000683
175 0.000679
176 0.000672
177 0.000668
178 0.000665
179 0.000649
180 0.000637
181 0.000634
182 0.000634
183 0.000632
184 0.000633
185 0.000637
186 0.000646
187 0.000646
188 0.000649
189 0.000655
190 0.000668
191 0.000667
192 0.000666
193 0.000665
194 0.000667
195 0.000669
196 0.000669
197 0.000669
198 0.000671
199 0.000673
200 0.000670
201 0.000662
202 0.000654
203 0.000654
204 0.000654
205 0.000651
206 0.000658
207 0.000669
208 0.000674
209 0.000672
210 0.000670
211 0.000670
212 0.000659
213 0.000647
214 0.000638
215 0.000633
216 0.000630
217 0.000628
218 0.000621
219 0.000612
220 0.000602
221 0.000595
222 0.000596
223 0.000592
224 0.000586
225 0.000585
226 0.000580
227 0.000569
228 0.000557
229 0.000551
230 0.000551
231 0.000543
232 0.000544
233 0.000549
234 0.000556
235 0.000558
236 0.000561
237 0.000565
238 0.000569
239 0.000571
240 0.000568
241 0.000559
242 0.000551
243 0.000542
244 0.000534
245 0.000529
246 0.000533
247 0.000532
248 0.000536
249 0.000538
250 0.000544
251 0.000551
252 0.000555
253 0.000551
254 0.000548
255 0.000544
256 0.000538
257 0.000536
258 0.000529
259 0.000523
260 0.000517
261 0.000509
262 0.000501
263 0.000495
264 0.000492
265 0.000484
266 0.000473
267 0.000470
268 0.000466
269 0.000463
270 0.000457
271 0.000456
272 0.000454
273 0.000453
274 0.000445
275 0.000435
276 0.000435
277 0.000434
278 0.000427
279 0.000424
280 0.000421
281 0.000423
282 0.000420
283 0.000411
284 0.000405
285 0.000411
286 0.000409
287 0.000406
288 0.000401
289 0.000402
290 0.000408
291 0.000410
292 0.000405
293 0.000410
294 0.000418
295 0.000424
296 0.000429
297 0.000439
298 0.000453
299 0.000463
300 0.000467
301 0.000469
302 0.000466
303 0.000467
304 0.000466
305 0.000466
306 0.000463
307 0.000462
308 0.000465
309 0.000461
310 0.000460
311 0.000468
312 0.000473
313 0.000472
314 0.000475
315 0.000483
316 0.000484
317 0.000486
318 0.000484
319 0.000483
320 0.000483
321 0.000478
322 0.000475
323 0.000470
324 0.000468
325 0.000470
326 0.000461
327 0.000462
328 0.000465
329 0.000470
330 0.000466
331 0.000466
332 0.000476
333 0.000486
334 0.000489
335 0.000489
336 0.000489
337 0.000492
338 0.000491
339 0.000483
340 0.000481
341 0.000481
342 0.000482
343 0.000479
344 0.000476
345 0.000474
346 0.000475
347 0.000479
348 0.000478
349 0.000476
350 0.000474
351 0.000466
352 0.000457
353 0.000449
354 0.000444
355 0.000439
356 0.000431
357 0.000431
358 0.000433
359 0.000432
360 0.000424
361 0.000419
362 0.000420
363 0.000414
364 0.000414
365 0.000411
366 0.000411
367 0.000411
368 0.000410
369 0.000404
370 0.000397
371 0.000395
372 0.000393
373 0.000386
374 0.000385
375 0.000386
376 0.000381
377 0.000372
378 0.000367
379 0.000360
380 0.000360
381 0.000358
382 0.000357
383 0.000354
384 0.000356
385 0.000361
386 0.000357
387 0.000356
388 0.000355
389 0.000348
390 0.000344
391 0.000338
392 0.000331
393 0.000328
394 0.000328
395 0.000328
396 0.000328
397 0.000329
398 0.000331
399 0.000336
400 0.000336
401 0.000336
402 0.000334
403 0.000332
404 0.000330
405 0.000322
406 0.000320
407 0.000321
408 0.000322
409 0.000318
410 0.000321
411 0.000324
412 0.000325
413 0.000324
414 0.000328
415 0.000328
416 0.000323
417 0.000317
418 0.000310
419 0.000306
420 0.000303
421 0.000297
422 0.000299
423 0.000300
424 0.000302
425 0.000302
426 0.000304
427 0.000306
428 0.000304
429 0.000302
430 0.000298
431 0.000293
432 0.000291
433 0.000291
434 0.000285
435 0.000280
436 0.000281
437 0.000278
438 0.000275
439 0.000275
440 0.000274
441 0.000274
442 0.000272
443 0.000270
444 0.000275
445 0.000284
446 0.000289
447 0.000292
448 0.000297
449 0.000300
450 0.000299
451 0.000297
452 0.000292
453 0.000290
454 0.000292
455 0.000297
456 0.000300
457 0.000309
458 0.000315
459 0.000319
460 0.000319
461 0.000314
462 0.000307
463 0.000304
464 0.000298
465 0.000294
466 0.000287
467 0.000282
468 0.000280
469 0.000278
470 0.000275
471 0.000270
472 0.000263
473 0.000257
474 0.000254
475 0.000250
476 0.000246
477 0.000244
478 0.000242
479 0.000240
480 0.000238
481 0.000232
482 0.000227
483 0.000222
484 0.000214
485 0.000207
486 0.000199
487 0.000197
488 0.000198
489 0.000199
490 0.000203
491 0.000208
492 0.000213
493 0.000216
494 0.000213
495 0.000214
496 0.000213
497 0.000216
498 0.000216
499 0.000212
500 0.000207
501 0.000202
502 0.000202
503 0.000199
504 0.000197
505 0.000204
506 0.000208
507 0.000217
508 0.000223
509 0.000226
510 0.000230
511 0.000228
512 0.000224
513 0.000212
514 0.000199
515 0.000194
516 0.000187
517 0.000180
518 0.000175
519 0.000170
520 0.000162
521 0.000158
522 0.000155
523 0.000150
524 0.000145
525 0.000137
526 0.000133
527 0.000127
528 0.000123
529 0.000116
530 0.000107
531 0.000102
532 0.000098
533 0.000098
534 0.000099
535 0.000101
536 0.000110
537 0.000114
538 0.000110
539 0.000109
540 0.000110
541 0.000105
542 0.000104
543 0.000103
544 0.000104
545 0.000108
546 0.000111
547 0.000116
548 0.000118
549 0.000121
550 0.000125
551 0.000128
552 0.000130
553 0.000131
554 0.000133
555 0.000134
556 0.000129
557 0.000122
558 0.000120
559 0.000123
560 0.000126
561 0.000130
562 0.000133
563 0.000134
564 0.000136
565 0.000139
566 0.000142
567 0.000143
568 0.000146
569 0.000146
570 0.000146
571 0.000149
572 0.000151
573 0.000151
574 0.000152
575 0.000154
576 0.000156
577 0.000157
578 0.000156
579 0.000153
580 0.000150
581 0.000149
582 0.000145
583 0.000141
584 0.000143
585 0.000145
586 0.000143
587 0.000142
588 0.000150
589 0.000154
590 0.000154
591 0.000153
592 0.000156
593 0.000155
594 0.000153
595 0.000149
596 0.000148
597 0.000150
598 0.000152
599 0.000151
600 0.000148
601 0.000146
602 0.000145
603 0.000140
604 0.000143
605 0.000148
606 0.000153
607 0.000154
608 0.000153
609 0.000155
610 0.000157
611 0.000157
612 0.000157
613 0.000156
614 0.000161
615 0.000162
616 0.000162
617 0.000160
618 0.000161
619 0.000162
620 0.000155
621 0.000145
622 0.000141
623 0.000141
624 0.000135
625 0.000130
626 0.000125
627 0.000119
628 0.000116
629 0.000110
630 0.000105
631 0.000102
632 0.000100
633 0.000103
634 0.000103
635 0.000100
636 0.000099
637 0.000097
638 0.000099
639 0.000099
640 0.000100
641 0.000103
642 0.000103
643 0.000107
644 0.000113
645 0.000118
646 0.000124
647 0.000132
648 0.000144
649 0.000154
650 0.000161
651 0.000165
652 0.000169
653 0.000171
654 0.000174
655 0.000177
656 0.000180
657 0.000181
658 0.000178
659 0.000172
660 0.000169
661 0.000166
662 0.000167
663 0.000168
664 0.000171
665 0.000178
666 0.000186
667 0.000193
668 0.000195
669 0.000197
670 0.000197
671 0.000191
672 0.000186
673 0.000181
674 0.000177
675 0.000174
676 0.000175
677 0.000174
678 0.000174
679 0.000174
680 0.000171
681 0.000170
682 0.000168
683 0.000171
684 0.000169
685 0.000167
686 0.000164
687 0.000158
688 0.000151
689 0.000141
690 0.000132
691 0.000127
692 0.000122
693 0.000124
694 0.000121
695 0.000120
696 0.000119
697 0.000119
698 0.000112
699 0.000110
700 0.000112
701 0.000112
702 0.000109
703 0.000106
704 0.000105
705 0.000108
706 0.000112
707 0.000115
708 0.000115
709 0.000119
710 0.000126
711 0.000129
712 0.000133
713 0.000137
714 0.000138
715 0.000137
716 0.000137
717 0.000137
718 0.000137
719 0.000130
720 0.000124
721 0.000120
722 0.000117
723 0.000115
724 0.000109
725 0.000108
726 0.000105
727 0.000105
728 0.000102
729 0.000099
730 0.000096
731 0.000094
732 0.000093
733 0.000090
734 0.000087
735 0.000084
736 0.000079
737 0.000076
738 0.000070
739 0.000067
740 0.000061
741 0.000060
742 0.000060
743 0.000059
744 0.000064
745 0.000073
746 0.000080
747 0.000085
748 0.000089
749 0.000093
750 0.000098
751 0.000103
752 0.000102
753 0.000103
754 0.000104
755 0.000106
756 0.000110
757 0.000110
758 0.000114
759 0.000117
760 0.000125
761 0.000131
762 0.000139
763 0.000145
764 0.000147
765 0.000144
766 0.000143
767 0.000140
768 0.000140
769 0.000138
770 0.000136
771 0.000135
772 0.000139
773 0.000140
774 0.000145
775 0.000147
776 0.000152
777 0.000155
778 0.000158
779 0.000162
780 0.000163
781 0.000161
782 0.000159
783 0.000157
784 0.000156
785 0.000152
786 0.000150
787 0.000146
788 0.000149
789 0.000149
790 0.000146
791 0.000145
792 0.000142
793 0.000142
794 0.000139
795 0.000139
796 0.000138
797 0.000138
798 0.000138
799 0.000137
800 0.000137
801 0.000139
802 0.000138
803 0.000139
804 0.000140
805 0.000143
806 0.000143
807 0.000145
808 0.000147
809 0.000147
