# i correlation
1 0.001613
2 0.001556
3 0.001507
4 0.001465
5 0.001427
6 0.001401
7 0.001375
8 0.001355
9 0.001333
10 0.001314
11 0.001294
12 0.001273
13 0.001259
14 0.001248
15 0.001230
16 0.001214
17 0.001211
18 0.001202
19 0.001192
20 0.001181
21 0.001169
22 0.001149
23 0.001139
24 0.001131
25 0.001128
26 0.001130
27 0.001125
28 0.001116
29 0.001109
30 0.001107
31 0.001108
32 0.001103
33 0.001102
34 0.001103
35 0.001097
36 0.001093
37 0.001085
38 0.001082
39 0.001077
40 0.001082
41 0.001084
42 0.001080
43 0.001075
44 0.001072
45 0.001064
46 0.001045
47 0.001032
48 0.001025
49 0.001017
50 0.001008
51 0.001004
52 0.001003
53 0.001001
54 0.000995
55 0.000987
56 0.000980
57 0.000968
58 0.000960
59 0.000947
60 0.000932
61 0.000921
62 0.000914
63 0.000902
64 0.000892
65 0.000886
66 0.000878
67 0.000869
68 0.000860
69 0.000855
70 0.000850
71 0.000847
72 0.000845
73 0.000841
74 0.000834
75 0.000834
76 0.000835
77 0.000835
78 0.000842
79 0.000850
80 0.000854
81 0.000860
82 0.000858
83 0.000857
84 0.000857
85 0.000855
86 0.000850
87 0.000842
88 0.000836
89 0.000836
90 0.000834
91 0.000826
92 0.000817
93 0.000806
94 0.000797
95 0.000795
96 0.000790
97 0.000786
98 0.000777
99 0.000771
100 0.000761
101 0.000753
102 0.000749
103 0.000747
104 0.000742
105 0.000746
106 0.000749
107 0.000750
108 0.000746
109 0.000742
110 0.000739
111 0.000741
112 0.000738
113 0.000737
114 0.000743
115 0.000746
116 0.000753
117 0.000751
118 0.000747
119 0.000742
120 0.000737
121 0.000737
122 0.000734
123 0.000736
124 0.000735
125 0.000738
126 0.000738
127 0.000731
128 0.000729
129 0.000727
130 0.000724
131 0.000727
132 0.000735
133 0.000743
134 0.000745
135 0.000748
136 0.000749
137 0.000751
138 0.000750
139 0.000750
140 0.000748
141 0.000746
142 0.000745
143 0.000732
144 0.000718
145 0.000710
146 0.000703
147 0.000702
148 0.000704
149 0.000707
150 0.000709
151 0.000706
152 0.000701
153 0.000696
154 0.000692
155 0.000685
156 0.000681
157 0.000675
158 0.000672
159 0.000674
160 0.000672
161 0.000667
162 0.000666
163 0.000658
164 0.000647
165 0.000642
166 0.000642
167 0.000643
168 0.000652
169 0.000656
170 0.000657
171 0.000660
172 0.000660
173 0.000668
174 0.000670
175 0.000675
176 0.000677
177 0.000678
178 0.000680
179 0.000679
180 0.000682
181 0.000686
182 0.000685
183 0.000686
184 0.000680
185 0.000675
186 0.000674
187 0.000669
188 0.000669
189 0.000664
190 0.000661
191 0.000652
192 0.000651
193 0.000648
194 0.000649
195 0.000649
196 0.000652
197 0.000655
198 0.000652
199 0.000648
200 0.000642
201 0.000636
202 0.000631
203 0.000627
204 0.000633
205 0.000636
206 0.000634
207 0.000635
208 0.000632
209 0.000632
210 0.000627
211 0.000623
212 0.000618
213 0.000620
214 0.000625
215 0.000628
216 0.000630
217 0.000625
218 0.000623
219 0.000617
220 0.000613
221 0.000610
222 0.000610
223 0.000607
224 0.000610
225 0.000607
226 0.000608
227 0.000602
228 0.000595
229 0.000580
230 0.000573
231 0.000565
232 0.000557
233 0.000548
234 0.000543
235 0.000538
236 0.000534
237 0.000536
238 0.000537
239 0.000542
240 0.000551
241 0.000557
242 0.000557
243 0.000557
244 0.000560
245 0.000562
246 0.000562
247 0.000558
248 0.000553
249 0.000549
250 0.000550
251 0.000548
252 0.000549
253 0.000550
254 0.000545
255 0.000539
256 0.000534
257 0.000532
258 0.000536
259 0.000537
260 0.000536
261 0.000537
262 0.000540
263 0.000540
264 0.000546
265 0.000551
266 0.000555
267 0.000556
268 0.000556
269 0.000556
270 0.000557
271 0.000562
272 0.000561
273 0.000556
274 0.000550
275 0.000544
276 0.000543
277 0.000545
278 0.000543
279 0.000542
280 0.000538
281 0.000533
282 0.000527
283 0.000523
284 0.000522
285 0.000524
286 0.000524
287 0.000523
288 0.000520
289 0.000518
290 0.000517
291 0.000517
292 0.000514
293 0.000506
294 0.000502
295 0.000496
296 0.000484
297 0.000476
298 0.000473
299 0.000474
300 0.000475
301 0.000473
302 0.000474
303 0.000473
304 0.000477
305 0.000486
306 0.000493
307 0.000496
308 0.000500
309 0.000499
310 0.000498
311 0.000500
312 0.000499
313 0.000498
314 0.000490
315 0.000489
316 0.000484
317 0.000476
318 0.000474
319 0.000472
320 0.000472
321 0.000477
322 0.000483
323 0.000487
324 0.000487
325 0.000490
326 0.000490
327 0.000489
328 0.000489
329 0.000494
330 0.000506
331 0.000514
332 0.000520
333 0.000521
334 0.000521
335 0.000516
336 0.000511
337 0.000504
338 0.000499
339 0.000494
340 0.000490
341 0.000492
342 0.000494
343 0.000495
344 0.000497
345 0.000496
346 0.000498
347 0.000504
348 0.000505
349 0.000507
350 0.000508
351 0.000506
352 0.000503
353 0.000499
354 0.000492
355 0.000487
356 0.000494
357 0.000501
358 0.000505
359 0.000506
360 0.000507
361 0.000507
362 0.000497
363 0.000490
364 0.000486
365 0.000477
366 0.000474
367 0.000475
368 0.000473
369 0.000470
370 0.000466
371 0.000453
372 0.000443
373 0.000438
374 0.000437
375 0.000442
376 0.000447
377 0.000455
378 0.000457
379 0.000455
380 0.000454
381 0.000450
382 0.000445
383 0.000446
384 0.000448
385 0.000452
386 0.000460
387 0.000471
388 0.000475
389 0.000474
390 0.000474
391 0.000464
392 0.000458
393 0.000454
394 0.000455
395 0.000452
396 0.000443
397 0.000445
398 0.000443
399 0.000441
400 0.000443
401 0.000449
402 0.000449
403 0.000450
404 0.000443
405 0.000434
406 0.000426
407 0.000414
408 0.000406
409 0.000395
410 0.000388
411 0.000387
412 0.000389
413 0.000389
414 0.000384
415 0.000381
416 0.000377
417 0.000370
418 0.000375
419 0.000383
420 0.000389
421 0.000392
422 0.000394
423 0.000392
424 0.000389
425 0.000387
426 0.000386
427 0.000385
428 0.000384
429 0.000379
430 0.000370
431 0.000367
432 0.000362
433 0.000359
434 0.000350
435 0.000340
436 0.000337
437 0.000336
438 0.000336
439 0.000340
440 0.000344
441 0.000350
442 0.000354
443 0.000352
444 0.000347
445 0.000343
446 0.000341
447 0.000338
448 0.000331
449 0.000321
450 0.000316
451 0.000308
452 0.000304
453 0.000301
454 0.000300
455 0.000301
456 0.000300
457 0.000304
458 0.000304
459 0.000307
460 0.000309
461 0.000307
462 0.000306
463 0.000308
464 0.000310
465 0.000312
466 0.000316
467 0.000325
468 0.000334
469 0.000336
470 0.000333
471 0.000334
472 0.000335
473 0.000339
474 0.000338
475 0.000336
476 0.000333
477 0.000329
478 0.000325
479 0.000322
480 0.000323
481 0.000326
482 0.000331
483 0.000334
484 0.000341
485 0.000341
486 0.000345
487 0.000339
488 0.000332
489 0.000326
490 0.000325
491 0.000321
492 0.000322
493 0.000323
494 0.000323
495 0.000320
496 0.000317
497 0.000312
498 0.000313
499 0.000315
500 0.000319
501 0.000323
502 0.000326
503 0.000335
504 0.000340
505 0.000343
506 0.000344
507 0.000347
508 0.000351
509 0.000360
510 0.000363
511 0.000372
512 0.000378
513 0.000381
514 0.000380
515 0.000383
516 0.000387
517 0.000390
518 0.000395
519 0.000400
520 0.000403
521 0.000402
522 0.000400
523 0.000400
524 0.000397
525 0.000393
526 0.000397
527 0.000397
528 0.000396
529 0.000397
530 0.000395
531 0.000390
532 0.000384
533 0.000375
534 0.000368
535 0.000365
536 0.000366
537 0.000368
538 0.000369
539 0.000371
540 0.000370
541 0.000365
542 0.000362
543 0.000358
544 0.000352
545 0.000347
546 0.000341
547 0.000335
548 0.000327
549 0.000320
550 0.000318
551 0.000313
552 0.000312
553 0.000310
554 0.000309
555 0.000301
556 0.000301
557 0.000303
558 0.000301
559 0.000299
560 0.000301
561 0.000302
562 0.000303
563 0.000307
564 0.000306
565 0.000305
566 0.000298
567 0.000292
568 0.000292
569 0.000289
570 0.000288
571 0.000292
572 0.000292
573 0.000291
574 0.000295
575 0.000296
576 0.000296
577 0.000296
578 0.000296
579 0.000293
580 0.000293
581 0.000292
582 0.000294
583 0.000292
584 0.000293
585 0.000290
586 0.000289
587 0.000286
588 0.000281
589 0.000274
590 0.000268
591 0.000267
592 0.000270
593 0.000272
594 0.000282
595 0.000288
596 0.000294
597 0.000298
598 0.000302
599 0.000308
600 0.000316
601 0.000324
602 0.000331
603 0.000330
604 0.000329
605 0.000330
606 0.000329
607 0.000322
608 0.000320
609 0.000317
610 0.000313
611 0.000310
612 0.000310
613 0.000304
614 0.000301
615 0.000299
616 0.000297
617 0.000296
618 0.000297
619 0.000299
620 0.000299
621 0.000299
622 0.000301
623 0.000303
624 0.000298
625 0.000297
626 0.000298
627 0.000298
628 0.000297
629 0.000296
630 0.000291
631 0.000289
632 0.000286
633 0.000283
634 0.000280
635 0.000277
636 0.000273
637 0.000269
638 0.000264
639 0.000256
640 0.000251
641 0.000249
642 0.000247
643 0.000245
644 0.000243
645 0.000242
646 0.000242
647 0.000241
648 0.000239
649 0.000241
650 0.000239
651 0.000236
652 0.000237
653 0.000236
654 0.000235
655 0.000236
656 0.000236
657 0.000236
658 0.000235
659 0.000241
660 0.000242
661 0.000244
662 0.000244
663 0.000245
664 0.000246
665 0.000250
666 0.000251
667 0.000254
668 0.000259
669 0.000260
670 0.000259
671 0.000259
672 0.000255
673 0.000250
674 0.000242
675 0.000235
676 0.000232
677 0.000231
678 0.000235
679 0.000243
680 0.000248
681 0.000250
682 0.000252
683 0.000250
684 0.000246
685 0.000243
686 0.000238
687 0.000231
688 0.000226
689 0.000223
690 0.000219
691 0.000219
692 0.000215
693 0.000213
694 0.000209
695 0.000205
696 0.000199
697 0.000198
698 0.000198
699 0.000200
700 0.000201
701 0.000201
702 0.000197
703 0.000197
704 0.000191
705 0.000188
706 0.000184
707 0.000184
708 0.000187
709 0.000189
710 0.000192
711 0.000194
712 0.000196
713 0.000198
714 0.000196
715 0.000192
716 0.000185
717 0.000180
718 0.000180
719 0.000183
720 0.000184
721 0.000184
722 0.000181
723 0.000179
724 0.000181
725 0.000181
726 0.000179
727 0.000179
728 0.000180
729 0.000176
730 0.000172
731 0.000169
732 0.000165
733 0.000166
734 0.000168
735 0.000168
736 0.000170
737 0.000170
738 0.000169
739 0.000165
740 0.000160
741 0.000155
742 0.000150
743 0.000145
744 0.000146
745 0.000147
746 0.000148
747 0.000149
748 0.000148
749 0.000149
750 0.000150
751 0.000154
752 0.000154
753 0.000154
754 0.000152
755 0.000150
756 0.000144
757 0.000139
758 0.000134
759 0.000129
760 0.000123
761 0.000114
762 0.000107
763 0.000101
764 0.000098
765 0.000095
766 0.000091
767 0.000087
768 0.000085
769 0.000086
770 0.000088
771 0.000087
772 0.000088
773 0.000088
774 0.000087
775 0.000083
776 0.000085
777 0.000087
778 0.000088
779 0.000087
780 0.000093
781 0.000096
782 0.000099
783 0.000101
784 0.000106
785 0.000110
786 0.000113
787 0.000117
788 0.000121
789 0.000123
790 0.000127
791 0.000131
792 0.000132
793 0.000131
794 0.000131
795 0.000131
796 0.000131
797 0.000131
798 0.000133
799 0.000130
800 0.000132
801 0.000133
802 0.000134
803 0.000135
804 0.000137
805 0.000137
806 0.000138
807 0.000136
808 0.000136
809 0.000133
