# i correlation
1 0.001717
2 0.001654
3 0.001595
4 0.001543
5 0.001504
6 0.001476
7 0.001447
8 0.001420
9 0.001393
10 0.001368
11 0.001343
12 0.001322
13 0.001303
14 0.001293
15 0.001279
16 0.001260
17 0.001243
18 0.001226
19 0.001211
20 0.001200
21 0.001201
22 0.001199
23 0.001198
24 0.001198
25 0.001187
26 0.001172
27 0.001165
28 0.001160
29 0.001156
30 0.001154
31 0.001147
32 0.001143
33 0.001135
34 0.001121
35 0.001110
36 0.001098
37 0.001088
38 0.001084
39 0.001080
40 0.001075
41 0.001061
42 0.001051
43 0.001042
44 0.001036
45 0.001039
46 0.001036
47 0.001033
48 0.001028
49 0.001014
50 0.001000
51 0.000982
52 0.000970
53 0.000958
54 0.000947
55 0.000933
56 0.000921
57 0.000905
58 0.000893
59 0.000878
60 0.000866
61 0.000858
62 0.000852
63 0.000838
64 0.000834
65 0.000824
66 0.000815
67 0.000804
68 0.000804
69 0.000807
70 0.000816
71 0.000822
72 0.000828
73 0.000829
74 0.000828
75 0.000827
76 0.000829
77 0.000831
78 0.000833
79 0.000836
80 0.000842
81 0.000840
82 0.000834
83 0.000829
84 0.000819
85 0.000813
86 0.000806
87 0.000798
88 0.000795
89 0.000794
90 0.000793
91 0.000791
92 0.000792
93 0.000792
94 0.000783
95 0.000773
96 0.000760
97 0.000750
98 0.000741
99 0.000734
100 0.000731
101 0.000731
102 0.000726
103 0.000716
104 0.000707
105 0.000702
106 0.000693
107 0.000683
108 0.000677
109 0.000677
110 0.000678
111 0.000683
112 0.000692
113 0.000706
114 0.000716
115 0.000732
116 0.000748
117 0.000759
118 0.000772
119 0.000776
120 0.000785
121 0.000790
122 0.000797
123 0.000801
124 0.000802
125 0.000800
126 0.000806
127 0.000808
128 0.000804
129 0.000802
130 0.000805
131 0.000797
132 0.000798
133 0.000799
134 0.000792
135 0.000780
136 0.000769
137 0.000756
138 0.000741
139 0.000727
140 0.000713
141 0.000699
142 0.000690
143 0.000682
144 0.000674
145 0.000665
146 0.000659
147 0.000658
148 0.000660
149 0.000653
150 0.000653
151 0.000660
152 0.000659
153 0.000663
154 0.000664
155 0.000663
156 0.000658
157 0.000656
158 0.000656
159 0.000657
160 0.000661
161 0.000669
162 0.000678
163 0.000687
164 0.000685
165 0.000688
166 0.000686
167 0.000684
168 0.000681
169 0.000676
170 0.000671
171 0.000669
172 0.000664
173 0.000656
174 0.000644
175 0.000634
176 0.000622
177 0.000612
178 0.000604
179 0.000594
180 0.000586
181 0.000581
182 0.000578
183 0.000579
184 0.000577
185 0.000583
186 0.000586
187 0.000586
188 0.000583
189 0.000573
190 0.000565
191 0.000552
192 0.000542
193 0.000532
194 0.000523
195 0.000512
196 0.000504
197 0.000494
198 0.000488
199 0.000478
200 0.000473
201 0.000471
202 0.000472
203 0.000472
204 0.000473
205 0.000475
206 0.000479
207 0.000482
208 0.000492
209 0.000500
210 0.000510
211 0.000511
212 0.000507
213 0.000500
214 0.000492
215 0.000488
216 0.000479
217 0.000476
218 0.000477
219 0.000480
220 0.000472
221 0.000456
222 0.000439
223 0.000428
224 0.000416
225 0.000412
226 0.000407
227 0.000408
228 0.000403
229 0.000393
230 0.000377
231 0.000363
232 0.000354
233 0.000358
234 0.000360
235 0.000365
236 0.000365
237 0.000362
238 0.000356
239 0.000357
240 0.000355
241 0.000359
242 0.000366
243 0.000366
244 0.000368
245 0.000368
246 0.000362
247 0.000364
248 0.000367
249 0.000369
250 0.000374
251 0.000379
252 0.000378
253 0.000375
254 0.000375
255 0.000373
256 0.000380
257 0.000386
258 0.000391
259 0.000397
260 0.000401
261 0.000394
262 0.000391
263 0.000387
264 0.000385
265 0.000388
266 0.000397
267 0.000399
268 0.000403
269 0.000399
270 0.000395
271 0.000389
272 0.000384
273 0.000376
274 0.000370
275 0.000361
276 0.000354
277 0.000352
278 0.000351
279 0.000350
280 0.000352
281 0.000362
282 0.000367
283 0.000378
284 0.000389
285 0.000394
286 0.000396
287 0.000400
288 0.000402
289 0.000410
290 0.000417
291 0.000422
292 0.000424
293 0.000414
294 0.000404
295 0.000397
296 0.000384
297 0.000372
298 0.000363
299 0.000352
300 0.000343
301 0.000337
302 0.000330
303 0.000328
304 0.000326
305 0.000321
306 0.000314
307 0.000303
308 0.000295
309 0.000288
310 0.000285
311 0.000287
312 0.000287
313 0.000283
314 0.000275
315 0.000267
316 0.000262
317 0.000253
318 0.000250
319 0.000251
320 0.000251
321 0.000246
322 0.000238
323 0.000228
324 0.000223
325 0.000218
326 0.000210
327 0.000200
328 0.000192
329 0.000186
330 0.000183
331 0.000180
332 0.000180
333 0.000181
334 0.000184
335 0.000187
336 0.000192
337 0.000196
338 0.000204
339 0.000213
340 0.000222
341 0.000231
342 0.000239
343 0.000246
344 0.000249
345 0.000252
346 0.000255
347 0.000255
348 0.000255
349 0.000253
350 0.000250
351 0.000251
352 0.000249
353 0.000245
354 0.000235
355 0.000230
356 0.000227
357 0.000227
358 0.000227
359 0.000228
360 0.000228
361 0.000233
362 0.000238
363 0.000242
364 0.000243
365 0.000242
366 0.000238
367 0.000235
368 0.000230
369 0.000233
370 0.000236
371 0.000243
372 0.000250
373 0.000255
374 0.000255
375 0.000261
376 0.000259
377 0.000255
378 0.000254
379 0.000245
380 0.000235
381 0.000233
382 0.000224
383 0.000220
384 0.000216
385 0.000211
386 0.000211
387 0.000209
388 0.000211
389 0.000212
390 0.000220
391 0.000227
392 0.000236
393 0.000244
394 0.000250
395 0.000258
396 0.000267
397 0.000269
398 0.000274
399 0.000277
400 0.000282
401 0.000283
402 0.000288
403 0.000289
404 0.000292
405 0.000294
406 0.000289
407 0.000283
408 0.000277
409 0.000275
410 0.000278
411 0.000280
412 0.000282
413 0.000288
414 0.000290
415 0.000289
416 0.000289
417 0.000289
418 0.000286
419 0.000285
420 0.000284
421 0.000286
422 0.000285
423 0.000288
424 0.000291
425 0.000296
426 0.000298
427 0.000300
428 0.000301
429 0.000300
430 0.000295
431 0.000295
432 0.000293
433 0.000291
434 0.000292
435 0.000292
436 0.000290
437 0.000293
438 0.000297
439 0.000302
440 0.000304
441 0.000303
442 0.000300
443 0.000296
444 0.000291
445 0.000294
446 0.000297
447 0.000300
448 0.000300
449 0.000296
450 0.000294
451 0.000290
452 0.000293
453 0.000296
454 0.000300
455 0.000306
456 0.000312
457 0.000318
458 0.000324
459 0.000325
460 0.000322
461 0.000322
462 0.000324
463 0.000328
464 0.000334
465 0.000337
466 0.000336
467 0.000334
468 0.000334
469 0.000335
470 0.000335
471 0.000337
472 0.000337
473 0.000335
474 0.000338
475 0.000341
476 0.000345
477 0.000349
478 0.000355
479 0.000357
480 0.000348
481 0.000340
482 0.000332
483 0.000322
484 0.000317
485 0.000320
486 0.000326
487 0.000330
488 0.000329
489 0.000328
490 0.000320
491 0.000319
492 0.000317
493 0.000320
494 0.000317
495 0.000318
496 0.000318
497 0.000314
498 0.000312
499 0.000307
500 0.000303
501 0.000305
502 0.000303
503 0.000301
504 0.000300
505 0.000298
506 0.000292
507 0.000288
508 0.000284
509 0.000281
510 0.000281
511 0.000284
512 0.000280
513 0.000277
514 0.000274
515 0.000268
516 0.000263
517 0.000256
518 0.000255
519 0.000256
520 0.000255
521 0.000254
522 0.000251
523 0.000249
524 0.000247
525 0.000249
526 0.000255
527 0.000258
528 0.000264
529 0.000272
530 0.000277
531 0.000281
532 0.000285
533 0.000291
534 0.000299
535 0.000303
536 0.000301
537 0.000298
538 0.000290
539 0.000286
540 0.000285
541 0.000277
542 0.000267
543 0.000265
544 0.000264
545 0.000264
546 0.000264
547 0.000265
548 0.000264
549 0.000265
550 0.000263
551 0.000265
552 0.000266
553 0.000271
554 0.000271
555 0.000272
556 0.000276
557 0.000283
558 0.000295
559 0.000308
560 0.000315
561 0.000326
562 0.000329
563 0.000335
564 0.000338
565 0.000338
566 0.000337
567 0.000339
568 0.000342
569 0.000341
570 0.000338
571 0.000336
572 0.000332
573 0.000328
574 0.000323
575 0.000323
576 0.000323
577 0.000322
578 0.000323
579 0.000328
580 0.000333
581 0.000340
582 0.000345
583 0.000350
584 0.000351
585 0.000350
586 0.000348
587 0.000345
588 0.000340
589 0.000335
590 0.000330
591 0.000329
592 0.000329
593 0.000327
594 0.000323
595 0.000316
596 0.000310
597 0.000305
598 0.000302
599 0.000295
600 0.000287
601 0.000281
602 0.000274
603 0.000273
604 0.000275
605 0.000278
606 0.000284
607 0.000289
608 0.000297
609 0.000305
610 0.000308
611 0.000312
612 0.000312
613 0.000314
614 0.000312
615 0.000310
616 0.000309
617 0.000306
618 0.000304
619 0.000303
620 0.000303
621 0.000299
622 0.000296
623 0.000295
624 0.000296
625 0.000298
626 0.000297
627 0.000293
628 0.000293
629 0.000295
630 0.000298
631 0.000300
632 0.000299
633 0.000298
634 0.000296
635 0.000294
636 0.000289
637 0.000288
638 0.000283
639 0.000278
640 0.000271
641 0.000271
642 0.000266
643 0.000263
644 0.000262
645 0.000255
646 0.000253
647 0.000252
648 0.000256
649 0.000260
650 0.000263
651 0.000265
652 0.000269
653 0.000277
654 0.000283
655 0.000285
656 0.000291
657 0.000292
658 0.000293
659 0.000293
660 0.000291
661 0.000287
662 0.000288
663 0.000282
664 0.000281
665 0.000277
666 0.000271
667 0.000264
668 0.000257
669 0.000250
670 0.000241
671 0.000231
672 0.000221
673 0.000216
674 0.000212
675 0.000208
676 0.000206
677 0.000205
678 0.000203
679 0.000203
680 0.000199
681 0.000204
682 0.000207
683 0.000214
684 0.000224
685 0.000232
686 0.000240
687 0.000243
688 0.000248
689 0.000247
690 0.000246
691 0.000244
692 0.000240
693 0.000237
694 0.000238
695 0.000235
696 0.000236
697 0.000240
698 0.000244
699 0.000247
700 0.000249
701 0.000250
702 0.000250
703 0.000246
704 0.000243
705 0.000242
706 0.000246
707 0.000249
708 0.000249
709 0.000247
710 0.000241
711 0.000236
712 0.000234
713 0.000237
714 0.000238
715 0.000239
716 0.000237
717 0.000233
718 0.000231
719 0.000230
720 0.000228
721 0.000229
722 0.000227
723 0.000227
724 0.000231
725 0.000225
726 0.000226
727 0.000226
728 0.000223
729 0.000226
730 0.000233
731 0.000237
732 0.000237
733 0.000237
734 0.000237
735 0.000234
736 0.000232
737 0.000229
738 0.000228
739 0.000229
740 0.000228
741 0.000228
742 0.000228
743 0.000230
744 0.000233
745 0.000240
746 0.000247
747 0.000253
748 0.000258
749 0.000260
750 0.000258
751 0.000258
752 0.000258
753 0.000255
754 0.000255
755 0.000257
756 0.000257
757 0.000256
758 0.000254
759 0.000256
760 0.000254
761 0.000250
762 0.000245
763 0.000238
764 0.000230
765 0.000220
766 0.000215
767 0.000212
768 0.000211
769 0.000213
770 0.000215
771 0.000218
772 0.000218
773 0.000217
774 0.000217
775 0.000214
776 0.000213
777 0.000210
778 0.000208
779 0.000207
780 0.000207
781 0.000206
782 0.000203
783 0.000200
784 0.000194
785 0.000189
786 0.000187
787 0.000184
788 0.000181
789 0.000178
790 0.000174
791 0.000169
792 0.000163
793 0.000154
794 0.000148
795 0.000141
796 0.000134
797 0.000129
798 0.000122
799 0.000119
800 0.000114
801 0.000112
802 0.000108
803 0.000107
804 0.000106
805 0.000104
806 0.000101
807 0.000096
808 0.000090
809 0.000086
