# i correlation
1 0.001607
2 0.001550
3 0.001494
4 0.001445
5 0.001412
6 0.001380
7 0.001354
8 0.001334
9 0.001312
10 0.001290
11 0.001269
12 0.001248
13 0.001230
14 0.001213
15 0.001200
16 0.001190
17 0.001177
18 0.001164
19 0.001150
20 0.001136
21 0.001128
22 0.001122
23 0.001123
24 0.001120
25 0.001118
26 0.001116
27 0.001119
28 0.001117
29 0.001113
30 0.001106
31 0.001095
32 0.001085
33 0.001082
34 0.001081
35 0.001082
36 0.001076
37 0.001067
38 0.001061
39 0.001055
40 0.001047
41 0.001042
42 0.001031
43 0.001029
44 0.001021
45 0.001016
46 0.001014
47 0.001014
48 0.001015
49 0.001016
50 0.001013
51 0.001004
52 0.001000
53 0.000990
54 0.000978
55 0.000972
56 0.000962
57 0.000958
58 0.000958
59 0.000955
60 0.000958
61 0.000964
62 0.000971
63 0.000969
64 0.000974
65 0.000974
66 0.000970
67 0.000959
68 0.000952
69 0.000945
70 0.000939
71 0.000932
72 0.000927
73 0.000922
74 0.000918
75 0.000913
76 0.000907
77 0.000902
78 0.000903
79 0.000898
80 0.000898
81 0.000904
82 0.000907
83 0.000910
84 0.000909
85 0.000907
86 0.000901
87 0.000900
88 0.000895
89 0.000891
90 0.000881
91 0.000874
92 0.000864
93 0.000855
94 0.000848
95 0.000839
96 0.000833
97 0.000821
98 0.000808
99 0.000802
100 0.000791
101 0.000782
102 0.000773
103 0.000764
104 0.000765
105 0.000773
106 0.000778
107 0.000786
108 0.000793
109 0.000797
110 0.000799
111 0.000801
112 0.000806
113 0.000815
114 0.000823
115 0.000830
116 0.000838
117 0.000843
118 0.000847
119 0.000855
120 0.000854
121 0.000858
122 0.000864
123 0.000862
124 0.000861
125 0.000856
126 0.000853
127 0.000848
128 0.000839
129 0.000832
130 0.000836
131 0.000838
132 0.000840
133 0.000839
134 0.000839
135 0.000838
136 0.000838
137 0.000831
138 0.000825
139 0.000819
140 0.000816
141 0.000808
142 0.000803
143 0.000798
144 0.000790
145 0.000785
146 0.000781
147 0.000775
148 0.000770
149 0.000770
150 0.000760
151 0.000750
152 0.000738
153 0.000725
154 0.000718
155 0.000711
156 0.000707
157 0.000711
158 0.000714
159 0.000719
160 0.000717
161 0.000711
162 0.000705
163 0.000704
164 0.000700
165 0.000700
166 0.000696
167 0.000697
168 0.000696
169 0.000701
170 0.000704
171 0.000714
172 0.000716
173 0.000721
174 0.000725
175 0.000726
176 0.000724
177 0.000721
178 0.000713
179 0.000709
180 0.000699
181 0.000690
182 0.000686
183 0.000688
184 0.000691
185 0.000689
186 0.000685
187 0.000684
188 0.000684
189 0.000683
190 0.000686
191 0.000691
192 0.000699
193 0.000708
194 0.000714
195 0.000719
196 0.000724
197 0.000730
198 0.000731
199 0.000726
200 0.000728
201 0.000726
202 0.000732
203 0.000739
204 0.000741
205 0.000742
206 0.000738
207 0.000732
208 0.000725
209 0.000718
210 0.000701
211 0.000682
212 0.000668
213 0.000652
214 0.000638
215 0.000628
216 0.000617
217 0.000612
218 0.000611
219 0.000603
220 0.000600
221 0.000598
222 0.000590
223 0.000587
224 0.000588
225 0.000587
226 0.000584
227 0.000583
228 0.000579
229 0.000575
230 0.000568
231 0.000564
232 0.000563
233 0.000558
234 0.000553
235 0.000554
236 0.000556
237 0.000558
238 0.000558
239 0.000562
240 0.000570
241 0.000579
242 0.000588
243 0.000593
244 0.000600
245 0.000605
246 0.000607
247 0.000610
248 0.000608
249 0.000602
250 0.000598
251 0.000587
252 0.000585
253 0.000586
254 0.000591
255 0.000603
256 0.000611
257 0.000615
258 0.000619
259 0.000615
260 0.000610
261 0.000606
262 0.000597
263 0.000590
264 0.000592
265 0.000595
266 0.000597
267 0.000601
268 0.000607
269 0.000610
270 0.000614
271 0.000615
272 0.000608
273 0.000596
274 0.000580
275 0.000564
276 0.000549
277 0.000535
278 0.000523
279 0.000518
280 0.000513
281 0.000508
282 0.000504
283 0.000502
284 0.000498
285 0.000501
286 0.000503
287 0.000508
288 0.000510
289 0.000511
290 0.000516
291 0.000517
292 0.000517
293 0.000519
294 0.000516
295 0.000517
296 0.000518
297 0.000518
298 0.000514
299 0.000511
300 0.000502
301 0.000498
302 0.000495
303 0.000492
304 0.000492
305 0.000493
306 0.000495
307 0.000500
308 0.000507
309 0.000517
310 0.000526
311 0.000525
312 0.000518
313 0.000504
314 0.000499
315 0.000496
316 0.000504
317 0.000513
318 0.000520
319 0.000526
320 0.000531
321 0.000525
322 0.000522
323 0.000523
324 0.000520
325 0.000521
326 0.000520
327 0.000519
328 0.000520
329 0.000521
330 0.000521
331 0.000524
332 0.000530
333 0.000540
334 0.000551
335 0.000556
336 0.000565
337 0.000566
338 0.000561
339 0.000561
340 0.000556
341 0.000550
342 0.000547
343 0.000544
344 0.000539
345 0.000536
346 0.000530
347 0.000521
348 0.000508
349 0.000496
350 0.000489
351 0.000484
352 0.000481
353 0.000474
354 0.000470
355 0.000471
356 0.000463
357 0.000456
358 0.000445
359 0.000433
360 0.000424
361 0.000419
362 0.000416
363 0.000417
364 0.000410
365 0.000397
366 0.000391
367 0.000387
368 0.000389
369 0.000391
370 0.000395
371 0.000400
372 0.000407
373 0.000408
374 0.000409
375 0.000405
376 0.000403
377 0.000405
378 0.000405
379 0.000408
380 0.000411
381 0.000415
382 0.000419
383 0.000417
384 0.000414
385 0.000410
386 0.000410
387 0.000406
388 0.000403
389 0.000399
390 0.000392
391 0.000393
392 0.000397
393 0.000396
394 0.000394
395 0.000390
396 0.000393
397 0.000398
398 0.000401
399 0.000403
400 0.000403
401 0.000409
402 0.000411
403 0.000410
404 0.000415
405 0.000416
406 0.000413
407 0.000416
408 0.000409
409 0.000406
410 0.000399
411 0.000395
412 0.000396
413 0.000390
414 0.000387
415 0.000387
416 0.000381
417 0.000381
418 0.000375
419 0.000368
420 0.000363
421 0.000357
422 0.000348
423 0.000341
424 0.000334
425 0.000331
426 0.000323
427 0.000317
428 0.000312
429 0.000307
430 0.000302
431 0.000300
432 0.000300
433 0.000298
434 0.000298
435 0.000299
436 0.000299
437 0.000294
438 0.000291
439 0.000290
440 0.000289
441 0.000291
442 0.000296
443 0.000296
444 0.000305
445 0.000310
446 0.000318
447 0.000324
448 0.000328
449 0.000333
450 0.000338
451 0.000345
452 0.000350
453 0.000356
454 0.000361
455 0.000360
456 0.000360
457 0.000358
458 0.000354
459 0.000354
460 0.000352
461 0.000349
462 0.000347
463 0.000348
464 0.000348
465 0.000348
466 0.000346
467 0.000345
468 0.000346
469 0.000344
470 0.000344
471 0.000336
472 0.000327
473 0.000320
474 0.000316
475 0.000311
476 0.000309
477 0.000309
478 0.000305
479 0.000306
480 0.000303
481 0.000302
482 0.000302
483 0.000301
484 0.000296
485 0.000296
486 0.000292
487 0.000294
488 0.000293
489 0.000294
490 0.000295
491 0.000292
492 0.000296
493 0.000305
494 0.000313
495 0.000320
496 0.000321
497 0.000318
498 0.000309
499 0.000303
500 0.000293
501 0.000287
502 0.000283
503 0.000284
504 0.000289
505 0.000292
506 0.000295
507 0.000288
508 0.000286
509 0.000282
510 0.000280
511 0.000285
512 0.000292
513 0.000303
514 0.000311
515 0.000318
516 0.000317
517 0.000315
518 0.000311
519 0.000308
520 0.000305
521 0.000297
522 0.000292
523 0.000289
524 0.000281
525 0.000273
526 0.000269
527 0.000267
528 0.000268
529 0.000268
530 0.000262
531 0.000257
532 0.000251
533 0.000246
534 0.000247
535 0.000250
536 0.000251
537 0.000251
538 0.000252
539 0.000256
540 0.000262
541 0.000269
542 0.000276
543 0.000280
544 0.000283
545 0.000283
546 0.000280
547 0.000277
548 0.000270
549 0.000262
550 0.000256
551 0.000256
552 0.000252
553 0.000251
554 0.000249
555 0.000244
556 0.000235
557 0.000228
558 0.000221
559 0.000214
560 0.000207
561 0.000199
562 0.000191
563 0.000189
564 0.000189
565 0.000187
566 0.000185
567 0.000185
568 0.000185
569 0.000184
570 0.000187
571 0.000184
572 0.000185
573 0.000183
574 0.000180
575 0.000185
576 0.000192
577 0.000200
578 0.000211
579 0.000217
580 0.000224
581 0.000225
582 0.000221
583 0.000217
584 0.000216
585 0.000210
586 0.000206
587 0.000201
588 0.000199
589 0.000199
590 0.000199
591 0.000201
592 0.000201
593 0.000198
594 0.000196
595 0.000193
596 0.000192
597 0.000191
598 0.000188
599 0.000188
600 0.000192
601 0.000192
602 0.000192
603 0.000190
604 0.000188
605 0.000187
606 0.000187
607 0.000186
608 0.000184
609 0.000182
610 0.000182
611 0.000181
612 0.000180
613 0.000176
614 0.000172
615 0.000167
616 0.000159
617 0.000148
618 0.000140
619 0.000134
620 0.000132
621 0.000128
622 0.000126
623 0.000123
624 0.000121
625 0.000120
626 0.000118
627 0.000127
628 0.000137
629 0.000147
630 0.000153
631 0.000152
632 0.000152
633 0.000151
634 0.000150
635 0.000150
636 0.000149
637 0.000147
638 0.000147
639 0.000152
640 0.000152
641 0.000161
642 0.000169
643 0.000173
644 0.000178
645 0.000179
646 0.000178
647 0.000174
648 0.000169
649 0.000165
650 0.000162
651 0.000157
652 0.000154
653 0.000156
654 0.000160
655 0.000155
656 0.000156
657 0.000157
658 0.000158
659 0.000161
660 0.000162
661 0.000163
662 0.000167
663 0.000169
664 0.000173
665 0.000176
666 0.000177
667 0.000178
668 0.000177
669 0.000173
670 0.000173
671 0.000172
672 0.000175
673 0.000177
674 0.000177
675 0.000179
676 0.000179
677 0.000181
678 0.000182
679 0.000179
680 0.000178
681 0.000175
682 0.000172
683 0.000168
684 0.000166
685 0.000161
686 0.000161
687 0.000159
688 0.000163
689 0.000166
690 0.000168
691 0.000167
692 0.000165
693 0.000165
694 0.000165
695 0.000162
696 0.000158
697 0.000155
698 0.000146
699 0.000139
700 0.000133
701 0.000125
702 0.000120
703 0.000116
704 0.000110
705 0.000104
706 0.000101
707 0.000096
708 0.000094
709 0.000093
710 0.000092
711 0.000096
712 0.000096
713 0.000099
714 0.000104
715 0.000105
716 0.000107
717 0.000110
718 0.000113
719 0.000115
720 0.000114
721 0.000113
722 0.000112
723 0.000111
724 0.000112
725 0.000108
726 0.000104
727 0.000099
728 0.000092
729 0.000086
730 0.000080
731 0.000074
732 0.000070
733 0.000063
734 0.000056
735 0.000052
736 0.000050
737 0.000050
738 0.000050
739 0.000049
740 0.000049
741 0.000053
742 0.000052
743 0.000052
744 0.000054
745 0.000051
746 0.000051
747 0.000052
748 0.000053
749 0.000058
750 0.000064
751 0.000072
752 0.000079
753 0.000080
754 0.000083
755 0.000085
756 0.000085
757 0.000082
758 0.000079
759 0.000082
760 0.000087
761 0.000091
762 0.000093
763 0.000096
764 0.000097
765 0.000096
766 0.000093
767 0.000093
768 0.000091
769 0.000092
770 0.000090
771 0.000090
772 0.000089
773 0.000090
774 0.000087
775 0.000088
776 0.000086
777 0.000085
778 0.000084
779 0.000083
780 0.000085
781 0.000085
782 0.000088
783 0.000090
784 0.000096
785 0.000100
786 0.000102
787 0.000101
788 0.000098
789 0.000097
790 0.000096
791 0.000093
792 0.000090
793 0.000088
794 0.000088
795 0.000081
796 0.000081
797 0.000080
798 0.000080
799 0.000082
800 0.000084
801 0.000083
802 0.000083
803 0.000084
804 0.000083
805 0.000086
806 0.000086
807 0.000085
808 0.000086
809 0.000085
