# i correlation
1 0.001361
2 0.001303
3 0.001254
4 0.001213
5 0.001187
6 0.001154
7 0.001126
8 0.001096
9 0.001073
10 0.001052
11 0.001033
12 0.001013
13 0.000992
14 0.000977
15 0.000957
16 0.000942
17 0.000926
18 0.000902
19 0.000894
20 0.000889
21 0.000881
22 0.000874
23 0.000876
24 0.000877
25 0.000879
26 0.000877
27 0.000866
28 0.000860
29 0.000854
30 0.000851
31 0.000854
32 0.000854
33 0.000853
34 0.000854
35 0.000850
36 0.000852
37 0.000849
38 0.000840
39 0.000838
40 0.000842
41 0.000843
42 0.000842
43 0.000842
44 0.000838
45 0.000834
46 0.000822
47 0.000815
48 0.000809
49 0.000800
50 0.000792
51 0.000777
52 0.000763
53 0.000747
54 0.000728
55 0.000717
56 0.000712
57 0.000710
58 0.000707
59 0.000700
60 0.000693
61 0.000687
62 0.000682
63 0.000674
64 0.000674
65 0.000680
66 0.000683
67 0.000692
68 0.000695
69 0.000698
70 0.000698
71 0.000700
72 0.000710
73 0.000715
74 0.000716
75 0.000722
76 0.000727
77 0.000732
78 0.000732
79 0.000731
80 0.000724
81 0.000729
82 0.000731
83 0.000731
84 0.000736
85 0.000731
86 0.000726
87 0.000721
88 0.000717
89 0.000715
90 0.000711
91 0.000704
92 0.000701
93 0.000691
94 0.000679
95 0.000665
96 0.000649
97 0.000636
98 0.000626
99 0.000619
100 0.000614
101 0.000610
102 0.000604
103 0.000600
104 0.000594
105 0.000585
106 0.000577
107 0.000578
108 0.000581
109 0.000584
110 0.000581
111 0.000568
112 0.000558
113 0.000551
114 0.000550
115 0.000557
116 0.000559
117 0.000569
118 0.000581
119 0.000588
120 0.000594
121 0.000598
122 0.000599
123 0.000600
124 0.000600
125 0.000604
126 0.000602
127 0.000595
128 0.000590
129 0.000593
130 0.000596
131 0.000596
132 0.000594
133 0.000591
134 0.000598
135 0.000599
136 0.000594
137 0.000587
138 0.000572
139 0.000558
140 0.000552
141 0.000547
142 0.000538
143 0.000532
144 0.000527
145 0.000522
146 0.000518
147 0.000513
148 0.000509
149 0.000508
150 0.000512
151 0.000522
152 0.000521
153 0.000520
154 0.000518
155 0.000512
156 0.000504
157 0.000504
158 0.000504
159 0.000504
160 0.000504
161 0.000503
162 0.000503
163 0.000501
164 0.000499
165 0.000495
166 0.000500
167 0.000503
168 0.000501
169 0.000497
170 0.000498
171 0.000493
172 0.000486
173 0.000484
174 0.000484
175 0.000481
176 0.000477
177 0.000477
178 0.000477
179 0.000478
180 0.000481
181 0.000483
182 0.000484
183 0.000488
184 0.000491
185 0.000494
186 0.000500
187 0.000503
188 0.000496
189 0.000491
190 0.000495
191 0.000506
192 0.000513
193 0.000517
194 0.000516
195 0.000511
196 0.000510
197 0.000506
198 0.000501
199 0.000490
200 0.000479
201 0.000474
202 0.000473
203 0.000476
204 0.000477
205 0.000471
206 0.000468
207 0.000470
208 0.000467
209 0.000463
210 0.000466
211 0.000467
212 0.000472
213 0.000476
214 0.000471
215 0.000466
216 0.000459
217 0.000458
218 0.000462
219 0.000462
220 0.000461
221 0.000455
222 0.000453
223 0.000447
224 0.000446
225 0.000434
226 0.000426
227 0.000425
228 0.000418
229 0.000410
230 0.000403
231 0.000397
232 0.000393
233 0.000392
234 0.000391
235 0.000393
236 0.000396
237 0.000396
238 0.000399
239 0.000401
240 0.000402
241 0.000404
242 0.000399
243 0.000399
244 0.000395
245 0.000393
246 0.000390
247 0.000389
248 0.000393
249 0.000390
250 0.000397
251 0.000401
252 0.000407
253 0.000415
254 0.000424
255 0.000432
256 0.000433
257 0.000435
258 0.000437
259 0.000438
260 0.000441
261 0.000445
262 0.000448
263 0.000450
264 0.000446
265 0.000444
266 0.000445
267 0.000451
268 0.000450
269 0.000450
270 0.000446
271 0.000447
272 0.000446
273 0.000441
274 0.000433
275 0.000422
276 0.000416
277 0.000414
278 0.000413
279 0.000412
280 0.000412
281 0.000410
282 0.000409
283 0.000406
284 0.000404
285 0.000406
286 0.000405
287 0.000406
288 0.000409
289 0.000411
290 0.000409
291 0.000408
292 0.000405
293 0.000401
294 0.000396
295 0.000391
296 0.000383
297 0.000376
298 0.000372
299 0.000369
300 0.000364
301 0.000359
302 0.000354
303 0.000354
304 0.000351
305 0.000350
306 0.000349
307 0.000350
308 0.000350
309 0.000344
310 0.000343
311 0.000343
312 0.000344
313 0.000343
314 0.000344
315 0.000345
316 0.000343
317 0.000338
318 0.000330
319 0.000321
320 0.000314
321 0.000312
322 0.000313
323 0.000308
324 0.000301
325 0.000295
326 0.000290
327 0.000292
328 0.000296
329 0.000298
330 0.000297
331 0.000297
332 0.000300
333 0.000299
334 0.000300
335 0.000300
336 0.000303
337 0.000305
338 0.000310
339 0.000317
340 0.000320
341 0.000322
342 0.000324
343 0.000325
344 0.000331
345 0.000336
346 0.000335
347 0.000329
348 0.000326
349 0.000324
350 0.000324
351 0.000315
352 0.000310
353 0.000305
354 0.000299
355 0.000295
356 0.000288
357 0.000282
358 0.000280
359 0.000278
360 0.000274
361 0.000273
362 0.000271
363 0.000270
364 0.000269
365 0.000267
366 0.000264
367 0.000256
368 0.000252
369 0.000246
370 0.000251
371 0.000259
372 0.000265
373 0.000271
374 0.000274
375 0.000283
376 0.000289
377 0.000296
378 0.000302
379 0.000310
380 0.000315
381 0.000315
382 0.000315
383 0.000310
384 0.000314
385 0.000314
386 0.000319
387 0.000325
388 0.000327
389 0.000329
390 0.000331
391 0.000330
392 0.000327
393 0.000322
394 0.000318
395 0.000315
396 0.000308
397 0.000305
398 0.000303
399 0.000301
400 0.000300
401 0.000298
402 0.000301
403 0.000305
404 0.000307
405 0.000308
406 0.000309
407 0.000314
408 0.000314
409 0.000307
410 0.000299
411 0.000294
412 0.000289
413 0.000289
414 0.000290
415 0.000289
416 0.000284
417 0.000276
418 0.000274
419 0.000270
420 0.000270
421 0.000272
422 0.000273
423 0.000273
424 0.000271
425 0.000269
426 0.000267
427 0.000270
428 0.000277
429 0.000283
430 0.000288
431 0.000291
432 0.000292
433 0.000293
434 0.000292
435 0.000292
436 0.000289
437 0.000284
438 0.000279
439 0.000275
440 0.000273
441 0.000268
442 0.000264
443 0.000261
444 0.000258
445 0.000255
446 0.000251
447 0.000249
448 0.000245
449 0.000238
450 0.000233
451 0.000231
452 0.000234
453 0.000236
454 0.000242
455 0.000246
456 0.000242
457 0.000241
458 0.000245
459 0.000250
460 0.000257
461 0.000258
462 0.000261
463 0.000270
464 0.000279
465 0.000293
466 0.000295
467 0.000297
468 0.000302
469 0.000306
470 0.000312
471 0.000319
472 0.000326
473 0.000334
474 0.000345
475 0.000352
476 0.000355
477 0.000352
478 0.000349
479 0.000351
480 0.000356
481 0.000356
482 0.000351
483 0.000340
484 0.000331
485 0.000321
486 0.000312
487 0.000301
488 0.000289
489 0.000282
490 0.000272
491 0.000261
492 0.000247
493 0.000235
494 0.000224
495 0.000217
496 0.000213
497 0.000212
498 0.000212
499 0.000214
500 0.000216
501 0.000215
502 0.000217
503 0.000216
504 0.000215
505 0.000220
506 0.000222
507 0.000225
508 0.000227
509 0.000229
510 0.000231
511 0.000232
512 0.000238
513 0.000242
514 0.000249
515 0.000253
516 0.000254
517 0.000251
518 0.000244
519 0.000239
520 0.000233
521 0.000233
522 0.000234
523 0.000235
524 0.000233
525 0.000231
526 0.000228
527 0.000220
528 0.000214
529 0.000209
530 0.000206
531 0.000201
532 0.000199
533 0.000189
534 0.000178
535 0.000168
536 0.000165
537 0.000166
538 0.000164
539 0.000164
540 0.000162
541 0.000161
542 0.000161
543 0.000159
544 0.000162
545 0.000164
546 0.000168
547 0.000170
548 0.000172
549 0.000173
550 0.000173
551 0.000175
552 0.000178
553 0.000178
554 0.000181
555 0.000183
556 0.000187
557 0.000191
558 0.000201
559 0.000206
560 0.000207
561 0.000209
562 0.000213
563 0.000215
564 0.000217
565 0.000220
566 0.000219
567 0.000216
568 0.000211
569 0.000207
570 0.000204
571 0.000197
572 0.000193
573 0.000188
574 0.000179
575 0.000173
576 0.000160
577 0.000150
578 0.000144
579 0.000141
580 0.000141
581 0.000141
582 0.000142
583 0.000144
584 0.000144
585 0.000143
586 0.000143
587 0.000141
588 0.000142
589 0.000146
590 0.000149
591 0.000151
592 0.000151
593 0.000155
594 0.000162
595 0.000169
596 0.000175
597 0.000177
598 0.000182
599 0.000191
600 0.000196
601 0.000198
602 0.000196
603 0.000193
604 0.000191
605 0.000195
606 0.000201
607 0.000203
608 0.000205
609 0.000203
610 0.000202
611 0.000199
612 0.000193
613 0.000188
614 0.000184
615 0.000178
616 0.000173
617 0.000170
618 0.000163
619 0.000159
620 0.000157
621 0.000153
622 0.000150
623 0.000145
624 0.000141
625 0.000142
626 0.000142
627 0.000143
628 0.000141
629 0.000137
630 0.000138
631 0.000142
632 0.000150
633 0.000157
634 0.000164
635 0.000167
636 0.000167
637 0.000167
638 0.000168
639 0.000169
640 0.000168
641 0.000165
642 0.000161
643 0.000156
644 0.000152
645 0.000150
646 0.000149
647 0.000150
648 0.000151
649 0.000150
650 0.000147
651 0.000148
652 0.000145
653 0.000145
654 0.000140
655 0.000136
656 0.000138
657 0.000142
658 0.000143
659 0.000142
660 0.000140
661 0.000140
662 0.000143
663 0.000142
664 0.000141
665 0.000141
666 0.000141
667 0.000144
668 0.000143
669 0.000142
670 0.000144
671 0.000146
672 0.000147
673 0.000152
674 0.000154
675 0.000156
676 0.000159
677 0.000158
678 0.000160
679 0.000158
680 0.000154
681 0.000150
682 0.000154
683 0.000158
684 0.000157
685 0.000156
686 0.000155
687 0.000157
688 0.000157
689 0.000156
690 0.000156
691 0.000152
692 0.000153
693 0.000154
694 0.000154
695 0.000155
696 0.000155
697 0.000155
698 0.000157
699 0.000162
700 0.000162
701 0.000163
702 0.000166
703 0.000167
704 0.000166
705 0.000163
706 0.000161
707 0.000161
708 0.000159
709 0.000162
710 0.000164
711 0.000164
712 0.000167
713 0.000168
714 0.000168
715 0.000172
716 0.000178
717 0.000181
718 0.000185
719 0.000186
720 0.000186
721 0.000186
722 0.000188
723 0.000190
724 0.000189
725 0.000186
726 0.000185
727 0.000184
728 0.000186
729 0.000190
730 0.000190
731 0.000186
732 0.000183
733 0.000181
734 0.000179
735 0.000181
736 0.000180
737 0.000177
738 0.000173
739 0.000171
740 0.000170
741 0.000171
742 0.000173
743 0.000178
744 0.000182
745 0.000186
746 0.000186
747 0.000184
748 0.000183
749 0.000182
750 0.000182
751 0.000182
752 0.000185
753 0.000183
754 0.000182
755 0.000179
756 0.000175
757 0.000174
758 0.000171
759 0.000168
760 0.000169
761 0.000165
762 0.000164
763 0.000165
764 0.000167
765 0.000170
766 0.000169
767 0.000168
768 0.000169
769 0.000170
770 0.000170
771 0.000170
772 0.000170
773 0.000169
774 0.000167
775 0.000163
776 0.000162
777 0.000162
778 0.000160
779 0.000161
780 0.000162
781 0.000162
782 0.000165
783 0.000169
784 0.000170
785 0.000170
786 0.000169
787 0.000170
788 0.000172
789 0.000170
790 0.000166
791 0.000166
792 0.000163
793 0.000163
794 0.000162
795 0.000163
796 0.000165
797 0.000165
798 0.000161
799 0.000156
800 0.000150
801 0.000146
802 0.000141
803 0.000137
804 0.000135
805 0.000132
806 0.000129
807 0.000127
808 0.000127
809 0.000121
