# i correlation
1 0.001675
2 0.001618
3 0.001566
4 0.001525
5 0.001487
6 0.001456
7 0.001429
8 0.001398
9 0.001366
10 0.001334
11 0.001309
12 0.001287
13 0.001266
14 0.001241
15 0.001220
16 0.001198
17 0.001174
18 0.001151
19 0.001136
20 0.001117
21 0.001103
22 0.001090
23 0.001074
24 0.001058
25 0.001050
26 0.001037
27 0.001011
28 0.000984
29 0.000958
30 0.000938
31 0.000924
32 0.000907
33 0.000897
34 0.000890
35 0.000879
36 0.000865
37 0.000859
38 0.000855
39 0.000855
40 0.000846
41 0.000836
42 0.000823
43 0.000818
44 0.000815
45 0.000816
46 0.000821
47 0.000832
48 0.000846
49 0.000848
50 0.000853
51 0.000854
52 0.000855
53 0.000859
54 0.000856
55 0.000858
56 0.000858
57 0.000856
58 0.000854
59 0.000858
60 0.000868
61 0.000867
62 0.000859
63 0.000854
64 0.000848
65 0.000848
66 0.000845
67 0.000838
68 0.000831
69 0.000826
70 0.000823
71 0.000820
72 0.000816
73 0.000815
74 0.000816
75 0.000807
76 0.000801
77 0.000794
78 0.000793
79 0.000789
80 0.000787
81 0.000791
82 0.000803
83 0.000804
84 0.000801
85 0.000798
86 0.000794
87 0.000793
88 0.000790
89 0.000788
90 0.000785
91 0.000781
92 0.000772
93 0.000762
94 0.000757
95 0.000756
96 0.000756
97 0.000759
98 0.000760
99 0.000757
100 0.000758
101 0.000753
102 0.000745
103 0.000745
104 0.000751
105 0.000755
106 0.000759
107 0.000763
108 0.000765
109 0.000760
110 0.000757
111 0.000756
112 0.000752
113 0.000757
114 0.000753
115 0.000747
116 0.000738
117 0.000730
118 0.000719
119 0.000714
120 0.000711
121 0.000702
122 0.000699
123 0.000690
124 0.000675
125 0.000661
126 0.000651
127 0.000639
128 0.000627
129 0.000617
130 0.000612
131 0.000603
132 0.000592
133 0.000579
134 0.000573
135 0.000559
136 0.000548
137 0.000544
138 0.000539
139 0.000532
140 0.000528
141 0.000524
142 0.000528
143 0.000529
144 0.000531
145 0.000532
146 0.000521
147 0.000520
148 0.000523
149 0.000523
150 0.000528
151 0.000533
152 0.000542
153 0.000550
154 0.000556
155 0.000565
156 0.000577
157 0.000580
158 0.000589
159 0.000594
160 0.000600
161 0.000603
162 0.000604
163 0.000611
164 0.000613
165 0.000617
166 0.000620
167 0.000624
168 0.000625
169 0.000624
170 0.000622
171 0.000615
172 0.000608
173 0.000608
174 0.000606
175 0.000600
176 0.000591
177 0.000580
178 0.000570
179 0.000560
180 0.000549
181 0.000539
182 0.000534
183 0.000529
184 0.000523
185 0.000517
186 0.000516
187 0.000509
188 0.000506
189 0.000505
190 0.000507
191 0.000503
192 0.000496
193 0.000494
194 0.000485
195 0.000477
196 0.000469
197 0.000466
198 0.000464
199 0.000461
200 0.000462
201 0.000463
202 0.000466
203 0.000472
204 0.000481
205 0.000489
206 0.000493
207 0.000492
208 0.000495
209 0.000501
210 0.000511
211 0.000520
212 0.000528
213 0.000540
214 0.000546
215 0.000541
216 0.000540
217 0.000532
218 0.000534
219 0.000530
220 0.000523
221 0.000518
222 0.000509
223 0.000503
224 0.000496
225 0.000496
226 0.000500
227 0.000499
228 0.000489
229 0.000486
230 0.000476
231 0.000463
232 0.000448
233 0.000435
234 0.000421
235 0.000411
236 0.000399
237 0.000391
238 0.000389
239 0.000389
240 0.000387
241 0.000378
242 0.000364
243 0.000350
244 0.000334
245 0.000324
246 0.000314
247 0.000306
248 0.000301
249 0.000296
250 0.000293
251 0.000293
252 0.000292
253 0.000289
254 0.000283
255 0.000275
256 0.000272
257 0.000267
258 0.000268
259 0.000268
260 0.000272
261 0.000272
262 0.000271
263 0.000272
264 0.000280
265 0.000293
266 0.000304
267 0.000313
268 0.000321
269 0.000330
270 0.000337
271 0.000349
272 0.000356
273 0.000367
274 0.000389
275 0.000405
276 0.000419
277 0.000427
278 0.000439
279 0.000452
280 0.000459
281 0.000464
282 0.000465
283 0.000464
284 0.000458
285 0.000460
286 0.000468
287 0.000477
288 0.000484
289 0.000489
290 0.000499
291 0.000496
292 0.000494
293 0.000491
294 0.000487
295 0.000480
296 0.000477
297 0.000473
298 0.000466
299 0.000457
300 0.000458
301 0.000452
302 0.000436
303 0.000424
304 0.000413
305 0.000398
306 0.000383
307 0.000371
308 0.000365
309 0.000357
310 0.000352
311 0.000351
312 0.000353
313 0.000358
314 0.000351
315 0.000345
316 0.000352
317 0.000357
318 0.000361
319 0.000363
320 0.000370
321 0.000369
322 0.000371
323 0.000370
324 0.000374
325 0.000378
326 0.000385
327 0.000395
328 0.000401
329 0.000410
330 0.000412
331 0.000413
332 0.000411
333 0.000411
334 0.000413
335 0.000417
336 0.000420
337 0.000416
338 0.000417
339 0.000415
340 0.000411
341 0.000403
342 0.000402
343 0.000401
344 0.000400
345 0.000396
346 0.000398
347 0.000394
348 0.000395
349 0.000389
350 0.000385
351 0.000385
352 0.000385
353 0.000393
354 0.000391
355 0.000390
356 0.000391
357 0.000389
358 0.000389
359 0.000386
360 0.000386
361 0.000387
362 0.000382
363 0.000378
364 0.000375
365 0.000370
366 0.000370
367 0.000365
368 0.000362
369 0.000358
370 0.000353
371 0.000353
372 0.000358
373 0.000362
374 0.000362
375 0.000362
376 0.000359
377 0.000363
378 0.000364
379 0.000372
380 0.000380
381 0.000391
382 0.000401
383 0.000408
384 0.000408
385 0.000407
386 0.000409
387 0.000409
388 0.000406
389 0.000395
390 0.000383
391 0.000369
392 0.000357
393 0.000345
394 0.000340
395 0.000335
396 0.000331
397 0.000323
398 0.000318
399 0.000320
400 0.000319
401 0.000318
402 0.000315
403 0.000313
404 0.000310
405 0.000302
406 0.000295
407 0.000290
408 0.000289
409 0.000286
410 0.000279
411 0.000278
412 0.000272
413 0.000270
414 0.000264
415 0.000252
416 0.000246
417 0.000239
418 0.000229
419 0.000220
420 0.000216
421 0.000211
422 0.000202
423 0.000195
424 0.000191
425 0.000187
426 0.000187
427 0.000188
428 0.000191
429 0.000189
430 0.000195
431 0.000198
432 0.000203
433 0.000211
434 0.000220
435 0.000232
436 0.000239
437 0.000249
438 0.000256
439 0.000264
440 0.000271
441 0.000279
442 0.000292
443 0.000302
444 0.000306
445 0.000309
446 0.000312
447 0.000314
448 0.000318
449 0.000322
450 0.000325
451 0.000332
452 0.000338
453 0.000349
454 0.000353
455 0.000355
456 0.000354
457 0.000350
458 0.000345
459 0.000342
460 0.000341
461 0.000340
462 0.000337
463 0.000329
464 0.000332
465 0.000328
466 0.000329
467 0.000324
468 0.000324
469 0.000320
470 0.000315
471 0.000310
472 0.000306
473 0.000302
474 0.000296
475 0.000286
476 0.000286
477 0.000284
478 0.000287
479 0.000288
480 0.000289
481 0.000292
482 0.000290
483 0.000290
484 0.000287
485 0.000290
486 0.000296
487 0.000304
488 0.000305
489 0.000304
490 0.000312
491 0.000323
492 0.000334
493 0.000345
494 0.000358
495 0.000363
496 0.000365
497 0.000363
498 0.000365
499 0.000369
500 0.000374
501 0.000377
502 0.000383
503 0.000394
504 0.000399
505 0.000400
506 0.000405
507 0.000406
508 0.000407
509 0.000409
510 0.000411
511 0.000416
512 0.000418
513 0.000417
514 0.000414
515 0.000413
516 0.000413
517 0.000411
518 0.000404
519 0.000399
520 0.000388
521 0.000376
522 0.000366
523 0.000351
524 0.000341
525 0.000335
526 0.000331
527 0.000326
528 0.000320
529 0.000316
530 0.000316
531 0.000317
532 0.000311
533 0.000308
534 0.000300
535 0.000292
536 0.000284
537 0.000279
538 0.000275
539 0.000274
540 0.000270
541 0.000269
542 0.000267
543 0.000263
544 0.000254
545 0.000243
546 0.000234
547 0.000225
548 0.000216
549 0.000209
550 0.000209
551 0.000212
552 0.000214
553 0.000211
554 0.000209
555 0.000210
556 0.000213
557 0.000212
558 0.000212
559 0.000209
560 0.000204
561 0.000204
562 0.000205
563 0.000203
564 0.000208
565 0.000213
566 0.000217
567 0.000219
568 0.000219
569 0.000222
570 0.000222
571 0.000223
572 0.000229
573 0.000233
574 0.000235
575 0.000240
576 0.000244
577 0.000252
578 0.000258
579 0.000263
580 0.000265
581 0.000265
582 0.000266
583 0.000262
584 0.000259
585 0.000255
586 0.000256
587 0.000258
588 0.000255
589 0.000254
590 0.000256
591 0.000260
592 0.000260
593 0.000258
594 0.000255
595 0.000252
596 0.000249
597 0.000249
598 0.000257
599 0.000267
600 0.000276
601 0.000283
602 0.000282
603 0.000283
604 0.000286
605 0.000286
606 0.000289
607 0.000292
608 0.000296
609 0.000295
610 0.000294
611 0.000292
612 0.000294
613 0.000298
614 0.000303
615 0.000303
616 0.000306
617 0.000307
618 0.000303
619 0.000299
620 0.000298
621 0.000299
622 0.000301
623 0.000298
624 0.000300
625 0.000301
626 0.000304
627 0.000306
628 0.000305
629 0.000308
630 0.000306
631 0.000306
632 0.000305
633 0.000303
634 0.000300
635 0.000299
636 0.000295
637 0.000293
638 0.000291
639 0.000291
640 0.000288
641 0.000286
642 0.000282
643 0.000280
644 0.000274
645 0.000266
646 0.000267
647 0.000269
648 0.000272
649 0.000273
650 0.000273
651 0.000274
652 0.000277
653 0.000283
654 0.000287
655 0.000292
656 0.000299
657 0.000300
658 0.000301
659 0.000304
660 0.000308
661 0.000313
662 0.000318
663 0.000323
664 0.000326
665 0.000326
666 0.000327
667 0.000325
668 0.000320
669 0.000321
670 0.000321
671 0.000319
672 0.000319
673 0.000320
674 0.000323
675 0.000325
676 0.000325
677 0.000322
678 0.000320
679 0.000318
680 0.000319
681 0.000315
682 0.000318
683 0.000316
684 0.000312
685 0.000304
686 0.000299
687 0.000297
688 0.000296
689 0.000296
690 0.000293
691 0.000291
692 0.000289
693 0.000283
694 0.000278
695 0.000277
696 0.000275
697 0.000273
698 0.000268
699 0.000266
700 0.000265
701 0.000268
702 0.000265
703 0.000263
704 0.000262
705 0.000260
706 0.000260
707 0.000258
708 0.000256
709 0.000258
710 0.000254
711 0.000253
712 0.000251
713 0.000254
714 0.000254
715 0.000251
716 0.000253
717 0.000258
718 0.000261
719 0.000265
720 0.000271
721 0.000278
722 0.000283
723 0.000285
724 0.000285
725 0.000284
726 0.000281
727 0.000278
728 0.000278
729 0.000279
730 0.000282
731 0.000284
732 0.000284
733 0.000282
734 0.000280
735 0.000280
736 0.000281
737 0.000278
738 0.000276
739 0.000271
740 0.000268
741 0.000266
742 0.000266
743 0.000268
744 0.000269
745 0.000266
746 0.000262
747 0.000255
748 0.000249
749 0.000242
750 0.000234
751 0.000224
752 0.000217
753 0.000208
754 0.000199
755 0.000192
756 0.000188
757 0.000182
758 0.000174
759 0.000161
760 0.000153
761 0.000147
762 0.000142
763 0.000135
764 0.000128
765 0.000123
766 0.000119
767 0.000116
768 0.000115
769 0.000117
770 0.000118
771 0.000120
772 0.000121
773 0.000120
774 0.000117
775 0.000113
776 0.000106
777 0.000101
778 0.000093
779 0.000084
780 0.000080
781 0.000080
782 0.000081
783 0.000080
784 0.000079
785 0.000076
786 0.000074
787 0.000073
788 0.000072
789 0.000072
790 0.000074
791 0.000078
792 0.000081
793 0.000084
794 0.000087
795 0.000090
796 0.000094
797 0.000096
798 0.000096
799 0.000095
800 0.000094
801 0.000091
802 0.000090
803 0.000090
804 0.000091
805 0.000089
806 0.000089
807 0.000088
808 0.000087
809 0.000086
