# i correlation
1 0.001854
2 0.001780
3 0.001719
4 0.001670
5 0.001627
6 0.001598
7 0.001573
8 0.001546
9 0.001520
10 0.001502
11 0.001482
12 0.001462
13 0.001449
14 0.001441
15 0.001423
16 0.001412
17 0.001398
18 0.001383
19 0.001371
20 0.001356
21 0.001340
22 0.001335
23 0.001326
24 0.001324
25 0.001315
26 0.001308
27 0.001298
28 0.001291
29 0.001279
30 0.001268
31 0.001252
32 0.001239
33 0.001226
34 0.001218
35 0.001212
36 0.001205
37 0.001188
38 0.001169
39 0.001152
40 0.001144
41 0.001136
42 0.001128
43 0.001124
44 0.001130
45 0.001130
46 0.001128
47 0.001127
48 0.001131
49 0.001134
50 0.001139
51 0.001144
52 0.001152
53 0.001154
54 0.001162
55 0.001167
56 0.001161
57 0.001153
58 0.001150
59 0.001151
60 0.001147
61 0.001146
62 0.001144
63 0.001139
64 0.001139
65 0.001140
66 0.001142
67 0.001147
68 0.001152
69 0.001157
70 0.001167
71 0.001172
72 0.001176
73 0.001177
74 0.001173
75 0.001170
76 0.001161
77 0.001154
78 0.001150
79 0.001152
80 0.001154
81 0.001157
82 0.001162
83 0.001165
84 0.001165
85 0.001166
86 0.001169
87 0.001164
88 0.001159
89 0.001155
90 0.001153
91 0.001148
92 0.001136
93 0.001124
94 0.001113
95 0.001103
96 0.001085
97 0.001069
98 0.001061
99 0.001052
100 0.001042
101 0.001030
102 0.001023
103 0.001016
104 0.001007
105 0.001001
106 0.000990
107 0.000975
108 0.000965
109 0.000954
110 0.000946
111 0.000945
112 0.000941
113 0.000940
114 0.000947
115 0.000951
116 0.000946
117 0.000942
118 0.000947
119 0.000954
120 0.000953
121 0.000952
122 0.000952
123 0.000943
124 0.000936
125 0.000931
126 0.000929
127 0.000926
128 0.000925
129 0.000925
130 0.000925
131 0.000924
132 0.000919
133 0.000913
134 0.000911
135 0.000905
136 0.000902
137 0.000905
138 0.000912
139 0.000917
140 0.000920
141 0.000919
142 0.000913
143 0.000910
144 0.000899
145 0.000886
146 0.000871
147 0.000868
148 0.000872
149 0.000880
150 0.000894
151 0.000900
152 0.000905
153 0.000908
154 0.000908
155 0.000907
156 0.000906
157 0.000911
158 0.000915
159 0.000917
160 0.000911
161 0.000907
162 0.000903
163 0.000904
164 0.000910
165 0.000907
166 0.000906
167 0.000904
168 0.000896
169 0.000887
170 0.000881
171 0.000869
172 0.000857
173 0.000851
174 0.000849
175 0.000849
176 0.000844
177 0.000837
178 0.000829
179 0.000823
180 0.000822
181 0.000824
182 0.000816
183 0.000814
184 0.000814
185 0.000815
186 0.000815
187 0.000815
188 0.000816
189 0.000816
190 0.000812
191 0.000809
192 0.000813
193 0.000817
194 0.000819
195 0.000812
196 0.000793
197 0.000774
198 0.000762
199 0.000754
200 0.000754
201 0.000759
202 0.000765
203 0.000772
204 0.000782
205 0.000785
206 0.000784
207 0.000784
208 0.000784
209 0.000787
210 0.000791
211 0.000792
212 0.000793
213 0.000792
214 0.000795
215 0.000791
216 0.000792
217 0.000797
218 0.000800
219 0.000802
220 0.000807
221 0.000802
222 0.000795
223 0.000790
224 0.000789
225 0.000791
226 0.000786
227 0.000776
228 0.000765
229 0.000763
230 0.000758
231 0.000747
232 0.000730
233 0.000726
234 0.000730
235 0.000728
236 0.000729
237 0.000731
238 0.000737
239 0.000735
240 0.000737
241 0.000741
242 0.000743
243 0.000739
244 0.000738
245 0.000735
246 0.000732
247 0.000732
248 0.000732
249 0.000731
250 0.000725
251 0.000712
252 0.000702
253 0.000699
254 0.000696
255 0.000692
256 0.000688
257 0.000690
258 0.000688
259 0.000686
260 0.000687
261 0.000687
262 0.000683
263 0.000681
264 0.000678
265 0.000676
266 0.000673
267 0.000668
268 0.000660
269 0.000659
270 0.000658
271 0.000663
272 0.000668
273 0.000667
274 0.000667
275 0.000660
276 0.000654
277 0.000652
278 0.000652
279 0.000657
280 0.000654
281 0.000654
282 0.000656
283 0.000658
284 0.000656
285 0.000654
286 0.000656
287 0.000653
288 0.000655
289 0.000662
290 0.000663
291 0.000656
292 0.000648
293 0.000644
294 0.000642
295 0.000645
296 0.000644
297 0.000640
298 0.000636
299 0.000634
300 0.000635
301 0.000636
302 0.000635
303 0.000630
304 0.000621
305 0.000616
306 0.000613
307 0.000612
308 0.000619
309 0.000625
310 0.000623
311 0.000621
312 0.000621
313 0.000625
314 0.000626
315 0.000628
316 0.000628
317 0.000628
318 0.000631
319 0.000633
320 0.000634
321 0.000631
322 0.000630
323 0.000628
324 0.000632
325 0.000634
326 0.000629
327 0.000629
328 0.000631
329 0.000628
330 0.000623
331 0.000622
332 0.000625
333 0.000624
334 0.000626
335 0.000626
336 0.000625
337 0.000619
338 0.000616
339 0.000610
340 0.000599
341 0.000593
342 0.000588
343 0.000588
344 0.000593
345 0.000593
346 0.000584
347 0.000572
348 0.000568
349 0.000565
350 0.000558
351 0.000551
352 0.000551
353 0.000553
354 0.000551
355 0.000546
356 0.000545
357 0.000546
358 0.000546
359 0.000546
360 0.000543
361 0.000536
362 0.000532
363 0.000529
364 0.000526
365 0.000519
366 0.000510
367 0.000504
368 0.000509
369 0.000511
370 0.000506
371 0.000502
372 0.000503
373 0.000506
374 0.000506
375 0.000507
376 0.000507
377 0.000510
378 0.000521
379 0.000537
380 0.000542
381 0.000545
382 0.000546
383 0.000542
384 0.000537
385 0.000533
386 0.000527
387 0.000525
388 0.000523
389 0.000521
390 0.000517
391 0.000514
392 0.000516
393 0.000520
394 0.000518
395 0.000514
396 0.000510
397 0.000507
398 0.000501
399 0.000497
400 0.000498
401 0.000502
402 0.000498
403 0.000497
404 0.000502
405 0.000506
406 0.000507
407 0.000510
408 0.000520
409 0.000528
410 0.000536
411 0.000542
412 0.000544
413 0.000547
414 0.000553
415 0.000562
416 0.000564
417 0.000565
418 0.000566
419 0.000567
420 0.000567
421 0.000567
422 0.000566
423 0.000566
424 0.000565
425 0.000561
426 0.000555
427 0.000551
428 0.000545
429 0.000542
430 0.000545
431 0.000545
432 0.000547
433 0.000556
434 0.000561
435 0.000558
436 0.000556
437 0.000553
438 0.000551
439 0.000553
440 0.000560
441 0.000561
442 0.000557
443 0.000555
444 0.000552
445 0.000549
446 0.000546
447 0.000550
448 0.000550
449 0.000553
450 0.000558
451 0.000560
452 0.000564
453 0.000564
454 0.000565
455 0.000568
456 0.000565
457 0.000555
458 0.000549
459 0.000547
460 0.000543
461 0.000535
462 0.000527
463 0.000523
464 0.000522
465 0.000520
466 0.000519
467 0.000524
468 0.000524
469 0.000523
470 0.000519
471 0.000517
472 0.000515
473 0.000510
474 0.000508
475 0.000507
476 0.000504
477 0.000505
478 0.000506
479 0.000504
480 0.000496
481 0.000488
482 0.000480
483 0.000478
484 0.000481
485 0.000487
486 0.000492
487 0.000494
488 0.000497
489 0.000496
490 0.000496
491 0.000504
492 0.000509
493 0.000516
494 0.000522
495 0.000528
496 0.000528
497 0.000523
498 0.000519
499 0.000518
500 0.000514
501 0.000515
502 0.000517
503 0.000518
504 0.000516
505 0.000517
506 0.000521
507 0.000529
508 0.000535
509 0.000537
510 0.000531
511 0.000527
512 0.000525
513 0.000522
514 0.000518
515 0.000517
516 0.000513
517 0.000503
518 0.000493
519 0.000494
520 0.000498
521 0.000505
522 0.000512
523 0.000524
524 0.000529
525 0.000533
526 0.000536
527 0.000536
528 0.000533
529 0.000533
530 0.000534
531 0.000535
532 0.000537
533 0.000539
534 0.000539
535 0.000536
536 0.000534
537 0.000530
538 0.000531
539 0.000536
540 0.000538
541 0.000541
542 0.000545
543 0.000548
544 0.000548
545 0.000549
546 0.000546
547 0.000546
548 0.000547
549 0.000552
550 0.000554
551 0.000554
552 0.000553
553 0.000550
554 0.000544
555 0.000539
556 0.000535
557 0.000528
558 0.000528
559 0.000522
560 0.000516
561 0.000509
562 0.000500
563 0.000489
564 0.000471
565 0.000457
566 0.000448
567 0.000443
568 0.000436
569 0.000432
570 0.000426
571 0.000419
572 0.000416
573 0.000420
574 0.000430
575 0.000435
576 0.000435
577 0.000438
578 0.000437
579 0.000435
580 0.000432
581 0.000428
582 0.000428
583 0.000431
584 0.000433
585 0.000432
586 0.000428
587 0.000421
588 0.000414
589 0.000408
590 0.000399
591 0.000391
592 0.000377
593 0.000370
594 0.000361
595 0.000354
596 0.000355
597 0.000363
598 0.000372
599 0.000382
600 0.000384
601 0.000384
602 0.000387
603 0.000390
604 0.000394
605 0.000399
606 0.000406
607 0.000417
608 0.000424
609 0.000432
610 0.000443
611 0.000450
612 0.000451
613 0.000452
614 0.000452
615 0.000455
616 0.000456
617 0.000457
618 0.000454
619 0.000451
620 0.000449
621 0.000445
622 0.000446
623 0.000444
624 0.000443
625 0.000445
626 0.000451
627 0.000457
628 0.000466
629 0.000473
630 0.000475
631 0.000475
632 0.000471
633 0.000473
634 0.000473
635 0.000475
636 0.000472
637 0.000465
638 0.000457
639 0.000449
640 0.000443
641 0.000436
642 0.000432
643 0.000430
644 0.000427
645 0.000423
646 0.000421
647 0.000418
648 0.000412
649 0.000401
650 0.000391
651 0.000383
652 0.000378
653 0.000374
654 0.000366
655 0.000357
656 0.000347
657 0.000340
658 0.000333
659 0.000331
660 0.000328
661 0.000328
662 0.000325
663 0.000324
664 0.000321
665 0.000320
666 0.000321
667 0.000320
668 0.000318
669 0.000318
670 0.000317
671 0.000319
672 0.000320
673 0.000319
674 0.000318
675 0.000315
676 0.000310
677 0.000308
678 0.000309
679 0.000310
680 0.000313
681 0.000313
682 0.000311
683 0.000310
684 0.000306
685 0.000299
686 0.000292
687 0.000294
688 0.000298
689 0.000304
690 0.000311
691 0.000316
692 0.000320
693 0.000325
694 0.000330
695 0.000335
696 0.000339
697 0.000347
698 0.000355
699 0.000361
700 0.000369
701 0.000378
702 0.000388
703 0.000395
704 0.000397
705 0.000399
706 0.000398
707 0.000396
708 0.000393
709 0.000391
710 0.000391
711 0.000391
712 0.000392
713 0.000393
714 0.000390
715 0.000391
716 0.000391
717 0.000387
718 0.000378
719 0.000371
720 0.000359
721 0.000350
722 0.000343
723 0.000336
724 0.000330
725 0.000325
726 0.000324
727 0.000322
728 0.000321
729 0.000315
730 0.000305
731 0.000291
732 0.000280
733 0.000273
734 0.000266
735 0.000260
736 0.000258
737 0.000257
738 0.000253
739 0.000249
740 0.000243
741 0.000241
742 0.000241
743 0.000237
744 0.000235
745 0.000228
746 0.000221
747 0.000214
748 0.000207
749 0.000205
750 0.000210
751 0.000212
752 0.000214
753 0.000212
754 0.000210
755 0.000205
756 0.000201
757 0.000199
758 0.000197
759 0.000192
760 0.000192
761 0.000194
762 0.000198
763 0.000201
764 0.000207
765 0.000210
766 0.000210
767 0.000208
768 0.000211
769 0.000217
770 0.000223
771 0.000223
772 0.000225
773 0.000221
774 0.000220
775 0.000214
776 0.000207
777 0.000200
778 0.000196
779 0.000191
780 0.000191
781 0.000185
782 0.000180
783 0.000179
784 0.000178
785 0.000177
786 0.000177
787 0.000177
788 0.000177
789 0.000173
790 0.000171
791 0.000171
792 0.000174
793 0.000176
794 0.000178
795 0.000175
796 0.000172
797 0.000168
798 0.000164
799 0.000160
800 0.000157
801 0.000152
802 0.000148
803 0.000142
804 0.000135
805 0.000122
806 0.000109
807 0.000099
808 0.000091
809 0.000086
