# i correlation
1 0.001602
2 0.001538
3 0.001482
4 0.001429
5 0.001378
6 0.001339
7 0.001301
8 0.001267
9 0.001235
10 0.001203
11 0.001177
12 0.001155
13 0.001134
14 0.001119
15 0.001097
16 0.001083
17 0.001076
18 0.001069
19 0.001061
20 0.001051
21 0.001032
22 0.001018
23 0.001004
24 0.000994
25 0.000988
26 0.000984
27 0.000978
28 0.000979
29 0.000983
30 0.000975
31 0.000972
32 0.000968
33 0.000956
34 0.000947
35 0.000941
36 0.000931
37 0.000919
38 0.000906
39 0.000898
40 0.000893
41 0.000887
42 0.000881
43 0.000886
44 0.000895
45 0.000908
46 0.000918
47 0.000927
48 0.000944
49 0.000954
50 0.000960
51 0.000963
52 0.000968
53 0.000976
54 0.000984
55 0.000979
56 0.000977
57 0.000976
58 0.000964
59 0.000952
60 0.000942
61 0.000931
62 0.000925
63 0.000918
64 0.000913
65 0.000909
66 0.000901
67 0.000893
68 0.000888
69 0.000882
70 0.000876
71 0.000868
72 0.000864
73 0.000862
74 0.000860
75 0.000860
76 0.000868
77 0.000870
78 0.000864
79 0.000858
80 0.000856
81 0.000850
82 0.000839
83 0.000830
84 0.000818
85 0.000808
86 0.000793
87 0.000787
88 0.000785
89 0.000792
90 0.000794
91 0.000794
92 0.000799
93 0.000801
94 0.000792
95 0.000780
96 0.000767
97 0.000760
98 0.000756
99 0.000745
100 0.000732
101 0.000719
102 0.000713
103 0.000707
104 0.000699
105 0.000702
106 0.000702
107 0.000706
108 0.000714
109 0.000719
110 0.000717
111 0.000717
112 0.000719
113 0.000719
114 0.000710
115 0.000696
116 0.000690
117 0.000676
118 0.000669
119 0.000670
120 0.000672
121 0.000673
122 0.000679
123 0.000684
124 0.000690
125 0.000696
126 0.000700
127 0.000699
128 0.000694
129 0.000691
130 0.000693
131 0.000684
132 0.000678
133 0.000667
134 0.000656
135 0.000643
136 0.000633
137 0.000634
138 0.000634
139 0.000635
140 0.000638
141 0.000648
142 0.000657
143 0.000662
144 0.000671
145 0.000680
146 0.000678
147 0.000672
148 0.000673
149 0.000677
150 0.000676
151 0.000669
152 0.000665
153 0.000662
154 0.000665
155 0.000667
156 0.000671
157 0.000672
158 0.000675
159 0.000673
160 0.000675
161 0.000677
162 0.000681
163 0.000675
164 0.000668
165 0.000665
166 0.000662
167 0.000658
168 0.000663
169 0.000668
170 0.000673
171 0.000670
172 0.000671
173 0.000673
174 0.000682
175 0.000682
176 0.000683
177 0.000681
178 0.000680
179 0.000678
180 0.000678
181 0.000675
182 0.000669
183 0.000662
184 0.000658
185 0.000655
186 0.000650
187 0.000645
188 0.000643
189 0.000646
190 0.000647
191 0.000643
192 0.000636
193 0.000627
194 0.000621
195 0.000611
196 0.000610
197 0.000608
198 0.000609
199 0.000614
200 0.000611
201 0.000607
202 0.000606
203 0.000601
204 0.000598
205 0.000597
206 0.000595
207 0.000590
208 0.000585
209 0.000573
210 0.000565
211 0.000559
212 0.000556
213 0.000552
214 0.000550
215 0.000542
216 0.000538
217 0.000540
218 0.000549
219 0.000555
220 0.000551
221 0.000547
222 0.000547
223 0.000547
224 0.000547
225 0.000551
226 0.000552
227 0.000551
228 0.000547
229 0.000538
230 0.000544
231 0.000547
232 0.000547
233 0.000552
234 0.000564
235 0.000567
236 0.000574
237 0.000581
238 0.000584
239 0.000584
240 0.000576
241 0.000568
242 0.000564
243 0.000559
244 0.000553
245 0.000549
246 0.000548
247 0.000544
248 0.000548
249 0.000553
250 0.000558
251 0.000561
252 0.000565
253 0.000574
254 0.000581
255 0.000587
256 0.000589
257 0.000595
258 0.000598
259 0.000601
260 0.000600
261 0.000599
262 0.000600
263 0.000598
264 0.000593
265 0.000596
266 0.000604
267 0.000611
268 0.000622
269 0.000632
270 0.000635
271 0.000640
272 0.000641
273 0.000638
274 0.000636
275 0.000625
276 0.000608
277 0.000600
278 0.000586
279 0.000574
280 0.000562
281 0.000555
282 0.000548
283 0.000543
284 0.000535
285 0.000524
286 0.000516
287 0.000516
288 0.000519
289 0.000523
290 0.000525
291 0.000529
292 0.000524
293 0.000518
294 0.000517
295 0.000516
296 0.000511
297 0.000508
298 0.000507
299 0.000500
300 0.000497
301 0.000494
302 0.000491
303 0.000494
304 0.000494
305 0.000493
306 0.000493
307 0.000495
308 0.000488
309 0.000485
310 0.000488
311 0.000495
312 0.000501
313 0.000506
314 0.000511
315 0.000525
316 0.000538
317 0.000546
318 0.000559
319 0.000567
320 0.000578
321 0.000585
322 0.000591
323 0.000602
324 0.000616
325 0.000625
326 0.000628
327 0.000630
328 0.000628
329 0.000628
330 0.000629
331 0.000630
332 0.000628
333 0.000619
334 0.000606
335 0.000594
336 0.000582
337 0.000571
338 0.000566
339 0.000570
340 0.000567
341 0.000569
342 0.000571
343 0.000571
344 0.000567
345 0.000562
346 0.000562
347 0.000569
348 0.000567
349 0.000566
350 0.000568
351 0.000566
352 0.000563
353 0.000555
354 0.000542
355 0.000536
356 0.000529
357 0.000523
358 0.000512
359 0.000509
360 0.000499
361 0.000491
362 0.000486
363 0.000477
364 0.000474
365 0.000468
366 0.000465
367 0.000460
368 0.000460
369 0.000458
370 0.000457
371 0.000462
372 0.000466
373 0.000465
374 0.000464
375 0.000470
376 0.000480
377 0.000483
378 0.000489
379 0.000495
380 0.000500
381 0.000503
382 0.000511
383 0.000508
384 0.000505
385 0.000503
386 0.000501
387 0.000502
388 0.000504
389 0.000502
390 0.000505
391 0.000498
392 0.000497
393 0.000495
394 0.000490
395 0.000489
396 0.000494
397 0.000501
398 0.000509
399 0.000514
400 0.000521
401 0.000526
402 0.000529
403 0.000537
404 0.000548
405 0.000551
406 0.000554
407 0.000563
408 0.000566
409 0.000563
410 0.000564
411 0.000562
412 0.000562
413 0.000553
414 0.000545
415 0.000536
416 0.000528
417 0.000523
418 0.000517
419 0.000507
420 0.000496
421 0.000488
422 0.000481
423 0.000475
424 0.000468
425 0.000451
426 0.000441
427 0.000433
428 0.000425
429 0.000420
430 0.000426
431 0.000427
432 0.000428
433 0.000432
434 0.000431
435 0.000435
436 0.000441
437 0.000444
438 0.000445
439 0.000443
440 0.000438
441 0.000435
442 0.000431
443 0.000430
444 0.000428
445 0.000426
446 0.000421
447 0.000416
448 0.000412
449 0.000412
450 0.000412
451 0.000409
452 0.000409
453 0.000406
454 0.000403
455 0.000405
456 0.000407
457 0.000410
458 0.000407
459 0.000403
460 0.000398
461 0.000395
462 0.000387
463 0.000382
464 0.000378
465 0.000380
466 0.000378
467 0.000380
468 0.000376
469 0.000374
470 0.000366
471 0.000364
472 0.000356
473 0.000352
474 0.000349
475 0.000350
476 0.000345
477 0.000337
478 0.000325
479 0.000320
480 0.000314
481 0.000308
482 0.000297
483 0.000295
484 0.000296
485 0.000301
486 0.000301
487 0.000311
488 0.000318
489 0.000322
490 0.000320
491 0.000320
492 0.000321
493 0.000315
494 0.000308
495 0.000304
496 0.000308
497 0.000311
498 0.000312
499 0.000311
500 0.000312
501 0.000317
502 0.000320
503 0.000322
504 0.000322
505 0.000324
506 0.000326
507 0.000324
508 0.000323
509 0.000331
510 0.000336
511 0.000340
512 0.000339
513 0.000336
514 0.000331
515 0.000331
516 0.000327
517 0.000321
518 0.000307
519 0.000298
520 0.000293
521 0.000288
522 0.000279
523 0.000273
524 0.000268
525 0.000263
526 0.000258
527 0.000254
528 0.000254
529 0.000250
530 0.000248
531 0.000247
532 0.000246
533 0.000243
534 0.000238
535 0.000234
536 0.000230
537 0.000229
538 0.000225
539 0.000216
540 0.000206
541 0.000198
542 0.000195
543 0.000188
544 0.000184
545 0.000182
546 0.000182
547 0.000174
548 0.000169
549 0.000167
550 0.000165
551 0.000162
552 0.000163
553 0.000162
554 0.000161
555 0.000163
556 0.000169
557 0.000175
558 0.000177
559 0.000184
560 0.000194
561 0.000200
562 0.000203
563 0.000207
564 0.000209
565 0.000213
566 0.000225
567 0.000232
568 0.000235
569 0.000237
570 0.000230
571 0.000219
572 0.000208
573 0.000204
574 0.000196
575 0.000188
576 0.000181
577 0.000181
578 0.000181
579 0.000181
580 0.000181
581 0.000185
582 0.000184
583 0.000175
584 0.000172
585 0.000171
586 0.000176
587 0.000179
588 0.000177
589 0.000181
590 0.000181
591 0.000182
592 0.000186
593 0.000193
594 0.000196
595 0.000201
596 0.000206
597 0.000203
598 0.000203
599 0.000203
600 0.000199
601 0.000194
602 0.000190
603 0.000185
604 0.000180
605 0.000181
606 0.000181
607 0.000182
608 0.000181
609 0.000182
610 0.000182
611 0.000182
612 0.000182
613 0.000183
614 0.000185
615 0.000186
616 0.000186
617 0.000182
618 0.000179
619 0.000175
620 0.000171
621 0.000171
622 0.000172
623 0.000169
624 0.000167
625 0.000163
626 0.000157
627 0.000151
628 0.000146
629 0.000145
630 0.000143
631 0.000140
632 0.000132
633 0.000128
634 0.000126
635 0.000126
636 0.000127
637 0.000128
638 0.000126
639 0.000126
640 0.000125
641 0.000128
642 0.000135
643 0.000142
644 0.000143
645 0.000149
646 0.000152
647 0.000155
648 0.000157
649 0.000157
650 0.000157
651 0.000155
652 0.000143
653 0.000136
654 0.000127
655 0.000121
656 0.000120
657 0.000116
658 0.000116
659 0.000119
660 0.000119
661 0.000121
662 0.000126
663 0.000127
664 0.000128
665 0.000130
666 0.000133
667 0.000136
668 0.000141
669 0.000148
670 0.000151
671 0.000155
672 0.000158
673 0.000163
674 0.000167
675 0.000174
676 0.000178
677 0.000181
678 0.000183
679 0.000187
680 0.000187
681 0.000190
682 0.000191
683 0.000188
684 0.000183
685 0.000179
686 0.000177
687 0.000178
688 0.000176
689 0.000176
690 0.000175
691 0.000174
692 0.000173
693 0.000169
694 0.000166
695 0.000161
696 0.000153
697 0.000144
698 0.000139
699 0.000133
700 0.000129
701 0.000127
702 0.000124
703 0.000119
704 0.000120
705 0.000123
706 0.000123
707 0.000127
708 0.000129
709 0.000124
710 0.000122
711 0.000123
712 0.000121
713 0.000117
714 0.000117
715 0.000118
716 0.000117
717 0.000116
718 0.000123
719 0.000129
720 0.000126
721 0.000131
722 0.000136
723 0.000145
724 0.000152
725 0.000158
726 0.000162
727 0.000171
728 0.000178
729 0.000185
730 0.000184
731 0.000183
732 0.000181
733 0.000178
734 0.000176
735 0.000180
736 0.000183
737 0.000187
738 0.000187
739 0.000186
740 0.000184
741 0.000180
742 0.000175
743 0.000169
744 0.000163
745 0.000156
746 0.000150
747 0.000146
748 0.000142
749 0.000139
750 0.000134
751 0.000132
752 0.000123
753 0.000116
754 0.000113
755 0.000115
756 0.000119
757 0.000118
758 0.000123
759 0.000129
760 0.000133
761 0.000139
762 0.000141
763 0.000140
764 0.000140
765 0.000139
766 0.000137
767 0.000135
768 0.000133
769 0.000133
770 0.000136
771 0.000135
772 0.000135
773 0.000133
774 0.000129
775 0.000129
776 0.000129
777 0.000130
778 0.000136
779 0.000140
780 0.000146
781 0.000151
782 0.000152
783 0.000153
784 0.000151
785 0.000152
786 0.000149
787 0.000146
788 0.000143
789 0.000142
790 0.000144
791 0.000144
792 0.000145
793 0.000139
794 0.000135
795 0.000129
796 0.000124
797 0.000117
798 0.000110
799 0.000110
800 0.000109
801 0.000107
802 0.000099
803 0.000093
804 0.000091
805 0.000091
806 0.000089
807 0.000089
808 0.000088
809 0.000089
