# i correlation
1 0.001646
2 0.001585
3 0.001536
4 0.001496
5 0.001453
6 0.001419
7 0.001392
8 0.001370
9 0.001355
10 0.001341
11 0.001332
12 0.001317
13 0.001304
14 0.001288
15 0.001271
16 0.001256
17 0.001245
18 0.001227
19 0.001212
20 0.001205
21 0.001191
22 0.001177
23 0.001164
24 0.001155
25 0.001139
26 0.001119
27 0.001106
28 0.001101
29 0.001091
30 0.001084
31 0.001080
32 0.001082
33 0.001087
34 0.001079
35 0.001059
36 0.001040
37 0.001024
38 0.001015
39 0.001006
40 0.000988
41 0.000965
42 0.000949
43 0.000941
44 0.000933
45 0.000935
46 0.000932
47 0.000931
48 0.000925
49 0.000922
50 0.000917
51 0.000909
52 0.000909
53 0.000903
54 0.000898
55 0.000894
56 0.000897
57 0.000902
58 0.000902
59 0.000901
60 0.000906
61 0.000910
62 0.000900
63 0.000887
64 0.000880
65 0.000878
66 0.000874
67 0.000872
68 0.000870
69 0.000869
70 0.000868
71 0.000876
72 0.000881
73 0.000886
74 0.000881
75 0.000881
76 0.000877
77 0.000877
78 0.000879
79 0.000880
80 0.000883
81 0.000888
82 0.000890
83 0.000884
84 0.000877
85 0.000876
86 0.000866
87 0.000856
88 0.000853
89 0.000846
90 0.000839
91 0.000833
92 0.000830
93 0.000820
94 0.000815
95 0.000807
96 0.000795
97 0.000781
98 0.000771
99 0.000768
100 0.000756
101 0.000744
102 0.000734
103 0.000728
104 0.000724
105 0.000731
106 0.000740
107 0.000743
108 0.000750
109 0.000762
110 0.000760
111 0.000756
112 0.000754
113 0.000754
114 0.000759
115 0.000760
116 0.000757
117 0.000753
118 0.000753
119 0.000754
120 0.000756
121 0.000752
122 0.000749
123 0.000748
124 0.000744
125 0.000739
126 0.000732
127 0.000729
128 0.000723
129 0.000719
130 0.000708
131 0.000700
132 0.000692
133 0.000693
134 0.000689
135 0.000677
136 0.000666
137 0.000668
138 0.000673
139 0.000682
140 0.000680
141 0.000684
142 0.000695
143 0.000701
144 0.000701
145 0.000698
146 0.000697
147 0.000692
148 0.000689
149 0.000678
150 0.000675
151 0.000677
152 0.000684
153 0.000697
154 0.000706
155 0.000706
156 0.000701
157 0.000699
158 0.000697
159 0.000694
160 0.000691
161 0.000694
162 0.000698
163 0.000700
164 0.000704
165 0.000711
166 0.000718
167 0.000723
168 0.000724
169 0.000715
170 0.000711
171 0.000706
172 0.000702
173 0.000692
174 0.000682
175 0.000674
176 0.000677
177 0.000678
178 0.000677
179 0.000670
180 0.000664
181 0.000655
182 0.000644
183 0.000633
184 0.000631
185 0.000622
186 0.000618
187 0.000616
188 0.000612
189 0.000607
190 0.000602
191 0.000597
192 0.000594
193 0.000586
194 0.000570
195 0.000562
196 0.000553
197 0.000551
198 0.000553
199 0.000556
200 0.000560
201 0.000559
202 0.000562
203 0.000561
204 0.000564
205 0.000560
206 0.000552
207 0.000546
208 0.000540
209 0.000531
210 0.000519
211 0.000511
212 0.000506
213 0.000504
214 0.000501
215 0.000504
216 0.000501
217 0.000503
218 0.000499
219 0.000503
220 0.000507
221 0.000509
222 0.000512
223 0.000516
224 0.000522
225 0.000525
226 0.000531
227 0.000528
228 0.000527
229 0.000527
230 0.000525
231 0.000524
232 0.000525
233 0.000536
234 0.000541
235 0.000544
236 0.000548
237 0.000555
238 0.000561
239 0.000562
240 0.000557
241 0.000553
242 0.000557
243 0.000549
244 0.000540
245 0.000535
246 0.000528
247 0.000524
248 0.000518
249 0.000512
250 0.000508
251 0.000509
252 0.000508
253 0.000516
254 0.000518
255 0.000513
256 0.000505
257 0.000506
258 0.000504
259 0.000506
260 0.000504
261 0.000496
262 0.000491
263 0.000483
264 0.000478
265 0.000470
266 0.000462
267 0.000455
268 0.000451
269 0.000445
270 0.000440
271 0.000437
272 0.000438
273 0.000431
274 0.000424
275 0.000419
276 0.000414
277 0.000406
278 0.000401
279 0.000394
280 0.000393
281 0.000393
282 0.000395
283 0.000394
284 0.000394
285 0.000403
286 0.000405
287 0.000406
288 0.000406
289 0.000405
290 0.000405
291 0.000403
292 0.000404
293 0.000406
294 0.000407
295 0.000407
296 0.000401
297 0.000394
298 0.000395
299 0.000392
300 0.000382
301 0.000372
302 0.000366
303 0.000359
304 0.000359
305 0.000360
306 0.000362
307 0.000376
308 0.000382
309 0.000385
310 0.000384
311 0.000385
312 0.000379
313 0.000378
314 0.000377
315 0.000377
316 0.000375
317 0.000379
318 0.000387
319 0.000399
320 0.000406
321 0.000409
322 0.000413
323 0.000413
324 0.000410
325 0.000407
326 0.000404
327 0.000402
328 0.000404
329 0.000399
330 0.000402
331 0.000407
332 0.000410
333 0.000407
334 0.000404
335 0.000395
336 0.000385
337 0.000379
338 0.000372
339 0.000369
340 0.000365
341 0.000368
342 0.000372
343 0.000374
344 0.000373
345 0.000375
346 0.000377
347 0.000379
348 0.000376
349 0.000370
350 0.000366
351 0.000359
352 0.000355
353 0.000351
354 0.000351
355 0.000344
356 0.000342
357 0.000336
358 0.000333
359 0.000329
360 0.000325
361 0.000324
362 0.000320
363 0.000315
364 0.000309
365 0.000306
366 0.000302
367 0.000306
368 0.000303
369 0.000304
370 0.000304
371 0.000302
372 0.000294
373 0.000286
374 0.000284
375 0.000279
376 0.000278
377 0.000279
378 0.000282
379 0.000287
380 0.000295
381 0.000300
382 0.000299
383 0.000299
384 0.000300
385 0.000297
386 0.000299
387 0.000300
388 0.000297
389 0.000295
390 0.000293
391 0.000297
392 0.000303
393 0.000306
394 0.000305
395 0.000306
396 0.000310
397 0.000311
398 0.000309
399 0.000313
400 0.000313
401 0.000320
402 0.000323
403 0.000330
404 0.000332
405 0.000334
406 0.000338
407 0.000343
408 0.000343
409 0.000344
410 0.000347
411 0.000344
412 0.000342
413 0.000347
414 0.000350
415 0.000346
416 0.000341
417 0.000337
418 0.000333
419 0.000335
420 0.000331
421 0.000323
422 0.000318
423 0.000313
424 0.000305
425 0.000297
426 0.000298
427 0.000299
428 0.000296
429 0.000294
430 0.000299
431 0.000308
432 0.000315
433 0.000316
434 0.000312
435 0.000309
436 0.000309
437 0.000314
438 0.000316
439 0.000314
440 0.000318
441 0.000324
442 0.000328
443 0.000330
444 0.000335
445 0.000331
446 0.000332
447 0.000327
448 0.000323
449 0.000316
450 0.000313
451 0.000309
452 0.000314
453 0.000317
454 0.000311
455 0.000306
456 0.000308
457 0.000307
458 0.000304
459 0.000310
460 0.000312
461 0.000319
462 0.000324
463 0.000326
464 0.000326
465 0.000332
466 0.000337
467 0.000338
468 0.000339
469 0.000338
470 0.000345
471 0.000352
472 0.000364
473 0.000372
474 0.000379
475 0.000386
476 0.000395
477 0.000400
478 0.000400
479 0.000399
480 0.000400
481 0.000398
482 0.000388
483 0.000382
484 0.000379
485 0.000377
486 0.000375
487 0.000375
488 0.000374
489 0.000371
490 0.000369
491 0.000369
492 0.000370
493 0.000374
494 0.000373
495 0.000372
496 0.000371
497 0.000371
498 0.000373
499 0.000375
500 0.000375
501 0.000378
502 0.000377
503 0.000368
504 0.000367
505 0.000367
506 0.000363
507 0.000357
508 0.000357
509 0.000359
510 0.000361
511 0.000365
512 0.000373
513 0.000379
514 0.000379
515 0.000380
516 0.000374
517 0.000366
518 0.000359
519 0.000353
520 0.000347
521 0.000340
522 0.000335
523 0.000331
524 0.000324
525 0.000324
526 0.000320
527 0.000312
528 0.000302
529 0.000297
530 0.000292
531 0.000287
532 0.000288
533 0.000288
534 0.000286
535 0.000280
536 0.000271
537 0.000265
538 0.000259
539 0.000251
540 0.000247
541 0.000243
542 0.000237
543 0.000234
544 0.000235
545 0.000238
546 0.000245
547 0.000254
548 0.000259
549 0.000265
550 0.000271
551 0.000276
552 0.000284
553 0.000295
554 0.000304
555 0.000310
556 0.000308
557 0.000308
558 0.000312
559 0.000315
560 0.000317
561 0.000322
562 0.000323
563 0.000316
564 0.000311
565 0.000311
566 0.000309
567 0.000310
568 0.000308
569 0.000310
570 0.000314
571 0.000317
572 0.000315
573 0.000313
574 0.000310
575 0.000307
576 0.000307
577 0.000303
578 0.000296
579 0.000297
580 0.000298
581 0.000299
582 0.000295
583 0.000297
584 0.000299
585 0.000304
586 0.000307
587 0.000312
588 0.000308
589 0.000301
590 0.000298
591 0.000297
592 0.000294
593 0.000291
594 0.000288
595 0.000285
596 0.000278
597 0.000268
598 0.000262
599 0.000256
600 0.000254
601 0.000252
602 0.000251
603 0.000251
604 0.000252
605 0.000253
606 0.000249
607 0.000249
608 0.000247
609 0.000244
610 0.000241
611 0.000236
612 0.000230
613 0.000227
614 0.000226
615 0.000227
616 0.000225
617 0.000222
618 0.000223
619 0.000224
620 0.000226
621 0.000226
622 0.000227
623 0.000223
624 0.000223
625 0.000223
626 0.000230
627 0.000235
628 0.000239
629 0.000243
630 0.000244
631 0.000248
632 0.000251
633 0.000255
634 0.000259
635 0.000268
636 0.000272
637 0.000276
638 0.000284
639 0.000292
640 0.000298
641 0.000300
642 0.000301
643 0.000301
644 0.000298
645 0.000299
646 0.000299
647 0.000297
648 0.000299
649 0.000303
650 0.000301
651 0.000299
652 0.000304
653 0.000304
654 0.000305
655 0.000305
656 0.000306
657 0.000301
658 0.000295
659 0.000290
660 0.000289
661 0.000286
662 0.000279
663 0.000273
664 0.000272
665 0.000277
666 0.000283
667 0.000287
668 0.000291
669 0.000296
670 0.000294
671 0.000291
672 0.000289
673 0.000291
674 0.000295
675 0.000293
676 0.000295
677 0.000296
678 0.000301
679 0.000303
680 0.000302
681 0.000300
682 0.000297
683 0.000295
684 0.000290
685 0.000291
686 0.000291
687 0.000289
688 0.000287
689 0.000288
690 0.000289
691 0.000286
692 0.000279
693 0.000274
694 0.000270
695 0.000266
696 0.000261
697 0.000259
698 0.000256
699 0.000259
700 0.000263
701 0.000268
702 0.000269
703 0.000271
704 0.000270
705 0.000267
706 0.000266
707 0.000262
708 0.000258
709 0.000254
710 0.000255
711 0.000252
712 0.000254
713 0.000258
714 0.000265
715 0.000262
716 0.000260
717 0.000260
718 0.000257
719 0.000251
720 0.000247
721 0.000247
722 0.000247
723 0.000245
724 0.000243
725 0.000244
726 0.000245
727 0.000245
728 0.000242
729 0.000242
730 0.000244
731 0.000243
732 0.000241
733 0.000237
734 0.000237
735 0.000236
736 0.000232
737 0.000231
738 0.000232
739 0.000232
740 0.000231
741 0.000228
742 0.000226
743 0.000220
744 0.000217
745 0.000215
746 0.000215
747 0.000218
748 0.000217
749 0.000214
750 0.000208
751 0.000206
752 0.000199
753 0.000193
754 0.000187
755 0.000183
756 0.000177
757 0.000174
758 0.000175
759 0.000172
760 0.000170
761 0.000168
762 0.000167
763 0.000168
764 0.000166
765 0.000163
766 0.000157
767 0.000147
768 0.000141
769 0.000134
770 0.000126
771 0.000119
772 0.000117
773 0.000114
774 0.000112
775 0.000109
776 0.000104
777 0.000097
778 0.000091
779 0.000085
780 0.000080
781 0.000073
782 0.000069
783 0.000066
784 0.000062
785 0.000057
786 0.000054
787 0.000054
788 0.000055
789 0.000057
790 0.000057
791 0.000061
792 0.000067
793 0.000074
794 0.000085
795 0.000094
796 0.000100
797 0.000105
798 0.000108
799 0.000110
800 0.000112
801 0.000108
802 0.000106
803 0.000108
804 0.000108
805 0.000113
806 0.000118
807 0.000126
808 0.000130
809 0.000133
