# i correlation
1 0.001633
2 0.001565
3 0.001512
4 0.001467
5 0.001426
6 0.001387
7 0.001354
8 0.001321
9 0.001292
10 0.001267
11 0.001243
12 0.001223
13 0.001206
14 0.001194
15 0.001183
16 0.001162
17 0.001146
18 0.001138
19 0.001125
20 0.001115
21 0.001101
22 0.001099
23 0.001102
24 0.001092
25 0.001082
26 0.001077
27 0.001074
28 0.001071
29 0.001064
30 0.001056
31 0.001054
32 0.001049
33 0.001047
34 0.001041
35 0.001035
36 0.001033
37 0.001031
38 0.001030
39 0.001019
40 0.001012
41 0.001003
42 0.001000
43 0.001001
44 0.000998
45 0.000997
46 0.000989
47 0.000973
48 0.000961
49 0.000953
50 0.000940
51 0.000931
52 0.000930
53 0.000924
54 0.000919
55 0.000920
56 0.000918
57 0.000917
58 0.000913
59 0.000900
60 0.000887
61 0.000879
62 0.000870
63 0.000852
64 0.000841
65 0.000827
66 0.000810
67 0.000794
68 0.000787
69 0.000784
70 0.000782
71 0.000783
72 0.000777
73 0.000769
74 0.000759
75 0.000758
76 0.000763
77 0.000773
78 0.000783
79 0.000790
80 0.000794
81 0.000798
82 0.000797
83 0.000792
84 0.000788
85 0.000786
86 0.000782
87 0.000779
88 0.000783
89 0.000783
90 0.000779
91 0.000777
92 0.000777
93 0.000778
94 0.000773
95 0.000766
96 0.000757
97 0.000754
98 0.000752
99 0.000749
100 0.000745
101 0.000743
102 0.000746
103 0.000747
104 0.000754
105 0.000756
106 0.000753
107 0.000755
108 0.000753
109 0.000748
110 0.000744
111 0.000734
112 0.000726
113 0.000723
114 0.000723
115 0.000721
116 0.000723
117 0.000727
118 0.000724
119 0.000720
120 0.000725
121 0.000725
122 0.000728
123 0.000723
124 0.000717
125 0.000714
126 0.000713
127 0.000712
128 0.000714
129 0.000720
130 0.000723
131 0.000728
132 0.000734
133 0.000740
134 0.000743
135 0.000743
136 0.000741
137 0.000735
138 0.000728
139 0.000723
140 0.000718
141 0.000706
142 0.000693
143 0.000685
144 0.000681
145 0.000686
146 0.000684
147 0.000685
148 0.000685
149 0.000684
150 0.000680
151 0.000669
152 0.000662
153 0.000650
154 0.000644
155 0.000641
156 0.000640
157 0.000642
158 0.000645
159 0.000648
160 0.000654
161 0.000665
162 0.000677
163 0.000686
164 0.000692
165 0.000691
166 0.000689
167 0.000694
168 0.000694
169 0.000684
170 0.000681
171 0.000677
172 0.000675
173 0.000667
174 0.000660
175 0.000653
176 0.000648
177 0.000644
178 0.000642
179 0.000643
180 0.000640
181 0.000638
182 0.000636
183 0.000635
184 0.000627
185 0.000619
186 0.000620
187 0.000618
188 0.000609
189 0.000602
190 0.000598
191 0.000601
192 0.000600
193 0.000596
194 0.000587
195 0.000577
196 0.000566
197 0.000559
198 0.000544
199 0.000535
200 0.000530
201 0.000534
202 0.000538
203 0.000533
204 0.000529
205 0.000519
206 0.000517
207 0.000511
208 0.000505
209 0.000499
210 0.000493
211 0.000492
212 0.000489
213 0.000481
214 0.000477
215 0.000474
216 0.000477
217 0.000479
218 0.000475
219 0.000481
220 0.000491
221 0.000496
222 0.000504
223 0.000512
224 0.000519
225 0.000523
226 0.000530
227 0.000538
228 0.000539
229 0.000539
230 0.000539
231 0.000529
232 0.000516
233 0.000505
234 0.000501
235 0.000498
236 0.000494
237 0.000492
238 0.000494
239 0.000491
240 0.000488
241 0.000486
242 0.000482
243 0.000475
244 0.000470
245 0.000471
246 0.000470
247 0.000461
248 0.000451
249 0.000445
250 0.000440
251 0.000435
252 0.000429
253 0.000431
254 0.000434
255 0.000435
256 0.000433
257 0.000433
258 0.000422
259 0.000414
260 0.000408
261 0.000405
262 0.000404
263 0.000399
264 0.000398
265 0.000398
266 0.000396
267 0.000392
268 0.000399
269 0.000405
270 0.000404
271 0.000409
272 0.000418
273 0.000420
274 0.000428
275 0.000430
276 0.000430
277 0.000430
278 0.000425
279 0.000424
280 0.000421
281 0.000420
282 0.000418
283 0.000417
284 0.000416
285 0.000411
286 0.000406
287 0.000397
288 0.000393
289 0.000389
290 0.000383
291 0.000378
292 0.000377
293 0.000374
294 0.000375
295 0.000372
296 0.000369
297 0.000368
298 0.000366
299 0.000368
300 0.000371
301 0.000370
302 0.000366
303 0.000365
304 0.000359
305 0.000361
306 0.000365
307 0.000370
308 0.000377
309 0.000383
310 0.000392
311 0.000402
312 0.000412
313 0.000416
314 0.000419
315 0.000419
316 0.000413
317 0.000404
318 0.000400
319 0.000401
320 0.000396
321 0.000384
322 0.000378
323 0.000369
324 0.000361
325 0.000357
326 0.000364
327 0.000369
328 0.000372
329 0.000376
330 0.000373
331 0.000373
332 0.000368
333 0.000364
334 0.000363
335 0.000353
336 0.000345
337 0.000344
338 0.000338
339 0.000327
340 0.000320
341 0.000313
342 0.000307
343 0.000301
344 0.000295
345 0.000290
346 0.000280
347 0.000272
348 0.000266
349 0.000265
350 0.000268
351 0.000272
352 0.000272
353 0.000271
354 0.000274
355 0.000281
356 0.000284
357 0.000284
358 0.000283
359 0.000285
360 0.000291
361 0.000295
362 0.000293
363 0.000295
364 0.000299
365 0.000300
366 0.000291
367 0.000287
368 0.000285
369 0.000287
370 0.000288
371 0.000291
372 0.000296
373 0.000291
374 0.000295
375 0.000292
376 0.000289
377 0.000282
378 0.000283
379 0.000277
380 0.000265
381 0.000253
382 0.000244
383 0.000246
384 0.000245
385 0.000244
386 0.000238
387 0.000235
388 0.000227
389 0.000219
390 0.000216
391 0.000220
392 0.000224
393 0.000224
394 0.000226
395 0.000222
396 0.000221
397 0.000223
398 0.000227
399 0.000228
400 0.000230
401 0.000235
402 0.000239
403 0.000245
404 0.000249
405 0.000260
406 0.000268
407 0.000278
408 0.000286
409 0.000291
410 0.000297
411 0.000299
412 0.000299
413 0.000299
414 0.000298
415 0.000294
416 0.000293
417 0.000292
418 0.000291
419 0.000286
420 0.000286
421 0.000293
422 0.000295
423 0.000301
424 0.000301
425 0.000297
426 0.000292
427 0.000289
428 0.000285
429 0.000285
430 0.000280
431 0.000273
432 0.000269
433 0.000267
434 0.000261
435 0.000253
436 0.000251
437 0.000244
438 0.000240
439 0.000234
440 0.000226
441 0.000221
442 0.000217
443 0.000211
444 0.000206
445 0.000197
446 0.000191
447 0.000192
448 0.000196
449 0.000197
450 0.000194
451 0.000191
452 0.000185
453 0.000182
454 0.000173
455 0.000167
456 0.000165
457 0.000168
458 0.000169
459 0.000172
460 0.000172
461 0.000174
462 0.000174
463 0.000180
464 0.000184
465 0.000187
466 0.000187
467 0.000187
468 0.000180
469 0.000174
470 0.000166
471 0.000162
472 0.000156
473 0.000151
474 0.000142
475 0.000140
476 0.000147
477 0.000150
478 0.000151
479 0.000148
480 0.000148
481 0.000151
482 0.000156
483 0.000165
484 0.000173
485 0.000178
486 0.000179
487 0.000174
488 0.000168
489 0.000163
490 0.000163
491 0.000166
492 0.000168
493 0.000168
494 0.000172
495 0.000173
496 0.000179
497 0.000175
498 0.000171
499 0.000168
500 0.000172
501 0.000177
502 0.000183
503 0.000188
504 0.000191
505 0.000198
506 0.000207
507 0.000209
508 0.000210
509 0.000214
510 0.000216
511 0.000217
512 0.000217
513 0.000217
514 0.000219
515 0.000220
516 0.000219
517 0.000221
518 0.000225
519 0.000232
520 0.000236
521 0.000239
522 0.000242
523 0.000246
524 0.000244
525 0.000236
526 0.000224
527 0.000210
528 0.000205
529 0.000201
530 0.000200
531 0.000202
532 0.000204
533 0.000204
534 0.000204
535 0.000208
536 0.000211
537 0.000212
538 0.000212
539 0.000214
540 0.000219
541 0.000228
542 0.000236
543 0.000243
544 0.000241
545 0.000241
546 0.000243
547 0.000239
548 0.000233
549 0.000223
550 0.000211
551 0.000201
552 0.000195
553 0.000192
554 0.000192
555 0.000193
556 0.000192
557 0.000193
558 0.000193
559 0.000187
560 0.000181
561 0.000181
562 0.000182
563 0.000185
564 0.000192
565 0.000200
566 0.000199
567 0.000199
568 0.000197
569 0.000193
570 0.000187
571 0.000182
572 0.000176
573 0.000171
574 0.000161
575 0.000153
576 0.000142
577 0.000133
578 0.000124
579 0.000113
580 0.000107
581 0.000100
582 0.000091
583 0.000086
584 0.000081
585 0.000080
586 0.000078
587 0.000080
588 0.000085
589 0.000088
590 0.000091
591 0.000096
592 0.000093
593 0.000093
594 0.000097
595 0.000097
596 0.000092
597 0.000089
598 0.000090
599 0.000091
600 0.000097
601 0.000100
602 0.000104
603 0.000104
604 0.000101
605 0.000100
606 0.000099
607 0.000095
608 0.000093
609 0.000094
610 0.000094
611 0.000093
612 0.000093
613 0.000094
614 0.000095
615 0.000092
616 0.000091
617 0.000088
618 0.000081
619 0.000074
620 0.000069
621 0.000066
622 0.000063
623 0.000062
624 0.000063
625 0.000066
626 0.000068
627 0.000069
628 0.000067
629 0.000065
630 0.000059
631 0.000055
632 0.000049
633 0.000044
634 0.000040
635 0.000037
636 0.000030
637 0.000022
638 0.000018
639 0.000016
640 0.000019
641 0.000018
642 0.000015
643 0.000014
644 0.000012
645 0.000011
646 0.000013
647 0.000013
648 0.000014
649 0.000016
650 0.000017
651 0.000021
652 0.000027
653 0.000034
654 0.000037
655 0.000043
656 0.000046
657 0.000046
658 0.000050
659 0.000052
660 0.000047
661 0.000037
662 0.000032
663 0.000028
664 0.000022
665 0.000014
666 0.000009
667 0.000008
668 0.000011
669 0.000016
670 0.000022
671 0.000028
672 0.000030
673 0.000031
674 0.000032
675 0.000032
676 0.000030
677 0.000036
678 0.000038
679 0.000042
680 0.000044
681 0.000047
682 0.000051
683 0.000058
684 0.000063
685 0.000071
686 0.000081
687 0.000087
688 0.000090
689 0.000090
690 0.000089
691 0.000091
692 0.000093
693 0.000095
694 0.000094
695 0.000095
696 0.000091
697 0.000093
698 0.000098
699 0.000100
700 0.000097
701 0.000095
702 0.000098
703 0.000102
704 0.000106
705 0.000111
706 0.000113
707 0.000114
708 0.000112
709 0.000107
710 0.000105
711 0.000099
712 0.000097
713 0.000094
714 0.000096
715 0.000097
716 0.000096
717 0.000096
718 0.000092
719 0.000091
720 0.000093
721 0.000096
722 0.000097
723 0.000101
724 0.000102
725 0.000102
726 0.000106
727 0.000106
728 0.000109
729 0.000113
730 0.000119
731 0.000121
732 0.000128
733 0.000134
734 0.000139
735 0.000149
736 0.000156
737 0.000161
738 0.000167
739 0.000173
740 0.000180
741 0.000182
742 0.000182
743 0.000182
744 0.000179
745 0.000174
746 0.000164
747 0.000163
748 0.000165
749 0.000162
750 0.000159
751 0.000153
752 0.000148
753 0.000138
754 0.000130
755 0.000125
756 0.000116
757 0.000110
758 0.000106
759 0.000106
760 0.000106
761 0.000107
762 0.000108
763 0.000109
764 0.000109
765 0.000107
766 0.000106
767 0.000102
768 0.000098
769 0.000095
770 0.000097
771 0.000096
772 0.000093
773 0.000088
774 0.000085
775 0.000087
776 0.000089
777 0.000093
778 0.000098
779 0.000102
780 0.000099
781 0.000098
782 0.000097
783 0.000096
784 0.000097
785 0.000102
786 0.000106
787 0.000108
788 0.000111
789 0.000106
790 0.000105
791 0.000104
792 0.000107
793 0.000108
794 0.000106
795 0.000102
796 0.000097
797 0.000091
798 0.000084
799 0.000077
800 0.000068
801 0.000059
802 0.000052
803 0.000048
804 0.000043
805 0.000037
806 0.000031
807 0.000025
808 0.000023
809 0.000018
