# i correlation
1 0.001808
2 0.001753
3 0.001707
4 0.001667
5 0.001631
6 0.001600
7 0.001573
8 0.001549
9 0.001527
10 0.001502
11 0.001486
12 0.001470
13 0.001456
14 0.001444
15 0.001430
16 0.001418
17 0.001406
18 0.001395
19 0.001386
20 0.001374
21 0.001353
22 0.001335
23 0.001327
24 0.001326
25 0.001318
26 0.001311
27 0.001299
28 0.001284
29 0.001269
30 0.001257
31 0.001243
32 0.001237
33 0.001235
34 0.001229
35 0.001232
36 0.001223
37 0.001218
38 0.001212
39 0.001209
40 0.001204
41 0.001198
42 0.001204
43 0.001207
44 0.001204
45 0.001197
46 0.001193
47 0.001181
48 0.001169
49 0.001157
50 0.001151
51 0.001145
52 0.001133
53 0.001124
54 0.001113
55 0.001100
56 0.001082
57 0.001070
58 0.001061
59 0.001058
60 0.001051
61 0.001049
62 0.001043
63 0.001045
64 0.001038
65 0.001036
66 0.001033
67 0.001033
68 0.001036
69 0.001035
70 0.001038
71 0.001036
72 0.001043
73 0.001043
74 0.001044
75 0.001047
76 0.001049
77 0.001054
78 0.001061
79 0.001060
80 0.001056
81 0.001050
82 0.001039
83 0.001028
84 0.001023
85 0.001022
86 0.001020
87 0.001017
88 0.001012
89 0.001005
90 0.000996
91 0.000988
92 0.000983
93 0.000976
94 0.000971
95 0.000963
96 0.000964
97 0.000961
98 0.000958
99 0.000955
100 0.000945
101 0.000931
102 0.000923
103 0.000920
104 0.000912
105 0.000908
106 0.000898
107 0.000893
108 0.000884
109 0.000880
110 0.000874
111 0.000872
112 0.000867
113 0.000863
114 0.000857
115 0.000854
116 0.000854
117 0.000849
118 0.000846
119 0.000842
120 0.000842
121 0.000843
122 0.000837
123 0.000832
124 0.000827
125 0.000822
126 0.000816
127 0.000817
128 0.000816
129 0.000812
130 0.000809
131 0.000803
132 0.000801
133 0.000793
134 0.000783
135 0.000770
136 0.000760
137 0.000752
138 0.000751
139 0.000755
140 0.000762
141 0.000767
142 0.000778
143 0.000787
144 0.000792
145 0.000803
146 0.000813
147 0.000818
148 0.000820
149 0.000819
150 0.000816
151 0.000820
152 0.000812
153 0.000798
154 0.000782
155 0.000768
156 0.000757
157 0.000751
158 0.000751
159 0.000754
160 0.000750
161 0.000741
162 0.000734
163 0.000731
164 0.000728
165 0.000730
166 0.000735
167 0.000736
168 0.000737
169 0.000743
170 0.000744
171 0.000747
172 0.000745
173 0.000739
174 0.000734
175 0.000730
176 0.000723
177 0.000717
178 0.000717
179 0.000713
180 0.000701
181 0.000688
182 0.000678
183 0.000675
184 0.000671
185 0.000668
186 0.000666
187 0.000666
188 0.000663
189 0.000661
190 0.000658
191 0.000656
192 0.000654
193 0.000657
194 0.000661
195 0.000662
196 0.000654
197 0.000646
198 0.000635
199 0.000624
200 0.000613
201 0.000606
202 0.000601
203 0.000598
204 0.000602
205 0.000600
206 0.000606
207 0.000607
208 0.000605
209 0.000600
210 0.000599
211 0.000594
212 0.000594
213 0.000590
214 0.000591
215 0.000589
216 0.000593
217 0.000597
218 0.000595
219 0.000600
220 0.000605
221 0.000612
222 0.000612
223 0.000610
224 0.000612
225 0.000617
226 0.000619
227 0.000618
228 0.000620
229 0.000624
230 0.000623
231 0.000619
232 0.000622
233 0.000619
234 0.000611
235 0.000600
236 0.000595
237 0.000593
238 0.000589
239 0.000591
240 0.000585
241 0.000587
242 0.000584
243 0.000576
244 0.000572
245 0.000567
246 0.000559
247 0.000549
248 0.000544
249 0.000542
250 0.000540
251 0.000530
252 0.000516
253 0.000505
254 0.000493
255 0.000485
256 0.000486
257 0.000484
258 0.000489
259 0.000491
260 0.000492
261 0.000497
262 0.000501
263 0.000498
264 0.000500
265 0.000501
266 0.000499
267 0.000506
268 0.000508
269 0.000512
270 0.000516
271 0.000520
272 0.000526
273 0.000525
274 0.000528
275 0.000531
276 0.000532
277 0.000525
278 0.000520
279 0.000519
280 0.000512
281 0.000507
282 0.000504
283 0.000498
284 0.000495
285 0.000498
286 0.000498
287 0.000495
288 0.000496
289 0.000494
290 0.000487
291 0.000485
292 0.000480
293 0.000476
294 0.000475
295 0.000477
296 0.000475
297 0.000470
298 0.000466
299 0.000457
300 0.000452
301 0.000448
302 0.000445
303 0.000441
304 0.000437
305 0.000435
306 0.000433
307 0.000433
308 0.000438
309 0.000440
310 0.000443
311 0.000454
312 0.000461
313 0.000465
314 0.000470
315 0.000476
316 0.000471
317 0.000469
318 0.000465
319 0.000462
320 0.000457
321 0.000460
322 0.000461
323 0.000449
324 0.000444
325 0.000439
326 0.000436
327 0.000428
328 0.000422
329 0.000415
330 0.000404
331 0.000391
332 0.000371
333 0.000359
334 0.000353
335 0.000347
336 0.000343
337 0.000343
338 0.000340
339 0.000341
340 0.000340
341 0.000334
342 0.000325
343 0.000311
344 0.000302
345 0.000296
346 0.000292
347 0.000290
348 0.000289
349 0.000283
350 0.000277
351 0.000268
352 0.000262
353 0.000267
354 0.000276
355 0.000277
356 0.000275
357 0.000277
358 0.000275
359 0.000276
360 0.000281
361 0.000284
362 0.000280
363 0.000282
364 0.000282
365 0.000286
366 0.000291
367 0.000289
368 0.000288
369 0.000282
370 0.000275
371 0.000276
372 0.000278
373 0.000280
374 0.000280
375 0.000274
376 0.000269
377 0.000265
378 0.000261
379 0.000259
380 0.000262
381 0.000263
382 0.000267
383 0.000273
384 0.000278
385 0.000281
386 0.000282
387 0.000281
388 0.000288
389 0.000291
390 0.000301
391 0.000310
392 0.000317
393 0.000316
394 0.000314
395 0.000311
396 0.000305
397 0.000299
398 0.000298
399 0.000298
400 0.000299
401 0.000299
402 0.000301
403 0.000302
404 0.000298
405 0.000292
406 0.000294
407 0.000300
408 0.000305
409 0.000308
410 0.000314
411 0.000323
412 0.000329
413 0.000332
414 0.000337
415 0.000335
416 0.000336
417 0.000336
418 0.000338
419 0.000332
420 0.000327
421 0.000322
422 0.000313
423 0.000306
424 0.000303
425 0.000304
426 0.000306
427 0.000312
428 0.000315
429 0.000313
430 0.000308
431 0.000303
432 0.000297
433 0.000301
434 0.000299
435 0.000296
436 0.000296
437 0.000294
438 0.000293
439 0.000287
440 0.000282
441 0.000285
442 0.000284
443 0.000282
444 0.000277
445 0.000281
446 0.000284
447 0.000280
448 0.000271
449 0.000265
450 0.000257
451 0.000252
452 0.000245
453 0.000246
454 0.000247
455 0.000245
456 0.000243
457 0.000246
458 0.000248
459 0.000249
460 0.000252
461 0.000255
462 0.000257
463 0.000255
464 0.000247
465 0.000242
466 0.000240
467 0.000240
468 0.000240
469 0.000241
470 0.000244
471 0.000249
472 0.000247
473 0.000247
474 0.000245
475 0.000242
476 0.000237
477 0.000231
478 0.000223
479 0.000218
480 0.000214
481 0.000214
482 0.000212
483 0.000207
484 0.000203
485 0.000204
486 0.000209
487 0.000217
488 0.000226
489 0.000233
490 0.000233
491 0.000237
492 0.000241
493 0.000248
494 0.000250
495 0.000252
496 0.000252
497 0.000250
498 0.000249
499 0.000253
500 0.000260
501 0.000265
502 0.000270
503 0.000271
504 0.000273
505 0.000284
506 0.000290
507 0.000289
508 0.000292
509 0.000292
510 0.000289
511 0.000288
512 0.000289
513 0.000290
514 0.000291
515 0.000288
516 0.000284
517 0.000283
518 0.000279
519 0.000279
520 0.000278
521 0.000269
522 0.000262
523 0.000259
524 0.000252
525 0.000248
526 0.000243
527 0.000236
528 0.000231
529 0.000225
530 0.000221
531 0.000222
532 0.000232
533 0.000239
534 0.000247
535 0.000253
536 0.000258
537 0.000265
538 0.000271
539 0.000277
540 0.000285
541 0.000289
542 0.000291
543 0.000292
544 0.000292
545 0.000294
546 0.000294
547 0.000294
548 0.000295
549 0.000295
550 0.000295
551 0.000294
552 0.000293
553 0.000291
554 0.000295
555 0.000297
556 0.000303
557 0.000305
558 0.000307
559 0.000308
560 0.000308
561 0.000310
562 0.000308
563 0.000306
564 0.000298
565 0.000293
566 0.000286
567 0.000281
568 0.000274
569 0.000271
570 0.000268
571 0.000265
572 0.000260
573 0.000256
574 0.000249
575 0.000248
576 0.000244
577 0.000245
578 0.000241
579 0.000238
580 0.000240
581 0.000238
582 0.000238
583 0.000236
584 0.000235
585 0.000235
586 0.000240
587 0.000245
588 0.000242
589 0.000241
590 0.000238
591 0.000233
592 0.000233
593 0.000230
594 0.000227
595 0.000224
596 0.000226
597 0.000230
598 0.000234
599 0.000232
600 0.000232
601 0.000235
602 0.000234
603 0.000230
604 0.000230
605 0.000229
606 0.000226
607 0.000220
608 0.000215
609 0.000208
610 0.000203
611 0.000197
612 0.000197
613 0.000200
614 0.000201
615 0.000201
616 0.000205
617 0.000210
618 0.000209
619 0.000211
620 0.000213
621 0.000215
622 0.000220
623 0.000217
624 0.000217
625 0.000214
626 0.000210
627 0.000205
628 0.000200
629 0.000194
630 0.000189
631 0.000186
632 0.000183
633 0.000183
634 0.000180
635 0.000179
636 0.000181
637 0.000179
638 0.000174
639 0.000173
640 0.000176
641 0.000178
642 0.000175
643 0.000173
644 0.000167
645 0.000166
646 0.000161
647 0.000158
648 0.000157
649 0.000154
650 0.000155
651 0.000157
652 0.000162
653 0.000166
654 0.000166
655 0.000168
656 0.000165
657 0.000163
658 0.000157
659 0.000157
660 0.000157
661 0.000159
662 0.000161
663 0.000163
664 0.000166
665 0.000166
666 0.000166
667 0.000163
668 0.000160
669 0.000158
670 0.000158
671 0.000157
672 0.000153
673 0.000148
674 0.000146
675 0.000147
676 0.000146
677 0.000146
678 0.000146
679 0.000147
680 0.000147
681 0.000145
682 0.000143
683 0.000144
684 0.000142
685 0.000142
686 0.000143
687 0.000145
688 0.000144
689 0.000140
690 0.000139
691 0.000139
692 0.000140
693 0.000139
694 0.000138
695 0.000138
696 0.000135
697 0.000134
698 0.000137
699 0.000142
700 0.000145
701 0.000150
702 0.000149
703 0.000151
704 0.000151
705 0.000151
706 0.000153
707 0.000159
708 0.000160
709 0.000160
710 0.000158
711 0.000153
712 0.000149
713 0.000148
714 0.000147
715 0.000147
716 0.000143
717 0.000140
718 0.000136
719 0.000134
720 0.000134
721 0.000134
722 0.000136
723 0.000133
724 0.000130
725 0.000131
726 0.000131
727 0.000134
728 0.000137
729 0.000141
730 0.000140
731 0.000141
732 0.000140
733 0.000142
734 0.000141
735 0.000139
736 0.000134
737 0.000131
738 0.000128
739 0.000124
740 0.000122
741 0.000120
742 0.000119
743 0.000119
744 0.000117
745 0.000116
746 0.000117
747 0.000118
748 0.000120
749 0.000124
750 0.000124
751 0.000123
752 0.000122
753 0.000119
754 0.000113
755 0.000107
756 0.000103
757 0.000100
758 0.000097
759 0.000093
760 0.000088
761 0.000085
762 0.000086
763 0.000084
764 0.000086
765 0.000088
766 0.000092
767 0.000098
768 0.000104
769 0.000106
770 0.000109
771 0.000113
772 0.000118
773 0.000125
774 0.000128
775 0.000133
776 0.000137
777 0.000138
778 0.000136
779 0.000131
780 0.000128
781 0.000128
782 0.000130
783 0.000131
784 0.000135
785 0.000137
786 0.000141
787 0.000145
788 0.000149
789 0.000150
790 0.000151
791 0.000152
792 0.000152
793 0.000152
794 0.000152
795 0.000150
796 0.000148
797 0.000146
798 0.000143
799 0.000142
800 0.000141
801 0.000139
802 0.000137
803 0.000134
804 0.000128
805 0.000124
806 0.000120
807 0.000122
808 0.000124
809 0.000125
