# i correlation
1 0.001950
2 0.001902
3 0.001868
4 0.001835
5 0.001813
6 0.001793
7 0.001777
8 0.001761
9 0.001747
10 0.001728
11 0.001712
12 0.001698
13 0.001691
14 0.001692
15 0.001690
16 0.001691
17 0.001686
18 0.001682
19 0.001673
20 0.001657
21 0.001641
22 0.001626
23 0.001614
24 0.001608
25 0.001594
26 0.001583
27 0.001571
28 0.001559
29 0.001549
30 0.001543
31 0.001541
32 0.001533
33 0.001529
34 0.001527
35 0.001518
36 0.001511
37 0.001498
38 0.001492
39 0.001484
40 0.001470
41 0.001465
42 0.001460
43 0.001445
44 0.001433
45 0.001417
46 0.001399
47 0.001387
48 0.001380
49 0.001373
50 0.001362
51 0.001359
52 0.001358
53 0.001351
54 0.001340
55 0.001329
56 0.001322
57 0.001311
58 0.001304
59 0.001300
60 0.001303
61 0.001297
62 0.001290
63 0.001277
64 0.001266
65 0.001253
66 0.001240
67 0.001229
68 0.001218
69 0.001211
70 0.001205
71 0.001194
72 0.001183
73 0.001172
74 0.001161
75 0.001150
76 0.001145
77 0.001138
78 0.001130
79 0.001124
80 0.001119
81 0.001109
82 0.001101
83 0.001094
84 0.001097
85 0.001097
86 0.001097
87 0.001098
88 0.001088
89 0.001081
90 0.001074
91 0.001066
92 0.001055
93 0.001048
94 0.001042
95 0.001036
96 0.001033
97 0.001029
98 0.001025
99 0.001018
100 0.001013
101 0.001001
102 0.000996
103 0.000996
104 0.000996
105 0.000994
106 0.000997
107 0.000998
108 0.000999
109 0.000996
110 0.000990
111 0.000989
112 0.000989
113 0.000993
114 0.000993
115 0.000986
116 0.000983
117 0.000978
118 0.000975
119 0.000975
120 0.000975
121 0.000974
122 0.000968
123 0.000961
124 0.000952
125 0.000949
126 0.000945
127 0.000944
128 0.000942
129 0.000939
130 0.000934
131 0.000931
132 0.000926
133 0.000920
134 0.000916
135 0.000907
136 0.000902
137 0.000906
138 0.000911
139 0.000910
140 0.000903
141 0.000895
142 0.000890
143 0.000889
144 0.000881
145 0.000876
146 0.000876
147 0.000877
148 0.000877
149 0.000882
150 0.000888
151 0.000890
152 0.000897
153 0.000895
154 0.000891
155 0.000890
156 0.000891
157 0.000890
158 0.000887
159 0.000882
160 0.000873
161 0.000869
162 0.000866
163 0.000854
164 0.000847
165 0.000840
166 0.000839
167 0.000838
168 0.000844
169 0.000851
170 0.000865
171 0.000871
172 0.000869
173 0.000876
174 0.000874
175 0.000867
176 0.000869
177 0.000866
178 0.000864
179 0.000860
180 0.000857
181 0.000852
182 0.000849
183 0.000847
184 0.000838
185 0.000829
186 0.000820
187 0.000813
188 0.000809
189 0.000810
190 0.000814
191 0.000814
192 0.000811
193 0.000811
194 0.000808
195 0.000801
196 0.000795
197 0.000789
198 0.000785
199 0.000783
200 0.000783
201 0.000778
202 0.000774
203 0.000771
204 0.000773
205 0.000773
206 0.000771
207 0.000772
208 0.000776
209 0.000779
210 0.000778
211 0.000777
212 0.000779
213 0.000777
214 0.000776
215 0.000771
216 0.000767
217 0.000763
218 0.000759
219 0.000755
220 0.000749
221 0.000745
222 0.000745
223 0.000745
224 0.000746
225 0.000743
226 0.000739
227 0.000737
228 0.000735
229 0.000735
230 0.000737
231 0.000738
232 0.000743
233 0.000743
234 0.000746
235 0.000741
236 0.000739
237 0.000733
238 0.000730
239 0.000721
240 0.000720
241 0.000725
242 0.000728
243 0.000728
244 0.000725
245 0.000724
246 0.000723
247 0.000724
248 0.000723
249 0.000723
250 0.000724
251 0.000719
252 0.000709
253 0.000698
254 0.000692
255 0.000685
256 0.000682
257 0.000681
258 0.000677
259 0.000677
260 0.000679
261 0.000674
262 0.000672
263 0.000674
264 0.000678
265 0.000689
266 0.000698
267 0.000705
268 0.000712
269 0.000712
270 0.000715
271 0.000715
272 0.000710
273 0.000707
274 0.000702
275 0.000700
276 0.000705
277 0.000700
278 0.000694
279 0.000687
280 0.000680
281 0.000680
282 0.000680
283 0.000680
284 0.000682
285 0.000686
286 0.000681
287 0.000682
288 0.000682
289 0.000685
290 0.000693
291 0.000694
292 0.000691
293 0.000696
294 0.000694
295 0.000693
296 0.000691
297 0.000686
298 0.000681
299 0.000677
300 0.000675
301 0.000675
302 0.000678
303 0.000677
304 0.000677
305 0.000672
306 0.000665
307 0.000666
308 0.000666
309 0.000666
310 0.000665
311 0.000663
312 0.000656
313 0.000648
314 0.000642
315 0.000631
316 0.000622
317 0.000620
318 0.000617
319 0.000617
320 0.000619
321 0.000619
322 0.000616
323 0.000614
324 0.000608
325 0.000605
326 0.000603
327 0.000606
328 0.000608
329 0.000613
330 0.000614
331 0.000615
332 0.000615
333 0.000611
334 0.000606
335 0.000603
336 0.000600
337 0.000597
338 0.000597
339 0.000595
340 0.000592
341 0.000589
342 0.000584
343 0.000580
344 0.000580
345 0.000578
346 0.000577
347 0.000577
348 0.000572
349 0.000571
350 0.000567
351 0.000562
352 0.000561
353 0.000555
354 0.000551
355 0.000548
356 0.000544
357 0.000539
358 0.000534
359 0.000529
360 0.000525
361 0.000521
362 0.000519
363 0.000521
364 0.000515
365 0.000505
366 0.000498
367 0.000490
368 0.000481
369 0.000469
370 0.000459
371 0.000453
372 0.000445
373 0.000440
374 0.000440
375 0.000440
376 0.000438
377 0.000433
378 0.000428
379 0.000426
380 0.000429
381 0.000430
382 0.000429
383 0.000423
384 0.000418
385 0.000413
386 0.000406
387 0.000398
388 0.000391
389 0.000384
390 0.000379
391 0.000378
392 0.000371
393 0.000368
394 0.000362
395 0.000358
396 0.000354
397 0.000352
398 0.000351
399 0.000349
400 0.000348
401 0.000349
402 0.000351
403 0.000351
404 0.000354
405 0.000350
406 0.000351
407 0.000351
408 0.000350
409 0.000354
410 0.000351
411 0.000343
412 0.000340
413 0.000339
414 0.000338
415 0.000341
416 0.000343
417 0.000348
418 0.000353
419 0.000358
420 0.000359
421 0.000362
422 0.000360
423 0.000364
424 0.000369
425 0.000367
426 0.000364
427 0.000365
428 0.000368
429 0.000362
430 0.000357
431 0.000353
432 0.000346
433 0.000349
434 0.000351
435 0.000351
436 0.000352
437 0.000356
438 0.000361
439 0.000366
440 0.000375
441 0.000380
442 0.000389
443 0.000397
444 0.000399
445 0.000406
446 0.000413
447 0.000425
448 0.000433
449 0.000442
450 0.000447
451 0.000455
452 0.000463
453 0.000464
454 0.000466
455 0.000467
456 0.000469
457 0.000474
458 0.000480
459 0.000486
460 0.000490
461 0.000496
462 0.000500
463 0.000503
464 0.000503
465 0.000504
466 0.000512
467 0.000513
468 0.000514
469 0.000515
470 0.000513
471 0.000510
472 0.000508
473 0.000507
474 0.000505
475 0.000508
476 0.000506
477 0.000504
478 0.000504
479 0.000505
480 0.000508
481 0.000512
482 0.000513
483 0.000517
484 0.000522
485 0.000525
486 0.000523
487 0.000522
488 0.000521
489 0.000523
490 0.000531
491 0.000532
492 0.000533
493 0.000535
494 0.000533
495 0.000528
496 0.000524
497 0.000526
498 0.000525
499 0.000527
500 0.000537
501 0.000545
502 0.000546
503 0.000546
504 0.000545
505 0.000548
506 0.000546
507 0.000547
508 0.000547
509 0.000546
510 0.000546
511 0.000545
512 0.000544
513 0.000543
514 0.000544
515 0.000547
516 0.000546
517 0.000548
518 0.000552
519 0.000554
520 0.000549
521 0.000550
522 0.000545
523 0.000543
524 0.000538
525 0.000534
526 0.000528
527 0.000525
528 0.000520
529 0.000516
530 0.000508
531 0.000505
532 0.000504
533 0.000504
534 0.000507
535 0.000506
536 0.000506
537 0.000507
538 0.000503
539 0.000501
540 0.000496
541 0.000496
542 0.000492
543 0.000487
544 0.000484
545 0.000483
546 0.000480
547 0.000476
548 0.000473
549 0.000472
550 0.000469
551 0.000465
552 0.000464
553 0.000469
554 0.000474
555 0.000476
556 0.000475
557 0.000474
558 0.000473
559 0.000472
560 0.000476
561 0.000479
562 0.000478
563 0.000477
564 0.000474
565 0.000474
566 0.000473
567 0.000472
568 0.000470
569 0.000469
570 0.000471
571 0.000471
572 0.000470
573 0.000469
574 0.000469
575 0.000469
576 0.000468
577 0.000467
578 0.000465
579 0.000468
580 0.000466
581 0.000465
582 0.000460
583 0.000454
584 0.000447
585 0.000443
586 0.000438
587 0.000434
588 0.000431
589 0.000430
590 0.000429
591 0.000423
592 0.000419
593 0.000415
594 0.000412
595 0.000409
596 0.000407
597 0.000411
598 0.000412
599 0.000411
600 0.000406
601 0.000406
602 0.000401
603 0.000395
604 0.000394
605 0.000392
606 0.000389
607 0.000386
608 0.000384
609 0.000381
610 0.000374
611 0.000369
612 0.000365
613 0.000364
614 0.000365
615 0.000362
616 0.000357
617 0.000356
618 0.000356
619 0.000354
620 0.000354
621 0.000358
622 0.000361
623 0.000368
624 0.000372
625 0.000377
626 0.000375
627 0.000375
628 0.000378
629 0.000377
630 0.000378
631 0.000380
632 0.000381
633 0.000382
634 0.000383
635 0.000382
636 0.000378
637 0.000377
638 0.000373
639 0.000373
640 0.000376
641 0.000378
642 0.000380
643 0.000381
644 0.000380
645 0.000379
646 0.000374
647 0.000372
648 0.000371
649 0.000370
650 0.000372
651 0.000374
652 0.000376
653 0.000376
654 0.000372
655 0.000367
656 0.000366
657 0.000364
658 0.000364
659 0.000361
660 0.000357
661 0.000356
662 0.000354
663 0.000353
664 0.000351
665 0.000344
666 0.000346
667 0.000347
668 0.000347
669 0.000348
670 0.000349
671 0.000354
672 0.000352
673 0.000348
674 0.000348
675 0.000348
676 0.000346
677 0.000342
678 0.000338
679 0.000335
680 0.000331
681 0.000330
682 0.000327
683 0.000329
684 0.000330
685 0.000333
686 0.000333
687 0.000333
688 0.000335
689 0.000334
690 0.000331
691 0.000328
692 0.000322
693 0.000320
694 0.000320
695 0.000320
696 0.000314
697 0.000311
698 0.000308
699 0.000303
700 0.000300
701 0.000296
702 0.000297
703 0.000296
704 0.000297
705 0.000296
706 0.000291
707 0.000286
708 0.000281
709 0.000277
710 0.000273
711 0.000273
712 0.000276
713 0.000276
714 0.000274
715 0.000272
716 0.000268
717 0.000264
718 0.000263
719 0.000264
720 0.000263
721 0.000261
722 0.000257
723 0.000253
724 0.000252
725 0.000247
726 0.000244
727 0.000244
728 0.000245
729 0.000243
730 0.000241
731 0.000243
732 0.000244
733 0.000244
734 0.000240
735 0.000240
736 0.000241
737 0.000240
738 0.000240
739 0.000239
740 0.000237
741 0.000235
742 0.000232
743 0.000232
744 0.000230
745 0.000227
746 0.000225
747 0.000224
748 0.000223
749 0.000222
750 0.000223
751 0.000226
752 0.000224
753 0.000223
754 0.000222
755 0.000224
756 0.000226
757 0.000226
758 0.000227
759 0.000227
760 0.000228
761 0.000228
762 0.000227
763 0.000228
764 0.000227
765 0.000227
766 0.000226
767 0.000227
768 0.000227
769 0.000227
770 0.000227
771 0.000228
772 0.000231
773 0.000230
774 0.000228
775 0.000229
776 0.000229
777 0.000230
778 0.000231
779 0.000232
780 0.000233
781 0.000231
782 0.000232
783 0.000233
784 0.000235
785 0.000237
786 0.000238
787 0.000239
788 0.000240
789 0.000243
790 0.000245
791 0.000249
792 0.000251
793 0.000250
794 0.000250
795 0.000251
796 0.000251
797 0.000251
798 0.000251
799 0.000250
800 0.000249
801 0.000251
802 0.000254
803 0.000256
804 0.000258
805 0.000259
806 0.000260
807 0.000261
808 0.000261
809 0.000261
