# i correlation
1 0.001691
2 0.001637
3 0.001592
4 0.001546
5 0.001503
6 0.001460
7 0.001416
8 0.001381
9 0.001350
10 0.001328
11 0.001319
12 0.001304
13 0.001281
14 0.001272
15 0.001266
16 0.001258
17 0.001253
18 0.001251
19 0.001249
20 0.001249
21 0.001238
22 0.001227
23 0.001214
24 0.001195
25 0.001181
26 0.001161
27 0.001140
28 0.001121
29 0.001104
30 0.001090
31 0.001077
32 0.001064
33 0.001050
34 0.001036
35 0.001027
36 0.001020
37 0.001014
38 0.001010
39 0.001011
40 0.001011
41 0.001018
42 0.001019
43 0.001017
44 0.001016
45 0.001013
46 0.001002
47 0.000994
48 0.000990
49 0.000985
50 0.000980
51 0.000974
52 0.000964
53 0.000963
54 0.000963
55 0.000965
56 0.000962
57 0.000955
58 0.000949
59 0.000951
60 0.000954
61 0.000956
62 0.000953
63 0.000953
64 0.000954
65 0.000954
66 0.000959
67 0.000961
68 0.000962
69 0.000963
70 0.000965
71 0.000968
72 0.000969
73 0.000968
74 0.000964
75 0.000961
76 0.000955
77 0.000949
78 0.000944
79 0.000935
80 0.000926
81 0.000921
82 0.000913
83 0.000907
84 0.000907
85 0.000909
86 0.000910
87 0.000909
88 0.000908
89 0.000903
90 0.000894
91 0.000883
92 0.000867
93 0.000850
94 0.000831
95 0.000817
96 0.000808
97 0.000798
98 0.000785
99 0.000777
100 0.000773
101 0.000765
102 0.000760
103 0.000762
104 0.000763
105 0.000763
106 0.000761
107 0.000759
108 0.000759
109 0.000755
110 0.000750
111 0.000743
112 0.000733
113 0.000717
114 0.000705
115 0.000693
116 0.000682
117 0.000677
118 0.000671
119 0.000665
120 0.000660
121 0.000654
122 0.000654
123 0.000654
124 0.000649
125 0.000645
126 0.000638
127 0.000629
128 0.000626
129 0.000625
130 0.000624
131 0.000622
132 0.000615
133 0.000609
134 0.000605
135 0.000595
136 0.000593
137 0.000591
138 0.000582
139 0.000581
140 0.000586
141 0.000588
142 0.000592
143 0.000600
144 0.000607
145 0.000617
146 0.000621
147 0.000626
148 0.000628
149 0.000627
150 0.000625
151 0.000630
152 0.000632
153 0.000629
154 0.000627
155 0.000622
156 0.000619
157 0.000616
158 0.000613
159 0.000608
160 0.000603
161 0.000598
162 0.000600
163 0.000603
164 0.000607
165 0.000611
166 0.000616
167 0.000615
168 0.000612
169 0.000613
170 0.000612
171 0.000613
172 0.000607
173 0.000605
174 0.000602
175 0.000605
176 0.000606
177 0.000610
178 0.000620
179 0.000622
180 0.000622
181 0.000627
182 0.000634
183 0.000638
184 0.000640
185 0.000640
186 0.000640
187 0.000643
188 0.000645
189 0.000649
190 0.000650
191 0.000651
192 0.000650
193 0.000643
194 0.000641
195 0.000638
196 0.000633
197 0.000626
198 0.000622
199 0.000614
200 0.000609
201 0.000606
202 0.000603
203 0.000597
204 0.000591
205 0.000580
206 0.000573
207 0.000567
208 0.000554
209 0.000540
210 0.000524
211 0.000512
212 0.000503
213 0.000495
214 0.000493
215 0.000489
216 0.000484
217 0.000486
218 0.000490
219 0.000490
220 0.000485
221 0.000482
222 0.000482
223 0.000472
224 0.000465
225 0.000460
226 0.000459
227 0.000455
228 0.000454
229 0.000455
230 0.000456
231 0.000461
232 0.000467
233 0.000479
234 0.000484
235 0.000487
236 0.000495
237 0.000505
238 0.000505
239 0.000501
240 0.000496
241 0.000497
242 0.000497
243 0.000497
244 0.000499
245 0.000498
246 0.000499
247 0.000496
248 0.000497
249 0.000496
250 0.000497
251 0.000507
252 0.000512
253 0.000516
254 0.000522
255 0.000529
256 0.000537
257 0.000546
258 0.000541
259 0.000536
260 0.000527
261 0.000516
262 0.000508
263 0.000499
264 0.000489
265 0.000475
266 0.000467
267 0.000459
268 0.000459
269 0.000455
270 0.000447
271 0.000448
272 0.000446
273 0.000452
274 0.000460
275 0.000467
276 0.000475
277 0.000480
278 0.000490
279 0.000498
280 0.000500
281 0.000498
282 0.000496
283 0.000488
284 0.000475
285 0.000464
286 0.000452
287 0.000442
288 0.000437
289 0.000425
290 0.000417
291 0.000409
292 0.000407
293 0.000403
294 0.000401
295 0.000397
296 0.000396
297 0.000393
298 0.000394
299 0.000397
300 0.000399
301 0.000401
302 0.000395
303 0.000389
304 0.000384
305 0.000377
306 0.000369
307 0.000365
308 0.000358
309 0.000351
310 0.000347
311 0.000344
312 0.000341
313 0.000337
314 0.000330
315 0.000324
316 0.000319
317 0.000315
318 0.000317
319 0.000320
320 0.000323
321 0.000330
322 0.000343
323 0.000354
324 0.000361
325 0.000362
326 0.000359
327 0.000355
328 0.000351
329 0.000348
330 0.000342
331 0.000331
332 0.000323
333 0.000319
334 0.000313
335 0.000309
336 0.000300
337 0.000294
338 0.000291
339 0.000289
340 0.000289
341 0.000293
342 0.000299
343 0.000307
344 0.000308
345 0.000310
346 0.000311
347 0.000314
348 0.000315
349 0.000320
350 0.000321
351 0.000320
352 0.000322
353 0.000324
354 0.000325
355 0.000324
356 0.000323
357 0.000317
358 0.000314
359 0.000311
360 0.000309
361 0.000310
362 0.000310
363 0.000310
364 0.000312
365 0.000315
366 0.000320
367 0.000329
368 0.000335
369 0.000340
370 0.000348
371 0.000355
372 0.000360
373 0.000364
374 0.000367
375 0.000365
376 0.000362
377 0.000355
378 0.000354
379 0.000352
380 0.000348
381 0.000346
382 0.000343
383 0.000343
384 0.000350
385 0.000352
386 0.000355
387 0.000359
388 0.000363
389 0.000365
390 0.000368
391 0.000372
392 0.000374
393 0.000375
394 0.000372
395 0.000370
396 0.000370
397 0.000364
398 0.000359
399 0.000355
400 0.000355
401 0.000351
402 0.000348
403 0.000344
404 0.000339
405 0.000334
406 0.000330
407 0.000328
408 0.000327
409 0.000325
410 0.000322
411 0.000324
412 0.000328
413 0.000330
414 0.000326
415 0.000321
416 0.000316
417 0.000306
418 0.000297
419 0.000291
420 0.000288
421 0.000285
422 0.000293
423 0.000301
424 0.000307
425 0.000315
426 0.000320
427 0.000325
428 0.000330
429 0.000333
430 0.000335
431 0.000336
432 0.000337
433 0.000344
434 0.000354
435 0.000360
436 0.000368
437 0.000379
438 0.000384
439 0.000390
440 0.000397
441 0.000398
442 0.000399
443 0.000403
444 0.000406
445 0.000409
446 0.000409
447 0.000405
448 0.000398
449 0.000388
450 0.000376
451 0.000368
452 0.000362
453 0.000356
454 0.000352
455 0.000353
456 0.000353
457 0.000356
458 0.000357
459 0.000358
460 0.000358
461 0.000354
462 0.000350
463 0.000354
464 0.000357
465 0.000358
466 0.000357
467 0.000352
468 0.000345
469 0.000342
470 0.000337
471 0.000331
472 0.000323
473 0.000318
474 0.000309
475 0.000307
476 0.000302
477 0.000298
478 0.000298
479 0.000303
480 0.000307
481 0.000308
482 0.000309
483 0.000307
484 0.000305
485 0.000299
486 0.000293
487 0.000285
488 0.000274
489 0.000265
490 0.000260
491 0.000252
492 0.000246
493 0.000239
494 0.000231
495 0.000229
496 0.000227
497 0.000225
498 0.000222
499 0.000221
500 0.000218
501 0.000216
502 0.000215
503 0.000213
504 0.000206
505 0.000199
506 0.000189
507 0.000182
508 0.000178
509 0.000171
510 0.000168
511 0.000166
512 0.000172
513 0.000176
514 0.000186
515 0.000193
516 0.000194
517 0.000195
518 0.000201
519 0.000201
520 0.000204
521 0.000205
522 0.000200
523 0.000196
524 0.000194
525 0.000195
526 0.000194
527 0.000189
528 0.000183
529 0.000180
530 0.000179
531 0.000181
532 0.000184
533 0.000194
534 0.000197
535 0.000199
536 0.000207
537 0.000213
538 0.000215
539 0.000213
540 0.000213
541 0.000214
542 0.000214
543 0.000210
544 0.000212
545 0.000215
546 0.000210
547 0.000205
548 0.000199
549 0.000193
550 0.000185
551 0.000176
552 0.000172
553 0.000172
554 0.000166
555 0.000163
556 0.000171
557 0.000170
558 0.000171
559 0.000172
560 0.000173
561 0.000173
562 0.000173
563 0.000170
564 0.000168
565 0.000165
566 0.000161
567 0.000159
568 0.000158
569 0.000153
570 0.000149
571 0.000144
572 0.000132
573 0.000126
574 0.000122
575 0.000122
576 0.000126
577 0.000125
578 0.000128
579 0.000132
580 0.000137
581 0.000143
582 0.000143
583 0.000138
584 0.000135
585 0.000130
586 0.000129
587 0.000129
588 0.000126
589 0.000127
590 0.000128
591 0.000127
592 0.000125
593 0.000123
594 0.000118
595 0.000110
596 0.000104
597 0.000098
598 0.000093
599 0.000089
600 0.000090
601 0.000096
602 0.000098
603 0.000101
604 0.000106
605 0.000111
606 0.000117
607 0.000125
608 0.000129
609 0.000133
610 0.000133
611 0.000133
612 0.000134
613 0.000129
614 0.000125
615 0.000119
616 0.000115
617 0.000111
618 0.000104
619 0.000101
620 0.000103
621 0.000109
622 0.000112
623 0.000116
624 0.000119
625 0.000124
626 0.000129
627 0.000134
628 0.000140
629 0.000144
630 0.000146
631 0.000151
632 0.000154
633 0.000151
634 0.000149
635 0.000145
636 0.000142
637 0.000137
638 0.000131
639 0.000125
640 0.000118
641 0.000114
642 0.000112
643 0.000110
644 0.000112
645 0.000114
646 0.000116
647 0.000117
648 0.000117
649 0.000116
650 0.000115
651 0.000116
652 0.000116
653 0.000115
654 0.000111
655 0.000106
656 0.000104
657 0.000097
658 0.000091
659 0.000087
660 0.000080
661 0.000076
662 0.000076
663 0.000075
664 0.000076
665 0.000080
666 0.000083
667 0.000086
668 0.000088
669 0.000093
670 0.000096
671 0.000099
672 0.000100
673 0.000101
674 0.000101
675 0.000100
676 0.000100
677 0.000099
678 0.000097
679 0.000094
680 0.000095
681 0.000096
682 0.000096
683 0.000098
684 0.000102
685 0.000108
686 0.000110
687 0.000116
688 0.000119
689 0.000119
690 0.000121
691 0.000125
692 0.000126
693 0.000127
694 0.000125
695 0.000122
696 0.000125
697 0.000129
698 0.000132
699 0.000135
700 0.000134
701 0.000137
702 0.000140
703 0.000137
704 0.000136
705 0.000132
706 0.000125
707 0.000123
708 0.000120
709 0.000117
710 0.000116
711 0.000117
712 0.000122
713 0.000128
714 0.000134
715 0.000141
716 0.000151
717 0.000160
718 0.000166
719 0.000173
720 0.000180
721 0.000184
722 0.000185
723 0.000189
724 0.000193
725 0.000194
726 0.000194
727 0.000191
728 0.000189
729 0.000188
730 0.000184
731 0.000182
732 0.000177
733 0.000172
734 0.000171
735 0.000173
736 0.000177
737 0.000181
738 0.000183
739 0.000185
740 0.000189
741 0.000190
742 0.000188
743 0.000186
744 0.000185
745 0.000185
746 0.000186
747 0.000188
748 0.000187
749 0.000183
750 0.000179
751 0.000178
752 0.000175
753 0.000169
754 0.000163
755 0.000159
756 0.000158
757 0.000156
758 0.000154
759 0.000154
760 0.000153
761 0.000149
762 0.000148
763 0.000145
764 0.000143
765 0.000143
766 0.000141
767 0.000141
768 0.000141
769 0.000139
770 0.000140
771 0.000141
772 0.000142
773 0.000141
774 0.000141
775 0.000139
776 0.000137
777 0.000136
778 0.000136
779 0.000137
780 0.000136
781 0.000134
782 0.000134
783 0.000132
784 0.000128
785 0.000124
786 0.000119
787 0.000116
788 0.000114
789 0.000112
790 0.000113
791 0.000112
792 0.000111
793 0.000111
794 0.000109
795 0.000108
796 0.000108
797 0.000107
798 0.000107
799 0.000108
800 0.000108
801 0.000109
802 0.000111
803 0.000109
804 0.000112
805 0.000112
806 0.000113
807 0.000114
808 0.000114
809 0.000114
