# i correlation
1 0.001615
2 0.001556
3 0.001518
4 0.001486
5 0.001462
6 0.001439
7 0.001426
8 0.001407
9 0.001390
10 0.001374
11 0.001354
12 0.001343
13 0.001335
14 0.001320
15 0.001305
16 0.001287
17 0.001272
18 0.001257
19 0.001246
20 0.001240
21 0.001231
22 0.001221
23 0.001210
24 0.001202
25 0.001200
26 0.001189
27 0.001180
28 0.001174
29 0.001164
30 0.001158
31 0.001150
32 0.001137
33 0.001122
34 0.001109
35 0.001095
36 0.001084
37 0.001079
38 0.001074
39 0.001069
40 0.001064
41 0.001062
42 0.001061
43 0.001064
44 0.001069
45 0.001062
46 0.001052
47 0.001042
48 0.001038
49 0.001032
50 0.001026
51 0.001023
52 0.001016
53 0.001010
54 0.001002
55 0.000992
56 0.000986
57 0.000986
58 0.000983
59 0.000976
60 0.000973
61 0.000971
62 0.000966
63 0.000958
64 0.000953
65 0.000949
66 0.000948
67 0.000938
68 0.000931
69 0.000924
70 0.000925
71 0.000928
72 0.000928
73 0.000926
74 0.000929
75 0.000935
76 0.000942
77 0.000938
78 0.000932
79 0.000927
80 0.000915
81 0.000912
82 0.000910
83 0.000907
84 0.000904
85 0.000907
86 0.000910
87 0.000912
88 0.000918
89 0.000926
90 0.000931
91 0.000936
92 0.000937
93 0.000932
94 0.000925
95 0.000913
96 0.000910
97 0.000907
98 0.000906
99 0.000902
100 0.000901
101 0.000900
102 0.000896
103 0.000891
104 0.000900
105 0.000905
106 0.000909
107 0.000909
108 0.000904
109 0.000899
110 0.000899
111 0.000899
112 0.000900
113 0.000905
114 0.000906
115 0.000906
116 0.000906
117 0.000903
118 0.000906
119 0.000911
120 0.000914
121 0.000911
122 0.000901
123 0.000895
124 0.000890
125 0.000886
126 0.000882
127 0.000878
128 0.000868
129 0.000863
130 0.000860
131 0.000856
132 0.000855
133 0.000854
134 0.000859
135 0.000864
136 0.000864
137 0.000860
138 0.000848
139 0.000844
140 0.000846
141 0.000843
142 0.000842
143 0.000836
144 0.000827
145 0.000822
146 0.000814
147 0.000808
148 0.000802
149 0.000797
150 0.000790
151 0.000782
152 0.000777
153 0.000770
154 0.000762
155 0.000758
156 0.000748
157 0.000737
158 0.000730
159 0.000722
160 0.000703
161 0.000690
162 0.000686
163 0.000674
164 0.000669
165 0.000670
166 0.000668
167 0.000658
168 0.000659
169 0.000657
170 0.000655
171 0.000651
172 0.000648
173 0.000640
174 0.000634
175 0.000630
176 0.000625
177 0.000625
178 0.000629
179 0.000633
180 0.000633
181 0.000635
182 0.000635
183 0.000636
184 0.000636
185 0.000636
186 0.000637
187 0.000630
188 0.000618
189 0.000615
190 0.000618
191 0.000615
192 0.000614
193 0.000610
194 0.000604
195 0.000598
196 0.000595
197 0.000596
198 0.000592
199 0.000590
200 0.000584
201 0.000575
202 0.000569
203 0.000564
204 0.000561
205 0.000557
206 0.000557
207 0.000551
208 0.000545
209 0.000539
210 0.000538
211 0.000543
212 0.000545
213 0.000539
214 0.000534
215 0.000529
216 0.000526
217 0.000525
218 0.000528
219 0.000533
220 0.000539
221 0.000544
222 0.000545
223 0.000550
224 0.000555
225 0.000560
226 0.000558
227 0.000556
228 0.000560
229 0.000567
230 0.000571
231 0.000577
232 0.000577
233 0.000575
234 0.000580
235 0.000579
236 0.000581
237 0.000583
238 0.000580
239 0.000574
240 0.000574
241 0.000581
242 0.000582
243 0.000585
244 0.000587
245 0.000583
246 0.000580
247 0.000583
248 0.000580
249 0.000578
250 0.000582
251 0.000587
252 0.000591
253 0.000590
254 0.000594
255 0.000597
256 0.000602
257 0.000603
258 0.000597
259 0.000597
260 0.000603
261 0.000604
262 0.000606
263 0.000611
264 0.000611
265 0.000608
266 0.000610
267 0.000605
268 0.000602
269 0.000596
270 0.000586
271 0.000579
272 0.000576
273 0.000570
274 0.000564
275 0.000564
276 0.000564
277 0.000559
278 0.000554
279 0.000552
280 0.000550
281 0.000541
282 0.000538
283 0.000536
284 0.000533
285 0.000535
286 0.000532
287 0.000522
288 0.000521
289 0.000520
290 0.000513
291 0.000517
292 0.000517
293 0.000517
294 0.000511
295 0.000510
296 0.000509
297 0.000507
298 0.000506
299 0.000495
300 0.000487
301 0.000479
302 0.000473
303 0.000468
304 0.000469
305 0.000474
306 0.000473
307 0.000468
308 0.000466
309 0.000463
310 0.000462
311 0.000461
312 0.000461
313 0.000465
314 0.000464
315 0.000460
316 0.000460
317 0.000466
318 0.000469
319 0.000469
320 0.000469
321 0.000470
322 0.000471
323 0.000475
324 0.000478
325 0.000476
326 0.000475
327 0.000470
328 0.000470
329 0.000470
330 0.000470
331 0.000466
332 0.000461
333 0.000466
334 0.000469
335 0.000466
336 0.000469
337 0.000472
338 0.000474
339 0.000479
340 0.000481
341 0.000487
342 0.000490
343 0.000493
344 0.000493
345 0.000493
346 0.000496
347 0.000494
348 0.000497
349 0.000498
350 0.000493
351 0.000493
352 0.000486
353 0.000484
354 0.000493
355 0.000501
356 0.000504
357 0.000502
358 0.000503
359 0.000499
360 0.000490
361 0.000484
362 0.000482
363 0.000480
364 0.000479
365 0.000479
366 0.000481
367 0.000488
368 0.000492
369 0.000493
370 0.000500
371 0.000505
372 0.000506
373 0.000503
374 0.000499
375 0.000495
376 0.000496
377 0.000497
378 0.000494
379 0.000491
380 0.000488
381 0.000487
382 0.000489
383 0.000487
384 0.000483
385 0.000480
386 0.000475
387 0.000471
388 0.000461
389 0.000455
390 0.000449
391 0.000442
392 0.000439
393 0.000434
394 0.000426
395 0.000419
396 0.000415
397 0.000413
398 0.000409
399 0.000406
400 0.000405
401 0.000402
402 0.000401
403 0.000395
404 0.000386
405 0.000380
406 0.000380
407 0.000379
408 0.000376
409 0.000380
410 0.000383
411 0.000384
412 0.000383
413 0.000378
414 0.000378
415 0.000385
416 0.000390
417 0.000388
418 0.000385
419 0.000376
420 0.000365
421 0.000359
422 0.000355
423 0.000348
424 0.000341
425 0.000339
426 0.000334
427 0.000327
428 0.000322
429 0.000319
430 0.000320
431 0.000320
432 0.000322
433 0.000328
434 0.000330
435 0.000328
436 0.000324
437 0.000324
438 0.000324
439 0.000325
440 0.000327
441 0.000330
442 0.000335
443 0.000338
444 0.000342
445 0.000344
446 0.000346
447 0.000348
448 0.000349
449 0.000355
450 0.000357
451 0.000356
452 0.000352
453 0.000350
454 0.000353
455 0.000351
456 0.000344
457 0.000342
458 0.000343
459 0.000352
460 0.000356
461 0.000360
462 0.000361
463 0.000363
464 0.000369
465 0.000367
466 0.000365
467 0.000358
468 0.000353
469 0.000351
470 0.000349
471 0.000347
472 0.000346
473 0.000348
474 0.000355
475 0.000366
476 0.000376
477 0.000378
478 0.000380
479 0.000382
480 0.000381
481 0.000377
482 0.000377
483 0.000382
484 0.000384
485 0.000385
486 0.000388
487 0.000389
488 0.000397
489 0.000403
490 0.000405
491 0.000411
492 0.000411
493 0.000407
494 0.000403
495 0.000400
496 0.000399
497 0.000401
498 0.000399
499 0.000397
500 0.000394
501 0.000387
502 0.000377
503 0.000379
504 0.000379
505 0.000376
506 0.000374
507 0.000377
508 0.000378
509 0.000375
510 0.000373
511 0.000366
512 0.000355
513 0.000349
514 0.000344
515 0.000336
516 0.000332
517 0.000328
518 0.000319
519 0.000311
520 0.000309
521 0.000308
522 0.000313
523 0.000319
524 0.000322
525 0.000325
526 0.000326
527 0.000329
528 0.000330
529 0.000333
530 0.000334
531 0.000329
532 0.000328
533 0.000326
534 0.000326
535 0.000328
536 0.000333
537 0.000337
538 0.000334
539 0.000329
540 0.000328
541 0.000327
542 0.000320
543 0.000311
544 0.000303
545 0.000300
546 0.000294
547 0.000288
548 0.000282
549 0.000280
550 0.000283
551 0.000287
552 0.000289
553 0.000287
554 0.000289
555 0.000289
556 0.000282
557 0.000278
558 0.000274
559 0.000271
560 0.000266
561 0.000260
562 0.000251
563 0.000241
564 0.000236
565 0.000233
566 0.000229
567 0.000228
568 0.000227
569 0.000222
570 0.000215
571 0.000209
572 0.000201
573 0.000196
574 0.000192
575 0.000188
576 0.000187
577 0.000190
578 0.000190
579 0.000190
580 0.000196
581 0.000196
582 0.000196
583 0.000193
584 0.000196
585 0.000195
586 0.000195
587 0.000197
588 0.000196
589 0.000202
590 0.000206
591 0.000209
592 0.000207
593 0.000208
594 0.000209
595 0.000211
596 0.000214
597 0.000218
598 0.000225
599 0.000233
600 0.000236
601 0.000240
602 0.000244
603 0.000244
604 0.000245
605 0.000245
606 0.000243
607 0.000242
608 0.000244
609 0.000245
610 0.000247
611 0.000253
612 0.000256
613 0.000258
614 0.000260
615 0.000262
616 0.000266
617 0.000269
618 0.000271
619 0.000274
620 0.000274
621 0.000278
622 0.000283
623 0.000287
624 0.000287
625 0.000285
626 0.000284
627 0.000285
628 0.000287
629 0.000290
630 0.000295
631 0.000301
632 0.000302
633 0.000302
634 0.000305
635 0.000308
636 0.000308
637 0.000304
638 0.000301
639 0.000298
640 0.000293
641 0.000291
642 0.000294
643 0.000299
644 0.000301
645 0.000299
646 0.000298
647 0.000297
648 0.000294
649 0.000290
650 0.000287
651 0.000283
652 0.000281
653 0.000279
654 0.000274
655 0.000270
656 0.000270
657 0.000267
658 0.000261
659 0.000259
660 0.000254
661 0.000251
662 0.000249
663 0.000249
664 0.000247
665 0.000249
666 0.000251
667 0.000248
668 0.000246
669 0.000248
670 0.000250
671 0.000250
672 0.000252
673 0.000256
674 0.000257
675 0.000261
676 0.000264
677 0.000265
678 0.000264
679 0.000263
680 0.000264
681 0.000262
682 0.000260
683 0.000256
684 0.000253
685 0.000249
686 0.000246
687 0.000244
688 0.000242
689 0.000240
690 0.000238
691 0.000235
692 0.000229
693 0.000225
694 0.000224
695 0.000225
696 0.000223
697 0.000220
698 0.000216
699 0.000215
700 0.000218
701 0.000217
702 0.000217
703 0.000217
704 0.000215
705 0.000216
706 0.000216
707 0.000218
708 0.000221
709 0.000224
710 0.000225
711 0.000226
712 0.000226
713 0.000230
714 0.000232
715 0.000232
716 0.000233
717 0.000235
718 0.000237
719 0.000241
720 0.000243
721 0.000249
722 0.000251
723 0.000253
724 0.000254
725 0.000255
726 0.000257
727 0.000260
728 0.000262
729 0.000265
730 0.000269
731 0.000274
732 0.000278
733 0.000280
734 0.000282
735 0.000283
736 0.000282
737 0.000280
738 0.000277
739 0.000278
740 0.000283
741 0.000284
742 0.000282
743 0.000281
744 0.000278
745 0.000272
746 0.000271
747 0.000272
748 0.000272
749 0.000271
750 0.000268
751 0.000270
752 0.000276
753 0.000274
754 0.000271
755 0.000272
756 0.000271
757 0.000271
758 0.000271
759 0.000272
760 0.000271
761 0.000269
762 0.000266
763 0.000262
764 0.000256
765 0.000251
766 0.000247
767 0.000241
768 0.000234
769 0.000228
770 0.000226
771 0.000225
772 0.000223
773 0.000222
774 0.000222
775 0.000220
776 0.000218
777 0.000217
778 0.000215
779 0.000215
780 0.000214
781 0.000211
782 0.000207
783 0.000208
784 0.000210
785 0.000209
786 0.000206
787 0.000204
788 0.000207
789 0.000209
790 0.000207
791 0.000205
792 0.000205
793 0.000205
794 0.000201
795 0.000199
796 0.000200
797 0.000202
798 0.000202
799 0.000200
800 0.000201
801 0.000203
802 0.000204
803 0.000203
804 0.000201
805 0.000202
806 0.000200
807 0.000198
808 0.000196
809 0.000195
