# i correlation
1 0.001801
2 0.001735
3 0.001693
4 0.001652
5 0.001619
6 0.001591
7 0.001562
8 0.001535
9 0.001509
10 0.001492
11 0.001468
12 0.001450
13 0.001439
14 0.001432
15 0.001427
16 0.001431
17 0.001430
18 0.001423
19 0.001423
20 0.001423
21 0.001414
22 0.001402
23 0.001384
24 0.001368
25 0.001353
26 0.001337
27 0.001323
28 0.001314
29 0.001310
30 0.001298
31 0.001284
32 0.001277
33 0.001269
34 0.001263
35 0.001253
36 0.001244
37 0.001232
38 0.001226
39 0.001213
40 0.001205
41 0.001193
42 0.001177
43 0.001166
44 0.001154
45 0.001140
46 0.001129
47 0.001116
48 0.001112
49 0.001112
50 0.001106
51 0.001100
52 0.001099
53 0.001100
54 0.001098
55 0.001096
56 0.001090
57 0.001087
58 0.001087
59 0.001091
60 0.001092
61 0.001088
62 0.001084
63 0.001086
64 0.001083
65 0.001082
66 0.001072
67 0.001050
68 0.001036
69 0.001034
70 0.001029
71 0.001024
72 0.001019
73 0.001021
74 0.001026
75 0.001028
76 0.001027
77 0.001021
78 0.001018
79 0.001024
80 0.001027
81 0.001031
82 0.001032
83 0.001031
84 0.001037
85 0.001050
86 0.001052
87 0.001051
88 0.001051
89 0.001048
90 0.001050
91 0.001053
92 0.001050
93 0.001052
94 0.001049
95 0.001048
96 0.001044
97 0.001039
98 0.001037
99 0.001032
100 0.001025
101 0.001018
102 0.001012
103 0.001006
104 0.000995
105 0.000986
106 0.000982
107 0.000979
108 0.000976
109 0.000976
110 0.000975
111 0.000971
112 0.000968
113 0.000967
114 0.000964
115 0.000955
116 0.000941
117 0.000932
118 0.000928
119 0.000931
120 0.000932
121 0.000924
122 0.000914
123 0.000907
124 0.000902
125 0.000894
126 0.000882
127 0.000873
128 0.000868
129 0.000860
130 0.000849
131 0.000839
132 0.000826
133 0.000816
134 0.000814
135 0.000809
136 0.000801
137 0.000796
138 0.000791
139 0.000790
140 0.000791
141 0.000791
142 0.000785
143 0.000778
144 0.000774
145 0.000772
146 0.000764
147 0.000748
148 0.000736
149 0.000724
150 0.000717
151 0.000708
152 0.000699
153 0.000695
154 0.000688
155 0.000680
156 0.000681
157 0.000677
158 0.000676
159 0.000675
160 0.000671
161 0.000668
162 0.000670
163 0.000665
164 0.000656
165 0.000653
166 0.000655
167 0.000653
168 0.000647
169 0.000634
170 0.000625
171 0.000622
172 0.000626
173 0.000628
174 0.000624
175 0.000630
176 0.000637
177 0.000639
178 0.000644
179 0.000646
180 0.000643
181 0.000645
182 0.000646
183 0.000647
184 0.000645
185 0.000644
186 0.000645
187 0.000641
188 0.000634
189 0.000629
190 0.000623
191 0.000617
192 0.000611
193 0.000604
194 0.000602
195 0.000595
196 0.000590
197 0.000592
198 0.000592
199 0.000596
200 0.000596
201 0.000597
202 0.000597
203 0.000595
204 0.000600
205 0.000610
206 0.000617
207 0.000623
208 0.000624
209 0.000628
210 0.000630
211 0.000636
212 0.000634
213 0.000628
214 0.000621
215 0.000618
216 0.000616
217 0.000609
218 0.000608
219 0.000613
220 0.000608
221 0.000610
222 0.000614
223 0.000608
224 0.000603
225 0.000604
226 0.000601
227 0.000600
228 0.000601
229 0.000592
230 0.000591
231 0.000598
232 0.000602
233 0.000602
234 0.000598
235 0.000588
236 0.000578
237 0.000577
238 0.000579
239 0.000581
240 0.000587
241 0.000598
242 0.000603
243 0.000605
244 0.000602
245 0.000600
246 0.000596
247 0.000597
248 0.000601
249 0.000601
250 0.000599
251 0.000598
252 0.000592
253 0.000588
254 0.000583
255 0.000577
256 0.000572
257 0.000569
258 0.000568
259 0.000570
260 0.000575
261 0.000582
262 0.000591
263 0.000593
264 0.000591
265 0.000591
266 0.000594
267 0.000594
268 0.000596
269 0.000600
270 0.000601
271 0.000604
272 0.000602
273 0.000596
274 0.000594
275 0.000590
276 0.000584
277 0.000581
278 0.000576
279 0.000572
280 0.000573
281 0.000579
282 0.000584
283 0.000581
284 0.000578
285 0.000579
286 0.000580
287 0.000576
288 0.000569
289 0.000559
290 0.000555
291 0.000556
292 0.000560
293 0.000557
294 0.000556
295 0.000559
296 0.000562
297 0.000567
298 0.000571
299 0.000575
300 0.000587
301 0.000591
302 0.000593
303 0.000592
304 0.000587
305 0.000582
306 0.000583
307 0.000585
308 0.000580
309 0.000573
310 0.000574
311 0.000572
312 0.000575
313 0.000574
314 0.000566
315 0.000561
316 0.000565
317 0.000570
318 0.000570
319 0.000564
320 0.000557
321 0.000550
322 0.000549
323 0.000545
324 0.000543
325 0.000542
326 0.000542
327 0.000545
328 0.000543
329 0.000538
330 0.000536
331 0.000535
332 0.000539
333 0.000546
334 0.000555
335 0.000564
336 0.000565
337 0.000564
338 0.000558
339 0.000553
340 0.000551
341 0.000550
342 0.000547
343 0.000550
344 0.000553
345 0.000549
346 0.000548
347 0.000547
348 0.000543
349 0.000539
350 0.000538
351 0.000539
352 0.000537
353 0.000533
354 0.000530
355 0.000527
356 0.000527
357 0.000527
358 0.000524
359 0.000520
360 0.000518
361 0.000517
362 0.000519
363 0.000522
364 0.000522
365 0.000521
366 0.000521
367 0.000521
368 0.000518
369 0.000514
370 0.000509
371 0.000509
372 0.000508
373 0.000505
374 0.000502
375 0.000498
376 0.000497
377 0.000501
378 0.000501
379 0.000495
380 0.000490
381 0.000490
382 0.000489
383 0.000487
384 0.000488
385 0.000486
386 0.000488
387 0.000494
388 0.000496
389 0.000494
390 0.000496
391 0.000505
392 0.000509
393 0.000511
394 0.000512
395 0.000512
396 0.000516
397 0.000520
398 0.000522
399 0.000523
400 0.000524
401 0.000523
402 0.000518
403 0.000519
404 0.000517
405 0.000509
406 0.000509
407 0.000512
408 0.000510
409 0.000516
410 0.000522
411 0.000523
412 0.000525
413 0.000522
414 0.000517
415 0.000515
416 0.000520
417 0.000520
418 0.000513
419 0.000508
420 0.000508
421 0.000505
422 0.000499
423 0.000495
424 0.000486
425 0.000482
426 0.000484
427 0.000480
428 0.000476
429 0.000469
430 0.000463
431 0.000455
432 0.000452
433 0.000448
434 0.000443
435 0.000440
436 0.000439
437 0.000442
438 0.000440
439 0.000433
440 0.000429
441 0.000429
442 0.000430
443 0.000429
444 0.000430
445 0.000434
446 0.000435
447 0.000440
448 0.000442
449 0.000441
450 0.000444
451 0.000447
452 0.000453
453 0.000458
454 0.000457
455 0.000456
456 0.000456
457 0.000457
458 0.000457
459 0.000452
460 0.000446
461 0.000446
462 0.000445
463 0.000444
464 0.000439
465 0.000435
466 0.000432
467 0.000428
468 0.000427
469 0.000423
470 0.000420
471 0.000417
472 0.000415
473 0.000416
474 0.000417
475 0.000422
476 0.000424
477 0.000425
478 0.000430
479 0.000432
480 0.000432
481 0.000433
482 0.000433
483 0.000433
484 0.000434
485 0.000436
486 0.000439
487 0.000440
488 0.000437
489 0.000438
490 0.000443
491 0.000453
492 0.000459
493 0.000463
494 0.000464
495 0.000462
496 0.000461
497 0.000465
498 0.000462
499 0.000461
500 0.000461
501 0.000461
502 0.000463
503 0.000465
504 0.000466
505 0.000464
506 0.000467
507 0.000473
508 0.000478
509 0.000480
510 0.000482
511 0.000490
512 0.000494
513 0.000497
514 0.000502
515 0.000503
516 0.000507
517 0.000505
518 0.000496
519 0.000490
520 0.000484
521 0.000480
522 0.000476
523 0.000474
524 0.000471
525 0.000467
526 0.000464
527 0.000459
528 0.000451
529 0.000441
530 0.000434
531 0.000434
532 0.000437
533 0.000438
534 0.000433
535 0.000428
536 0.000423
537 0.000418
538 0.000415
539 0.000409
540 0.000412
541 0.000415
542 0.000415
543 0.000419
544 0.000424
545 0.000425
546 0.000425
547 0.000419
548 0.000415
549 0.000415
550 0.000418
551 0.000412
552 0.000408
553 0.000403
554 0.000404
555 0.000401
556 0.000396
557 0.000391
558 0.000382
559 0.000369
560 0.000365
561 0.000359
562 0.000356
563 0.000355
564 0.000354
565 0.000356
566 0.000359
567 0.000355
568 0.000354
569 0.000352
570 0.000348
571 0.000345
572 0.000344
573 0.000345
574 0.000349
575 0.000352
576 0.000357
577 0.000362
578 0.000367
579 0.000370
580 0.000368
581 0.000366
582 0.000371
583 0.000370
584 0.000368
585 0.000367
586 0.000366
587 0.000363
588 0.000362
589 0.000361
590 0.000360
591 0.000352
592 0.000349
593 0.000350
594 0.000348
595 0.000348
596 0.000350
597 0.000354
598 0.000360
599 0.000362
600 0.000359
601 0.000356
602 0.000360
603 0.000365
604 0.000366
605 0.000368
606 0.000368
607 0.000363
608 0.000356
609 0.000356
610 0.000358
611 0.000359
612 0.000359
613 0.000357
614 0.000358
615 0.000355
616 0.000354
617 0.000355
618 0.000359
619 0.000361
620 0.000359
621 0.000353
622 0.000347
623 0.000342
624 0.000336
625 0.000332
626 0.000325
627 0.000318
628 0.000319
629 0.000322
630 0.000320
631 0.000324
632 0.000322
633 0.000321
634 0.000327
635 0.000335
636 0.000341
637 0.000348
638 0.000353
639 0.000358
640 0.000360
641 0.000362
642 0.000362
643 0.000362
644 0.000357
645 0.000354
646 0.000346
647 0.000341
648 0.000336
649 0.000332
650 0.000333
651 0.000333
652 0.000335
653 0.000337
654 0.000339
655 0.000337
656 0.000334
657 0.000334
658 0.000335
659 0.000334
660 0.000334
661 0.000334
662 0.000332
663 0.000336
664 0.000334
665 0.000332
666 0.000327
667 0.000322
668 0.000320
669 0.000321
670 0.000324
671 0.000324
672 0.000324
673 0.000325
674 0.000327
675 0.000327
676 0.000326
677 0.000332
678 0.000336
679 0.000339
680 0.000335
681 0.000329
682 0.000322
683 0.000320
684 0.000320
685 0.000318
686 0.000313
687 0.000309
688 0.000306
689 0.000303
690 0.000301
691 0.000302
692 0.000300
693 0.000296
694 0.000298
695 0.000298
696 0.000297
697 0.000296
698 0.000296
699 0.000295
700 0.000291
701 0.000286
702 0.000281
703 0.000281
704 0.000278
705 0.000271
706 0.000266
707 0.000259
708 0.000255
709 0.000251
710 0.000245
711 0.000240
712 0.000235
713 0.000235
714 0.000233
715 0.000228
716 0.000227
717 0.000229
718 0.000226
719 0.000226
720 0.000224
721 0.000221
722 0.000217
723 0.000221
724 0.000223
725 0.000224
726 0.000227
727 0.000229
728 0.000228
729 0.000223
730 0.000218
731 0.000211
732 0.000207
733 0.000207
734 0.000204
735 0.000202
736 0.000199
737 0.000193
738 0.000189
739 0.000186
740 0.000182
741 0.000178
742 0.000177
743 0.000177
744 0.000178
745 0.000178
746 0.000175
747 0.000175
748 0.000179
749 0.000181
750 0.000181
751 0.000181
752 0.000180
753 0.000181
754 0.000183
755 0.000190
756 0.000192
757 0.000194
758 0.000192
759 0.000192
760 0.000193
761 0.000192
762 0.000192
763 0.000195
764 0.000197
765 0.000200
766 0.000199
767 0.000195
768 0.000193
769 0.000190
770 0.000185
771 0.000180
772 0.000176
773 0.000174
774 0.000169
775 0.000164
776 0.000166
777 0.000168
778 0.000168
779 0.000167
780 0.000165
781 0.000162
782 0.000159
783 0.000158
784 0.000161
785 0.000166
786 0.000165
787 0.000166
788 0.000168
789 0.000169
790 0.000168
791 0.000167
792 0.000166
793 0.000164
794 0.000161
795 0.000158
796 0.000157
797 0.000158
798 0.000158
799 0.000156
800 0.000149
801 0.000145
802 0.000139
803 0.000135
804 0.000132
805 0.000131
806 0.000128
807 0.000125
808 0.000122
809 0.000121
