# i correlation
1 0.001828
2 0.001761
3 0.001706
4 0.001657
5 0.001622
6 0.001592
7 0.001566
8 0.001540
9 0.001521
10 0.001501
11 0.001485
12 0.001479
13 0.001475
14 0.001468
15 0.001454
16 0.001444
17 0.001431
18 0.001425
19 0.001431
20 0.001426
21 0.001418
22 0.001398
23 0.001378
24 0.001370
25 0.001361
26 0.001349
27 0.001335
28 0.001327
29 0.001319
30 0.001307
31 0.001295
32 0.001281
33 0.001271
34 0.001263
35 0.001245
36 0.001224
37 0.001212
38 0.001204
39 0.001202
40 0.001197
41 0.001189
42 0.001176
43 0.001164
44 0.001151
45 0.001144
46 0.001132
47 0.001120
48 0.001113
49 0.001112
50 0.001115
51 0.001116
52 0.001111
53 0.001112
54 0.001109
55 0.001101
56 0.001086
57 0.001081
58 0.001077
59 0.001074
60 0.001074
61 0.001066
62 0.001055
63 0.001036
64 0.001023
65 0.001008
66 0.000997
67 0.000989
68 0.000977
69 0.000975
70 0.000975
71 0.000968
72 0.000959
73 0.000952
74 0.000945
75 0.000940
76 0.000941
77 0.000936
78 0.000929
79 0.000930
80 0.000932
81 0.000927
82 0.000922
83 0.000913
84 0.000901
85 0.000893
86 0.000883
87 0.000867
88 0.000859
89 0.000857
90 0.000853
91 0.000854
92 0.000852
93 0.000845
94 0.000842
95 0.000846
96 0.000852
97 0.000848
98 0.000849
99 0.000848
100 0.000847
101 0.000839
102 0.000830
103 0.000823
104 0.000819
105 0.000817
106 0.000808
107 0.000795
108 0.000786
109 0.000782
110 0.000780
111 0.000775
112 0.000768
113 0.000764
114 0.000761
115 0.000762
116 0.000761
117 0.000753
118 0.000744
119 0.000745
120 0.000751
121 0.000757
122 0.000760
123 0.000760
124 0.000767
125 0.000767
126 0.000764
127 0.000760
128 0.000758
129 0.000765
130 0.000768
131 0.000760
132 0.000749
133 0.000742
134 0.000740
135 0.000740
136 0.000741
137 0.000739
138 0.000732
139 0.000736
140 0.000747
141 0.000758
142 0.000771
143 0.000782
144 0.000787
145 0.000793
146 0.000786
147 0.000776
148 0.000769
149 0.000769
150 0.000767
151 0.000764
152 0.000759
153 0.000754
154 0.000750
155 0.000748
156 0.000741
157 0.000739
158 0.000740
159 0.000742
160 0.000747
161 0.000752
162 0.000750
163 0.000751
164 0.000755
165 0.000752
166 0.000754
167 0.000754
168 0.000751
169 0.000747
170 0.000740
171 0.000731
172 0.000714
173 0.000708
174 0.000709
175 0.000713
176 0.000717
177 0.000717
178 0.000715
179 0.000715
180 0.000720
181 0.000728
182 0.000735
183 0.000737
184 0.000738
185 0.000736
186 0.000729
187 0.000720
188 0.000712
189 0.000707
190 0.000705
191 0.000702
192 0.000697
193 0.000689
194 0.000694
195 0.000698
196 0.000703
197 0.000701
198 0.000696
199 0.000687
200 0.000690
201 0.000699
202 0.000707
203 0.000710
204 0.000713
205 0.000715
206 0.000705
207 0.000695
208 0.000683
209 0.000674
210 0.000671
211 0.000666
212 0.000658
213 0.000654
214 0.000656
215 0.000665
216 0.000673
217 0.000672
218 0.000667
219 0.000664
220 0.000659
221 0.000659
222 0.000660
223 0.000659
224 0.000664
225 0.000660
226 0.000654
227 0.000642
228 0.000632
229 0.000625
230 0.000621
231 0.000615
232 0.000605
233 0.000600
234 0.000603
235 0.000608
236 0.000611
237 0.000609
238 0.000600
239 0.000595
240 0.000596
241 0.000596
242 0.000592
243 0.000596
244 0.000601
245 0.000609
246 0.000615
247 0.000622
248 0.000627
249 0.000632
250 0.000636
251 0.000630
252 0.000625
253 0.000615
254 0.000608
255 0.000607
256 0.000604
257 0.000603
258 0.000602
259 0.000600
260 0.000597
261 0.000592
262 0.000591
263 0.000587
264 0.000587
265 0.000589
266 0.000592
267 0.000596
268 0.000594
269 0.000597
270 0.000593
271 0.000586
272 0.000578
273 0.000570
274 0.000570
275 0.000567
276 0.000562
277 0.000559
278 0.000560
279 0.000561
280 0.000564
281 0.000562
282 0.000557
283 0.000554
284 0.000555
285 0.000553
286 0.000554
287 0.000551
288 0.000548
289 0.000545
290 0.000544
291 0.000545
292 0.000541
293 0.000543
294 0.000549
295 0.000549
296 0.000549
297 0.000550
298 0.000550
299 0.000542
300 0.000538
301 0.000535
302 0.000528
303 0.000528
304 0.000524
305 0.000521
306 0.000517
307 0.000519
308 0.000516
309 0.000512
310 0.000518
311 0.000522
312 0.000522
313 0.000520
314 0.000516
315 0.000513
316 0.000508
317 0.000501
318 0.000491
319 0.000489
320 0.000489
321 0.000493
322 0.000492
323 0.000486
324 0.000482
325 0.000476
326 0.000475
327 0.000473
328 0.000465
329 0.000459
330 0.000450
331 0.000442
332 0.000438
333 0.000428
334 0.000418
335 0.000416
336 0.000417
337 0.000409
338 0.000406
339 0.000405
340 0.000406
341 0.000406
342 0.000404
343 0.000398
344 0.000397
345 0.000412
346 0.000428
347 0.000434
348 0.000441
349 0.000445
350 0.000441
351 0.000440
352 0.000433
353 0.000426
354 0.000422
355 0.000422
356 0.000419
357 0.000416
358 0.000417
359 0.000420
360 0.000434
361 0.000445
362 0.000447
363 0.000447
364 0.000447
365 0.000450
366 0.000448
367 0.000445
368 0.000436
369 0.000429
370 0.000425
371 0.000425
372 0.000426
373 0.000428
374 0.000438
375 0.000442
376 0.000446
377 0.000448
378 0.000448
379 0.000453
380 0.000456
381 0.000452
382 0.000442
383 0.000431
384 0.000424
385 0.000420
386 0.000419
387 0.000416
388 0.000413
389 0.000414
390 0.000419
391 0.000423
392 0.000431
393 0.000444
394 0.000451
395 0.000454
396 0.000456
397 0.000459
398 0.000460
399 0.000465
400 0.000471
401 0.000472
402 0.000473
403 0.000472
404 0.000467
405 0.000467
406 0.000465
407 0.000466
408 0.000466
409 0.000469
410 0.000471
411 0.000472
412 0.000475
413 0.000475
414 0.000475
415 0.000479
416 0.000479
417 0.000476
418 0.000477
419 0.000482
420 0.000483
421 0.000486
422 0.000484
423 0.000480
424 0.000477
425 0.000477
426 0.000478
427 0.000478
428 0.000480
429 0.000476
430 0.000471
431 0.000472
432 0.000468
433 0.000463
434 0.000462
435 0.000456
436 0.000447
437 0.000442
438 0.000441
439 0.000442
440 0.000443
441 0.000446
442 0.000445
443 0.000442
444 0.000446
445 0.000450
446 0.000456
447 0.000464
448 0.000465
449 0.000466
450 0.000471
451 0.000476
452 0.000485
453 0.000492
454 0.000497
455 0.000496
456 0.000496
457 0.000492
458 0.000489
459 0.000481
460 0.000476
461 0.000471
462 0.000469
463 0.000464
464 0.000460
465 0.000457
466 0.000453
467 0.000445
468 0.000436
469 0.000434
470 0.000436
471 0.000441
472 0.000443
473 0.000442
474 0.000445
475 0.000446
476 0.000445
477 0.000437
478 0.000430
479 0.000420
480 0.000408
481 0.000405
482 0.000404
483 0.000397
484 0.000394
485 0.000396
486 0.000395
487 0.000391
488 0.000391
489 0.000392
490 0.000393
491 0.000395
492 0.000391
493 0.000386
494 0.000381
495 0.000388
496 0.000394
497 0.000400
498 0.000405
499 0.000408
500 0.000409
501 0.000411
502 0.000412
503 0.000415
504 0.000419
505 0.000422
506 0.000425
507 0.000425
508 0.000425
509 0.000426
510 0.000426
511 0.000423
512 0.000419
513 0.000415
514 0.000415
515 0.000420
516 0.000424
517 0.000429
518 0.000426
519 0.000423
520 0.000424
521 0.000425
522 0.000428
523 0.000431
524 0.000435
525 0.000433
526 0.000434
527 0.000434
528 0.000432
529 0.000435
530 0.000436
531 0.000436
532 0.000432
533 0.000423
534 0.000417
535 0.000414
536 0.000413
537 0.000411
538 0.000413
539 0.000412
540 0.000411
541 0.000409
542 0.000410
543 0.000415
544 0.000413
545 0.000413
546 0.000409
547 0.000405
548 0.000402
549 0.000400
550 0.000400
551 0.000402
552 0.000402
553 0.000397
554 0.000394
555 0.000396
556 0.000403
557 0.000404
558 0.000402
559 0.000397
560 0.000393
561 0.000391
562 0.000389
563 0.000387
564 0.000387
565 0.000384
566 0.000378
567 0.000369
568 0.000362
569 0.000357
570 0.000352
571 0.000349
572 0.000341
573 0.000335
574 0.000326
575 0.000320
576 0.000320
577 0.000323
578 0.000323
579 0.000322
580 0.000322
581 0.000321
582 0.000320
583 0.000317
584 0.000313
585 0.000307
586 0.000302
587 0.000291
588 0.000277
589 0.000267
590 0.000261
591 0.000260
592 0.000255
593 0.000251
594 0.000249
595 0.000251
596 0.000252
597 0.000253
598 0.000257
599 0.000258
600 0.000256
601 0.000255
602 0.000250
603 0.000247
604 0.000243
605 0.000244
606 0.000242
607 0.000241
608 0.000235
609 0.000229
610 0.000226
611 0.000225
612 0.000222
613 0.000219
614 0.000216
615 0.000214
616 0.000213
617 0.000207
618 0.000202
619 0.000196
620 0.000192
621 0.000185
622 0.000176
623 0.000171
624 0.000165
625 0.000159
626 0.000156
627 0.000151
628 0.000143
629 0.000137
630 0.000130
631 0.000125
632 0.000120
633 0.000118
634 0.000112
635 0.000110
636 0.000111
637 0.000111
638 0.000109
639 0.000109
640 0.000109
641 0.000108
642 0.000109
643 0.000108
644 0.000106
645 0.000102
646 0.000096
647 0.000090
648 0.000087
649 0.000084
650 0.000082
651 0.000078
652 0.000077
653 0.000075
654 0.000069
655 0.000067
656 0.000070
657 0.000072
658 0.000074
659 0.000075
660 0.000076
661 0.000073
662 0.000071
663 0.000069
664 0.000069
665 0.000070
666 0.000072
667 0.000073
668 0.000077
669 0.000081
670 0.000082
671 0.000088
672 0.000096
673 0.000101
674 0.000106
675 0.000110
676 0.000113
677 0.000119
678 0.000127
679 0.000129
680 0.000125
681 0.000123
682 0.000121
683 0.000116
684 0.000113
685 0.000114
686 0.000118
687 0.000123
688 0.000125
689 0.000127
690 0.000131
691 0.000133
692 0.000133
693 0.000137
694 0.000136
695 0.000140
696 0.000142
697 0.000145
698 0.000149
699 0.000153
700 0.000156
701 0.000160
702 0.000163
703 0.000164
704 0.000161
705 0.000160
706 0.000164
707 0.000166
708 0.000165
709 0.000165
710 0.000165
711 0.000166
712 0.000167
713 0.000166
714 0.000162
715 0.000158
716 0.000153
717 0.000146
718 0.000139
719 0.000140
720 0.000143
721 0.000149
722 0.000157
723 0.000162
724 0.000170
725 0.000176
726 0.000178
727 0.000178
728 0.000176
729 0.000174
730 0.000167
731 0.000163
732 0.000162
733 0.000162
734 0.000158
735 0.000155
736 0.000154
737 0.000153
738 0.000152
739 0.000153
740 0.000155
741 0.000157
742 0.000157
743 0.000157
744 0.000159
745 0.000162
746 0.000165
747 0.000167
748 0.000169
749 0.000165
750 0.000165
751 0.000162
752 0.000163
753 0.000163
754 0.000160
755 0.000157
756 0.000156
757 0.000152
758 0.000150
759 0.000147
760 0.000146
761 0.000146
762 0.000144
763 0.000142
764 0.000141
765 0.000140
766 0.000138
767 0.000136
768 0.000132
769 0.000127
770 0.000122
771 0.000117
772 0.000115
773 0.000114
774 0.000113
775 0.000111
776 0.000105
777 0.000100
778 0.000096
779 0.000093
780 0.000091
781 0.000086
782 0.000085
783 0.000080
784 0.000077
785 0.000071
786 0.000067
787 0.000063
788 0.000055
789 0.000046
790 0.000039
791 0.000034
792 0.000028
793 0.000027
794 0.000023
795 0.000021
796 0.000019
797 0.000013
798 0.000008
799 0.000007
800 0.000005
801 0.000006
802 0.000007
803 0.000007
804 0.000007
805 0.000008
806 0.000009
807 0.000011
808 0.000013
809 0.000014
