# i correlation
1 0.015157
2 0.012589
3 0.010648
4 0.008709
5 0.007187
6 0.006007
7 0.005364
8 0.004890
9 0.004451
10 0.003970
11 0.003583
12 0.003179
13 0.002871
14 0.002758
15 0.002304
16 0.002034
17 0.001867
18 0.001660
19 0.001396
20 0.001031
21 0.000870
22 0.000763
23 0.000770
24 0.000891
25 0.000621
26 0.000506
27 0.000679
28 0.001004
29 0.001060
30 0.001194
31 0.001630
32 0.001691
33 0.001305
34 0.000970
35 0.000593
36 0.000194
37 -0.000236
38 -0.000743
39 -0.000922
40 -0.000986
41 -0.000942
42 -0.000997
43 -0.001034
44 -0.000993
45 -0.000600
46 -0.000417
47 -0.000130
48 -0.000131
49 -0.000222
50 -0.000218
51 -0.000355
52 -0.000228
53 0.000097
54 0.000278
55 0.000457
56 0.000583
57 0.000318
58 0.000297
59 0.000579
60 0.000909
61 0.001155
62 0.001557
63 0.001725
64 0.001557
65 0.001551
66 0.001396
67 0.001153
68 0.000658
69 0.000343
70 -0.000124
71 -0.000306
72 -0.000243
73 -0.000231
74 -0.000338
75 -0.000533
76 -0.000585
77 -0.000449
78 -0.000717
79 -0.000936
80 -0.001047
81 -0.001188
82 -0.001180
83 -0.000869
84 -0.000470
85 -0.000280
86 -0.000294
87 -0.000336
88 -0.000701
89 -0.001034
90 -0.000907
91 -0.000705
92 -0.000669
93 -0.000555
94 -0.000596
95 -0.000520
96 -0.000538
97 -0.000713
98 -0.000666
99 -0.000438
100 -0.000215
101 -0.000146
102 -0.000001
103 0.000086
104 0.000065
105 -0.000121
106 -0.000278
107 -0.000444
108 -0.000586
109 -0.000590
110 -0.000443
111 -0.000538
112 -0.000400
113 -0.000068
114 0.000412
115 0.000614
116 0.000755
117 0.000886
118 0.001209
119 0.001379
120 0.001498
121 0.001381
122 0.001202
123 0.001126
124 0.000809
125 0.000194
126 -0.000252
127 -0.000348
128 -0.000446
129 -0.000486
130 -0.000475
131 -0.000284
132 0.000021
133 0.000161
134 0.000103
135 -0.000219
136 -0.000711
137 -0.001010
138 -0.001268
139 -0.001635
140 -0.001814
141 -0.001980
142 -0.002158
143 -0.002054
144 -0.002012
145 -0.001521
146 -0.001151
147 -0.000801
148 -0.000392
149 -0.000353
150 -0.000341
151 -0.000127
152 -0.000155
153 -0.000189
154 -0.000053
155 -0.000097
156 -0.000152
157 -0.000267
158 -0.000448
159 -0.000191
160 -0.000160
161 -0.000014
162 0.000099
163 0.000211
164 0.000517
165 0.000842
166 0.001048
167 0.001039
168 0.001164
169 0.001027
170 0.000894
171 0.000606
172 0.000066
173 -0.000384
174 -0.000663
175 -0.000667
176 -0.000242
177 0.000286
178 0.000861
179 0.001466
180 0.001731
181 0.001667
182 0.001940
183 0.002055
184 0.001916
185 0.002092
186 0.002333
187 0.002433
188 0.002504
189 0.002310
190 0.002293
191 0.002191
192 0.002073
193 0.002247
194 0.002289
195 0.002219
196 0.002354
197 0.002318
198 0.002093
199 0.001705
200 0.001082
201 0.000506
202 -0.000033
203 -0.000784
204 -0.001266
205 -0.001655
206 -0.001889
207 -0.002071
208 -0.002334
209 -0.002571
210 -0.002444
211 -0.002219
212 -0.002283
213 -0.002226
214 -0.001993
215 -0.001794
216 -0.001663
217 -0.001417
218 -0.001213
219 -0.001189
220 -0.001151
221 -0.001069
222 -0.000933
223 -0.001003
224 -0.001042
225 -0.000749
226 -0.000853
227 -0.000987
228 -0.000858
229 -0.001137
230 -0.001217
231 -0.001338
232 -0.001403
233 -0.001279
234 -0.001409
235 -0.001447
236 -0.001607
237 -0.001647
238 -0.001604
239 -0.001557
240 -0.001710
241 -0.001827
242 -0.001650
243 -0.001525
244 -0.001473
245 -0.001444
246 -0.001119
247 -0.000877
248 -0.000698
249 -0.000318
