# i correlation
1 0.013414
2 0.010951
3 0.008709
4 0.006977
5 0.005578
6 0.004405
7 0.003544
8 0.002921
9 0.002426
10 0.001954
11 0.001520
12 0.000946
13 0.000135
14 -0.000240
15 -0.000573
16 -0.000619
17 -0.000912
18 -0.000661
19 -0.000639
20 -0.000949
21 -0.001058
22 -0.001042
23 -0.000990
24 -0.001073
25 -0.001195
26 -0.001379
27 -0.001269
28 -0.001001
29 -0.000587
30 -0.000305
31 -0.000270
32 -0.000093
33 -0.000199
34 -0.000386
35 -0.000532
36 -0.000391
37 -0.000157
38 0.000228
39 0.000344
40 0.000446
41 0.000593
42 0.000952
43 0.001087
44 0.001526
45 0.001477
46 0.001440
47 0.001413
48 0.001683
49 0.001807
50 0.001690
51 0.001301
52 0.001130
53 0.000895
54 0.000837
55 0.000714
56 0.000543
57 0.000418
58 0.000059
59 -0.000483
60 -0.001041
61 -0.001494
62 -0.001725
63 -0.001837
64 -0.001923
65 -0.001903
66 -0.001721
67 -0.001164
68 -0.000895
69 -0.000661
70 -0.000494
71 -0.000524
72 -0.000251
73 -0.000034
74 0.000110
75 0.000235
76 0.000465
77 0.000610
78 0.000206
79 0.000222
80 0.000417
81 0.000543
82 0.000823
83 0.001006
84 0.000968
85 0.000874
86 0.000828
87 0.000646
88 0.000350
89 0.000012
90 -0.000139
91 -0.000175
92 -0.000100
93 -0.000258
94 -0.000332
95 -0.000395
96 -0.000218
97 -0.000249
98 -0.000116
99 0.000275
100 0.000718
101 0.000734
102 0.000655
103 0.000483
104 0.000417
105 0.000556
106 0.000617
107 0.000681
108 0.000673
109 0.000501
110 0.000562
111 0.000867
112 0.001016
113 0.001002
114 0.001186
115 0.000999
116 0.001086
117 0.000779
118 0.000578
119 0.000515
120 0.000159
121 -0.000131
122 -0.000106
123 -0.000194
124 -0.000129
125 -0.000208
126 -0.000552
127 -0.000636
128 -0.000673
129 -0.000475
130 -0.000492
131 -0.000740
132 -0.000810
133 -0.000924
134 -0.001041
135 -0.001127
136 -0.001033
137 -0.001216
138 -0.001183
139 -0.001401
140 -0.001552
141 -0.001758
142 -0.001810
143 -0.001621
144 -0.001594
145 -0.001316
146 -0.000841
147 -0.000192
148 0.000446
149 0.000919
150 0.001209
151 0.001512
152 0.001700
153 0.001940
154 0.002187
155 0.002122
156 0.002140
157 0.002051
158 0.001648
159 0.001465
160 0.001155
161 0.000751
162 0.000167
163 -0.000079
164 0.000014
165 -0.000120
166 -0.000263
167 -0.000506
168 -0.000643
169 -0.000992
170 -0.001266
171 -0.001643
172 -0.001752
173 -0.001919
174 -0.002113
175 -0.002059
176 -0.001894
177 -0.001604
178 -0.001259
179 -0.001009
180 -0.000838
181 -0.000825
182 -0.000588
183 -0.000433
184 -0.000409
185 -0.000317
186 -0.000183
187 0.000044
188 0.000094
189 -0.000040
190 -0.000372
191 -0.000315
192 -0.000249
193 -0.000313
194 -0.000262
195 -0.000008
196 0.000334
197 0.001027
198 0.001371
199 0.001687
200 0.001818
201 0.002028
202 0.001988
203 0.001948
204 0.001963
205 0.001992
206 0.001787
207 0.001570
208 0.001378
209 0.001326
210 0.001213
211 0.000844
212 0.000468
213 0.000041
214 -0.000478
215 -0.000729
216 -0.000695
217 -0.000945
218 -0.001035
219 -0.000937
220 -0.000814
221 -0.000397
222 -0.000189
223 0.000328
224 0.000341
225 0.000380
226 0.000391
227 0.000472
228 0.000609
229 0.000439
230 0.000585
231 0.000606
232 0.000548
233 0.000817
234 0.000969
235 0.001229
236 0.001145
237 0.000866
238 0.000543
239 0.000275
240 -0.000152
241 -0.000412
242 -0.000706
243 -0.000679
244 -0.000737
245 -0.000860
246 -0.001154
247 -0.001359
248 -0.001755
249 -0.001783
