# i correlation
1 0.019439
2 0.016552
3 0.014436
4 0.012573
5 0.011157
6 0.009870
7 0.008839
8 0.007967
9 0.007331
10 0.007122
11 0.006965
12 0.006450
13 0.005978
14 0.005544
15 0.005427
16 0.005275
17 0.004970
18 0.004419
19 0.003782
20 0.003213
21 0.002943
22 0.002432
23 0.002135
24 0.001995
25 0.001817
26 0.002271
27 0.002615
28 0.002862
29 0.003302
30 0.003508
31 0.003617
32 0.003616
33 0.003166
34 0.002842
35 0.002643
36 0.002620
37 0.002751
38 0.002964
39 0.003260
40 0.003263
41 0.003135
42 0.002963
43 0.002642
44 0.002660
45 0.002501
46 0.002506
47 0.002446
48 0.002586
49 0.002713
50 0.002988
51 0.002919
52 0.002629
53 0.002230
54 0.001601
55 0.001354
56 0.001230
57 0.001375
58 0.001393
59 0.001433
60 0.001511
61 0.001458
62 0.001238
63 0.001305
64 0.001323
65 0.001334
66 0.001507
67 0.001828
68 0.001980
69 0.002108
70 0.002256
71 0.002393
72 0.002274
73 0.002294
74 0.002279
75 0.002211
76 0.002631
77 0.003244
78 0.003773
79 0.003939
80 0.004037
81 0.003955
82 0.003738
83 0.003710
84 0.003541
85 0.002936
86 0.002507
87 0.002554
88 0.002596
89 0.002404
90 0.002099
91 0.001748
92 0.001645
93 0.001686
94 0.001711
95 0.001505
96 0.001190
97 0.000925
98 0.000510
99 0.000644
100 0.000738
101 0.000468
102 0.000397
103 0.000535
104 0.000770
105 0.001179
106 0.001510
107 0.001874
108 0.002109
109 0.002421
110 0.002454
111 0.002270
112 0.002111
113 0.001848
114 0.001485
115 0.001256
116 0.001268
117 0.001368
118 0.001635
119 0.002015
120 0.002398
121 0.002612
122 0.002646
123 0.002868
124 0.002985
125 0.003005
126 0.002969
127 0.003418
128 0.003716
129 0.003503
130 0.003310
131 0.003184
132 0.002899
133 0.002294
134 0.001848
135 0.001405
136 0.001170
137 0.000974
138 0.000924
139 0.000831
140 0.000575
141 0.000290
142 -0.000003
143 -0.000082
144 0.000141
145 0.000248
146 0.000274
147 0.000301
148 0.000001
149 -0.000415
150 -0.000931
151 -0.001325
152 -0.001921
153 -0.002413
154 -0.002525
155 -0.002355
156 -0.002152
157 -0.001632
158 -0.001373
159 -0.001334
160 -0.000853
161 -0.000482
162 -0.000306
163 -0.000077
164 -0.000029
165 -0.000125
166 -0.000245
167 -0.000096
168 0.000231
169 0.000096
170 -0.000123
171 -0.000241
172 -0.000474
173 -0.000437
174 -0.000369
175 -0.000237
176 0.000124
177 0.000402
178 0.000718
179 0.000633
180 0.000593
181 0.000496
182 0.000613
183 0.000822
184 0.000980
185 0.001137
186 0.001242
187 0.001550
188 0.001801
189 0.001973
190 0.001963
191 0.001879
192 0.001723
193 0.001583
194 0.001601
195 0.001838
196 0.002078
197 0.002326
198 0.002482
199 0.002679
200 0.002669
201 0.002616
202 0.002432
203 0.002126
204 0.001876
205 0.001774
206 0.001953
207 0.002393
208 0.002754
209 0.002623
210 0.002370
211 0.002270
212 0.002430
213 0.002450
214 0.002382
215 0.002442
216 0.002557
217 0.002709
218 0.002899
219 0.002987
220 0.002944
221 0.002791
222 0.002266
223 0.001849
224 0.001906
225 0.001989
226 0.001994
227 0.002029
228 0.001989
229 0.002019
230 0.001977
231 0.001827
232 0.001703
233 0.001530
234 0.001457
235 0.001626
236 0.001689
237 0.001607
238 0.001033
239 0.000881
240 0.000886
241 0.000661
242 0.000307
243 -0.000112
244 -0.000127
245 -0.000141
246 -0.000081
247 0.000167
248 0.000297
249 0.000295
