# i correlation
1 0.018893
2 0.016500
3 0.014160
4 0.012463
5 0.011038
6 0.009774
7 0.009081
8 0.008365
9 0.007528
10 0.006577
11 0.005865
12 0.005181
13 0.004251
14 0.003523
15 0.002314
16 0.001595
17 0.001103
18 0.000607
19 0.000553
20 0.000407
21 0.000546
22 0.000629
23 0.000329
24 0.000181
25 0.000210
26 0.000322
27 0.000088
28 -0.000277
29 -0.000510
30 -0.000882
31 -0.001186
32 -0.001087
33 -0.000841
34 -0.000601
35 -0.000589
36 -0.000610
37 -0.000940
38 -0.001090
39 -0.001318
40 -0.001490
41 -0.001367
42 -0.001201
43 -0.001135
44 -0.001222
45 -0.001061
46 -0.000842
47 -0.000688
48 -0.000124
49 0.000172
50 0.000459
51 0.000345
52 0.000745
53 0.000997
54 0.001263
55 0.001520
56 0.001738
57 0.002094
58 0.002025
59 0.002199
60 0.002219
61 0.002371
62 0.002446
63 0.002388
64 0.002176
65 0.001988
66 0.001952
67 0.001676
68 0.001528
69 0.001233
70 0.001136
71 0.001232
72 0.001169
73 0.001158
74 0.001504
75 0.001766
76 0.001786
77 0.001860
78 0.002252
79 0.002750
80 0.002948
81 0.003311
82 0.003887
83 0.004453
84 0.005065
85 0.005277
86 0.005376
87 0.005284
88 0.005176
89 0.004766
90 0.004344
91 0.004152
92 0.003954
93 0.003757
94 0.003325
95 0.003079
96 0.002886
97 0.002720
98 0.002652
99 0.002378
100 0.002268
101 0.002395
102 0.002612
103 0.002997
104 0.003425
105 0.004057
106 0.004279
107 0.004347
108 0.003922
109 0.003878
110 0.003991
111 0.003942
112 0.004052
113 0.003966
114 0.003939
115 0.003893
116 0.004070
117 0.004174
118 0.004204
119 0.004140
120 0.003972
121 0.003611
122 0.002930
123 0.002473
124 0.001660
125 0.000935
126 0.000284
127 0.000293
128 0.000020
129 -0.000412
130 -0.001188
131 -0.001533
132 -0.001934
133 -0.002229
134 -0.002478
135 -0.002737
136 -0.002888
137 -0.003063
138 -0.002516
139 -0.001849
140 -0.001339
141 -0.000824
142 -0.000493
143 -0.000198
144 0.000104
145 0.000451
146 0.000696
147 0.000916
148 0.001279
149 0.001699
150 0.002116
151 0.001993
152 0.002261
153 0.002488
154 0.002702
155 0.003064
156 0.003046
157 0.003039
158 0.003010
159 0.003147
160 0.003078
161 0.002980
162 0.003290
163 0.003659
164 0.003847
165 0.003806
166 0.003936
167 0.004045
168 0.004053
169 0.004029
170 0.004131
171 0.004277
172 0.004172
173 0.004244
174 0.004153
175 0.004016
176 0.003970
177 0.004089
178 0.003946
179 0.003784
180 0.003676
181 0.003367
182 0.002897
183 0.002280
184 0.002273
185 0.002262
186 0.002147
187 0.002216
188 0.002250
189 0.002118
190 0.001922
191 0.002183
192 0.002355
193 0.002493
194 0.002560
195 0.002612
196 0.002740
197 0.002685
198 0.002570
199 0.002614
200 0.002547
201 0.002438
202 0.002189
203 0.002111
204 0.001933
205 0.002048
206 0.002163
207 0.002346
208 0.002027
209 0.001738
210 0.001520
211 0.001089
212 0.000702
213 0.000415
214 0.000137
215 0.000075
216 -0.000178
217 -0.000264
218 -0.000364
219 -0.000438
220 -0.000621
221 -0.000524
222 -0.000490
223 -0.000394
224 -0.000303
225 -0.000178
226 0.000360
227 0.000552
228 0.000601
229 0.000822
230 0.000983
231 0.001016
232 0.001082
233 0.001275
234 0.001455
235 0.001326
236 0.001122
237 0.001135
238 0.000962
239 0.000854
240 0.000602
241 0.000530
242 0.000321
243 0.000245
244 0.000123
245 0.000012
246 -0.000149
247 -0.000165
248 0.000026
249 0.000222
