# i correlation
1 0.019428
2 0.016665
3 0.014475
4 0.012678
5 0.011062
6 0.010037
7 0.008954
8 0.008139
9 0.007603
10 0.007038
11 0.006653
12 0.006069
13 0.005745
14 0.005264
15 0.004813
16 0.004116
17 0.003280
18 0.002732
19 0.002376
20 0.002282
21 0.002302
22 0.002488
23 0.002452
24 0.002704
25 0.002571
26 0.002610
27 0.002652
28 0.002755
29 0.002682
30 0.002482
31 0.002549
32 0.002760
33 0.002796
34 0.002902
35 0.003027
36 0.002890
37 0.002778
38 0.002393
39 0.002194
40 0.002082
41 0.001909
42 0.001784
43 0.001966
44 0.002190
45 0.002197
46 0.002359
47 0.002714
48 0.003031
49 0.003002
50 0.003066
51 0.003284
52 0.003192
53 0.002955
54 0.002608
55 0.002294
56 0.002184
57 0.002011
58 0.001773
59 0.001635
60 0.001372
61 0.001084
62 0.000897
63 0.000873
64 0.000526
65 0.000218
66 0.000123
67 -0.000009
68 -0.000648
69 -0.001238
70 -0.001584
71 -0.001723
72 -0.001610
73 -0.001431
74 -0.001294
75 -0.001386
76 -0.001365
77 -0.001404
78 -0.001402
79 -0.001259
80 -0.001044
81 -0.001181
82 -0.001075
83 -0.000837
84 -0.000912
85 -0.000789
86 -0.000488
87 -0.000356
88 -0.000446
89 -0.000686
90 -0.001185
91 -0.001695
92 -0.002010
93 -0.002381
94 -0.002537
95 -0.002482
96 -0.002410
97 -0.002553
98 -0.002676
99 -0.002742
100 -0.002791
101 -0.002926
102 -0.002990
103 -0.003210
104 -0.003490
105 -0.003870
106 -0.003796
107 -0.003315
108 -0.002943
109 -0.002335
110 -0.001690
111 -0.001093
112 -0.001097
113 -0.001179
114 -0.001216
115 -0.001319
116 -0.001477
117 -0.001653
118 -0.001728
119 -0.001743
120 -0.001481
121 -0.001588
122 -0.001816
123 -0.002121
124 -0.002298
125 -0.002132
126 -0.002151
127 -0.002601
128 -0.003181
129 -0.003670
130 -0.003738
131 -0.003301
132 -0.003151
133 -0.003045
134 -0.003051
135 -0.003109
136 -0.002925
137 -0.002608
138 -0.002174
139 -0.001536
140 -0.000856
141 -0.000440
142 -0.000213
143 -0.000086
144 -0.000190
145 -0.000335
146 -0.000102
147 -0.000017
148 0.000094
149 0.000049
150 -0.000132
151 -0.000274
152 -0.000004
153 0.000301
154 0.000587
155 0.000848
156 0.000661
157 0.000408
158 0.000131
159 0.000058
160 -0.000026
161 -0.000097
162 0.000174
163 0.000335
164 0.000429
165 0.000883
166 0.001178
167 0.001238
168 0.001277
169 0.001092
170 0.000841
171 0.000576
172 0.000421
173 0.000316
174 0.000311
175 0.000212
176 0.000274
177 0.000110
178 -0.000075
179 -0.000471
180 -0.000982
181 -0.001527
182 -0.001716
183 -0.001902
184 -0.001817
185 -0.001930
186 -0.001938
187 -0.001838
188 -0.001688
189 -0.001531
190 -0.001451
191 -0.001272
192 -0.000862
193 -0.000621
194 -0.000509
195 -0.000374
196 -0.000249
197 0.000167
198 0.000565
199 0.001069
200 0.001593
201 0.001787
202 0.001932
203 0.002154
204 0.002297
205 0.002556
206 0.002561
207 0.002377
208 0.002286
209 0.002154
210 0.002167
211 0.002255
212 0.002213
213 0.002240
214 0.002514
215 0.002639
216 0.002561
217 0.001999
218 0.001722
219 0.001553
220 0.001429
221 0.001361
222 0.001499
223 0.001386
224 0.001309
225 0.001276
226 0.001240
227 0.001359
228 0.001536
229 0.001683
230 0.001398
231 0.001204
232 0.001255
233 0.001331
234 0.001319
235 0.001306
236 0.001377
237 0.001241
238 0.001102
239 0.000939
240 0.001090
241 0.000821
242 0.000450
243 0.000127
244 -0.000117
245 -0.000325
246 -0.000459
247 -0.000570
248 -0.000613
249 -0.000287
