# i correlation
1 0.022149
2 0.019274
3 0.016521
4 0.014334
5 0.012575
6 0.011584
7 0.010965
8 0.010252
9 0.010101
10 0.009559
11 0.008695
12 0.007829
13 0.007015
14 0.005942
15 0.004964
16 0.004530
17 0.003936
18 0.003695
19 0.003525
20 0.003464
21 0.003226
22 0.003116
23 0.002780
24 0.002335
25 0.001941
26 0.001886
27 0.002153
28 0.002587
29 0.003119
30 0.003520
31 0.003728
32 0.003795
33 0.003539
34 0.003241
35 0.002866
36 0.002927
37 0.003001
38 0.003178
39 0.003518
40 0.003870
41 0.003900
42 0.003745
43 0.003429
44 0.002974
45 0.002947
46 0.002874
47 0.002892
48 0.002809
49 0.002549
50 0.001965
51 0.001399
52 0.001238
53 0.000817
54 0.000560
55 0.000548
56 0.000832
57 0.000791
58 0.001218
59 0.001686
60 0.002022
61 0.002338
62 0.002356
63 0.002106
64 0.001926
65 0.002037
66 0.002147
67 0.002318
68 0.002827
69 0.003380
70 0.003970
71 0.004178
72 0.004380
73 0.004177
74 0.004356
75 0.004478
76 0.004540
77 0.004907
78 0.005389
79 0.005209
80 0.005022
81 0.004932
82 0.004757
83 0.004724
84 0.004917
85 0.005325
86 0.005287
87 0.005499
88 0.005759
89 0.005993
90 0.006307
91 0.006758
92 0.006967
93 0.006916
94 0.006466
95 0.005918
96 0.005521
97 0.005471
98 0.005387
99 0.005324
100 0.005084
101 0.005140
102 0.004956
103 0.004591
104 0.004168
105 0.003718
106 0.003383
107 0.003329
108 0.003277
109 0.003140
110 0.002525
111 0.002074
112 0.001382
113 0.000855
114 0.000739
115 0.000608
116 0.000552
117 0.000698
118 0.001020
119 0.001399
120 0.001429
121 0.001585
122 0.001648
123 0.002139
124 0.002232
125 0.002300
126 0.002071
127 0.001567
128 0.001121
129 0.000950
130 0.001228
131 0.001236
132 0.001267
133 0.001211
134 0.001064
135 0.000737
136 0.000628
137 0.000415
138 0.000166
139 0.000235
140 -0.000079
141 -0.000284
142 -0.000664
143 -0.000830
144 -0.000931
145 -0.000736
146 -0.000415
147 -0.000216
148 0.000011
149 0.000199
150 0.000229
151 -0.000075
152 -0.000376
153 -0.000852
154 -0.001027
155 -0.000723
156 -0.000285
157 0.000048
158 0.000404
159 0.001137
160 0.001500
161 0.001859
162 0.001958
163 0.002035
164 0.001957
165 0.002328
166 0.002804
167 0.003192
168 0.003301
169 0.003196
170 0.003177
171 0.002943
172 0.002681
173 0.002067
174 0.001258
175 0.000875
176 0.000721
177 0.000925
178 0.001175
179 0.001590
180 0.001641
181 0.001443
182 0.000865
183 0.000269
184 -0.000303
185 -0.000660
186 -0.000685
187 -0.000595
188 -0.000428
189 0.000148
190 0.000358
191 0.000453
192 0.000508
193 0.000570
194 0.000521
195 0.000485
196 0.000380
197 0.000187
198 -0.000128
199 -0.000251
200 -0.000277
201 -0.000307
202 -0.000748
203 -0.000884
204 -0.000883
205 -0.000735
206 -0.000443
207 -0.000166
208 0.000044
209 -0.000227
210 -0.000479
211 -0.000972
212 -0.001473
213 -0.001677
214 -0.001874
215 -0.001751
216 -0.001371
217 -0.000893
218 -0.000739
219 -0.000707
220 -0.000847
221 -0.000979
222 -0.001193
223 -0.001199
224 -0.001002
225 -0.000942
226 -0.000783
227 -0.000422
228 0.000155
229 0.000705
230 0.000917
231 0.001028
232 0.001105
233 0.001340
234 0.001253
235 0.001342
236 0.001467
237 0.001941
238 0.002290
239 0.002328
240 0.002109
241 0.001645
242 0.001151
243 0.000430
244 -0.000114
245 -0.000678
246 -0.001206
247 -0.001534
248 -0.001374
249 -0.000982
