# i correlation
1 0.022185
2 0.019382
3 0.016991
4 0.015221
5 0.013999
6 0.013202
7 0.012506
8 0.012073
9 0.011221
10 0.010525
11 0.009623
12 0.008874
13 0.008443
14 0.007978
15 0.007694
16 0.007638
17 0.007513
18 0.007190
19 0.006660
20 0.006438
21 0.005958
22 0.005379
23 0.005305
24 0.005088
25 0.004957
26 0.004636
27 0.004247
28 0.003753
29 0.003095
30 0.002527
31 0.002098
32 0.002006
33 0.002217
34 0.002380
35 0.002494
36 0.002594
37 0.002567
38 0.002353
39 0.002148
40 0.002119
41 0.002942
42 0.003562
43 0.003866
44 0.003916
45 0.003858
46 0.003631
47 0.003594
48 0.003347
49 0.003447
50 0.003375
51 0.003415
52 0.003791
53 0.004040
54 0.004232
55 0.004024
56 0.003573
57 0.003013
58 0.002220
59 0.001811
60 0.001596
61 0.001595
62 0.001626
63 0.001545
64 0.001642
65 0.001810
66 0.001770
67 0.001976
68 0.001695
69 0.001320
70 0.001375
71 0.001249
72 0.000990
73 0.000568
74 0.000399
75 0.000469
76 0.000519
77 0.000993
78 0.001359
79 0.001405
80 0.001702
81 0.001443
82 0.001397
83 0.001547
84 0.001530
85 0.001846
86 0.001984
87 0.001924
88 0.001898
89 0.001945
90 0.002064
91 0.002209
92 0.001900
93 0.002074
94 0.002170
95 0.002358
96 0.002499
97 0.002686
98 0.002778
99 0.002824
100 0.002904
101 0.003299
102 0.003674
103 0.003913
104 0.004220
105 0.004514
106 0.005212
107 0.005888
108 0.006508
109 0.006960
110 0.007292
111 0.007375
112 0.007265
113 0.007043
114 0.006808
115 0.006498
116 0.006290
117 0.006074
118 0.005875
119 0.005852
120 0.005857
121 0.005920
122 0.005825
123 0.005633
124 0.005478
125 0.005216
126 0.004893
127 0.004784
128 0.004481
129 0.004579
130 0.004595
131 0.004620
132 0.004504
133 0.004267
134 0.003997
135 0.003383
136 0.002766
137 0.002682
138 0.002602
139 0.002148
140 0.001771
141 0.001332
142 0.001154
143 0.001102
144 0.000931
145 0.000762
146 0.000231
147 -0.000095
148 -0.000336
149 -0.000673
150 -0.000665
151 -0.000620
152 -0.000470
153 -0.000540
154 -0.000529
155 -0.000678
156 -0.000754
157 -0.000612
158 -0.000197
159 -0.000079
160 0.000138
161 0.000246
162 0.000207
163 0.000354
164 0.000202
165 0.000211
166 0.000241
167 -0.000121
168 -0.000010
169 -0.000106
170 -0.000251
171 -0.000025
172 0.000007
173 -0.000090
174 -0.000095
175 0.000061
176 0.000540
177 0.000707
178 0.000970
179 0.001065
180 0.000913
181 0.000731
182 0.000507
183 0.000169
184 0.000131
185 0.000331
186 0.000547
187 0.000530
188 0.000356
189 0.000129
190 -0.000429
191 -0.000346
192 -0.000389
193 -0.000138
194 -0.000191
195 -0.000153
196 -0.000330
197 -0.000575
198 -0.000830
199 -0.000854
200 -0.000840
201 -0.000702
202 -0.000683
203 -0.000908
204 -0.001057
205 -0.000816
206 -0.000679
207 -0.000623
208 -0.000412
209 -0.000062
210 -0.000017
211 0.000023
212 0.000394
213 0.000635
214 0.000642
215 0.000779
216 0.001067
217 0.001600
218 0.002297
219 0.002939
220 0.003784
221 0.004298
222 0.004725
223 0.005053
224 0.005043
225 0.005175
226 0.005189
227 0.005238
228 0.005407
229 0.005455
230 0.005451
231 0.005500
232 0.005594
233 0.005795
234 0.005607
235 0.005346
236 0.005250
237 0.004868
238 0.004758
239 0.004652
240 0.004489
241 0.004533
242 0.004522
243 0.004694
244 0.004546
245 0.004413
246 0.004211
247 0.004046
248 0.003814
249 0.003791
