# i correlation
1 0.014186
2 0.011403
3 0.009627
4 0.008240
5 0.007513
6 0.006926
7 0.006325
8 0.005742
9 0.005236
10 0.004858
11 0.004485
12 0.003877
13 0.003178
14 0.002932
15 0.003063
16 0.002859
17 0.002799
18 0.002728
19 0.002762
20 0.003046
21 0.002830
22 0.002338
23 0.001824
24 0.001415
25 0.001575
26 0.002010
27 0.001914
28 0.001656
29 0.001692
30 0.001552
31 0.001526
32 0.001791
33 0.001827
34 0.001583
35 0.001607
36 0.001435
37 0.001460
38 0.001120
39 0.000652
40 0.000924
41 0.000954
42 0.000663
43 0.000406
44 0.000294
45 0.000052
46 0.000019
47 0.000061
48 0.000006
49 -0.000019
50 0.000009
51 -0.000027
52 0.000082
53 0.000238
54 0.000512
55 0.000911
56 0.001207
57 0.001313
58 0.001743
59 0.002002
60 0.002097
61 0.002181
62 0.002151
63 0.002259
64 0.001998
65 0.001768
66 0.001852
67 0.001808
68 0.001849
69 0.002080
70 0.001986
71 0.001892
72 0.002034
73 0.002297
74 0.002031
75 0.001976
76 0.002055
77 0.001879
78 0.001785
79 0.001573
80 0.001492
81 0.001638
82 0.001568
83 0.001463
84 0.001478
85 0.001466
86 0.001437
87 0.001277
88 0.001299
89 0.001497
90 0.001677
91 0.001847
92 0.001871
93 0.001766
94 0.001607
95 0.001746
96 0.002097
97 0.002247
98 0.002157
99 0.002074
100 0.002095
101 0.002185
102 0.002235
103 0.002149
104 0.002036
105 0.001565
106 0.001352
107 0.001693
108 0.002214
109 0.002313
110 0.002490
111 0.002500
112 0.002195
113 0.002470
114 0.002409
115 0.002067
116 0.001960
117 0.002301
118 0.002673
119 0.002878
120 0.002582
121 0.002435
122 0.002386
123 0.002536
124 0.002588
125 0.002453
126 0.002451
127 0.002330
128 0.002546
129 0.002748
130 0.003019
131 0.003142
132 0.003162
133 0.003239
134 0.003249
135 0.002546
136 0.002233
137 0.002020
138 0.001869
139 0.002026
140 0.001841
141 0.001430
142 0.000623
143 0.000216
144 0.000349
145 0.000414
146 0.000203
147 -0.000272
148 -0.000483
149 -0.000736
150 -0.000777
151 -0.000545
152 -0.000306
153 -0.000020
154 0.000210
155 0.000191
156 0.000088
157 -0.000129
158 -0.000262
159 -0.000088
160 -0.000237
161 -0.000519
162 -0.000919
163 -0.001048
164 -0.001199
165 -0.001082
166 -0.000891
167 -0.000498
168 -0.000487
169 -0.000571
170 -0.000612
171 -0.000607
172 -0.000368
173 -0.000199
174 -0.000131
175 -0.000464
176 -0.000650
177 -0.000489
178 -0.000718
179 -0.000806
180 -0.000765
181 -0.000744
182 -0.000736
183 -0.000572
184 -0.000499
185 -0.000494
186 -0.000217
187 0.000062
188 0.000219
189 0.000581
190 0.000825
191 0.001093
192 0.001556
193 0.001548
194 0.001450
195 0.001114
196 0.000743
197 0.000653
198 0.000535
199 0.000782
200 0.000982
201 0.000922
202 0.000693
203 0.000660
204 0.000542
205 0.000254
206 0.000125
207 0.000066
208 -0.000091
209 -0.000049
210 0.000096
211 0.000227
212 0.000242
213 -0.000088
214 -0.000191
215 -0.000480
216 -0.001044
217 -0.001249
218 -0.001431
219 -0.001480
220 -0.001385
221 -0.001338
222 -0.001340
223 -0.001401
224 -0.001429
225 -0.001392
226 -0.001217
227 -0.000962
228 -0.000804
229 -0.000746
230 -0.000660
231 -0.000691
232 -0.000566
233 -0.000650
234 -0.000863
235 -0.001215
236 -0.001173
237 -0.001226
238 -0.001309
239 -0.001614
240 -0.001701
241 -0.001567
242 -0.001722
243 -0.001812
244 -0.002005
245 -0.001939
246 -0.001937
247 -0.001731
248 -0.001511
249 -0.001437
