# i correlation
1 0.020968
2 0.018215
3 0.016105
4 0.014366
5 0.013045
6 0.011797
7 0.010260
8 0.008926
9 0.007886
10 0.007194
11 0.006520
12 0.005894
13 0.005168
14 0.004495
15 0.003885
16 0.003391
17 0.002770
18 0.002234
19 0.001540
20 0.000878
21 0.000416
22 -0.000094
23 -0.000454
24 -0.000592
25 -0.000701
26 -0.000473
27 -0.000238
28 -0.000140
29 -0.000085
30 -0.000202
31 -0.000386
32 -0.000422
33 -0.000506
34 -0.000753
35 -0.000993
36 -0.001076
37 -0.001082
38 -0.001156
39 -0.001165
40 -0.001597
41 -0.002284
42 -0.002420
43 -0.002673
44 -0.002536
45 -0.002390
46 -0.002731
47 -0.002809
48 -0.002914
49 -0.002964
50 -0.002719
51 -0.002579
52 -0.002244
53 -0.001858
54 -0.001649
55 -0.001355
56 -0.001315
57 -0.001347
58 -0.001346
59 -0.001410
60 -0.001577
61 -0.001514
62 -0.001180
63 -0.000741
64 -0.000274
65 0.000254
66 0.000845
67 0.001506
68 0.002214
69 0.002774
70 0.002964
71 0.003148
72 0.003307
73 0.003253
74 0.003209
75 0.003376
76 0.003051
77 0.002712
78 0.002590
79 0.002298
80 0.001994
81 0.002135
82 0.002380
83 0.002241
84 0.002523
85 0.002973
86 0.003092
87 0.003195
88 0.003077
89 0.003110
90 0.003181
91 0.003417
92 0.003713
93 0.003669
94 0.003703
95 0.003589
96 0.003260
97 0.003067
98 0.002791
99 0.002569
100 0.002252
101 0.002023
102 0.001777
103 0.001655
104 0.001591
105 0.001442
106 0.001266
107 0.001575
108 0.001785
109 0.001767
110 0.001756
111 0.001908
112 0.001945
113 0.002031
114 0.002215
115 0.002408
116 0.002280
117 0.002301
118 0.002248
119 0.002340
120 0.002658
121 0.003025
122 0.003328
123 0.003524
124 0.003933
125 0.004247
126 0.004305
127 0.004344
128 0.003990
129 0.003808
130 0.003443
131 0.003040
132 0.002736
133 0.002678
134 0.002590
135 0.002641
136 0.002698
137 0.002928
138 0.003093
139 0.003323
140 0.003414
141 0.003658
142 0.003656
143 0.003621
144 0.003452
145 0.003202
146 0.002682
147 0.002525
148 0.002443
149 0.002187
150 0.002133
151 0.002116
152 0.001927
153 0.001887
154 0.002062
155 0.001698
156 0.001320
157 0.001217
158 0.000889
159 0.000820
160 0.000588
161 0.000504
162 0.000461
163 0.000659
164 0.000614
165 0.000482
166 0.000460
167 0.000283
168 0.000035
169 0.000376
170 0.000551
171 0.000611
172 0.000610
173 0.000369
174 0.000171
175 -0.000097
176 -0.000154
177 -0.000103
178 -0.000114
179 -0.000154
180 -0.000127
181 -0.000008
182 0.000036
183 0.000049
184 -0.000233
185 -0.000688
186 -0.001186
187 -0.001554
188 -0.001828
189 -0.001696
190 -0.001311
191 -0.001178
192 -0.000920
193 -0.000485
194 -0.000365
195 -0.000182
196 -0.000016
197 0.000192
198 0.000458
199 0.000957
200 0.001427
201 0.001762
202 0.002203
203 0.002429
204 0.002612
205 0.002601
206 0.002706
207 0.002718
208 0.002855
209 0.003147
210 0.003527
211 0.003839
212 0.003997
213 0.003792
214 0.003724
215 0.003511
216 0.003607
217 0.003476
218 0.003372
219 0.003249
220 0.003160
221 0.002904
222 0.002913
223 0.002535
224 0.002111
225 0.001791
226 0.001684
227 0.001483
228 0.001205
229 0.001314
230 0.001451
231 0.001644
232 0.002104
233 0.002214
234 0.002236
235 0.002201
236 0.002359
237 0.002543
238 0.002838
239 0.003007
240 0.003259
241 0.003432
242 0.003389
243 0.003090
244 0.002986
245 0.003056
246 0.003462
247 0.003669
248 0.003853
249 0.003715
