# i correlation
1 0.017552
2 0.014637
3 0.012086
4 0.009848
5 0.007889
6 0.006333
7 0.005184
8 0.004145
9 0.003445
10 0.002773
11 0.001786
12 0.001300
13 0.001030
14 0.000490
15 -0.000004
16 -0.000212
17 -0.000469
18 -0.000587
19 -0.000693
20 -0.000808
21 -0.000959
22 -0.000927
23 -0.000835
24 -0.000788
25 -0.000895
26 -0.000902
27 -0.001064
28 -0.001341
29 -0.001575
30 -0.001605
31 -0.001994
32 -0.002324
33 -0.002730
34 -0.002747
35 -0.002858
36 -0.002751
37 -0.002511
38 -0.002087
39 -0.001819
40 -0.001459
41 -0.001300
42 -0.001052
43 -0.000569
44 0.000060
45 0.000516
46 0.000801
47 0.000987
48 0.001031
49 0.000980
50 0.000859
51 0.000583
52 0.000582
53 0.000785
54 0.000825
55 0.000813
56 0.000815
57 0.000670
58 0.000242
59 -0.000688
60 -0.001354
61 -0.001557
62 -0.001502
63 -0.001363
64 -0.000968
65 -0.000728
66 -0.000352
67 -0.000101
68 0.000341
69 0.000554
70 0.000578
71 0.000283
72 -0.000009
73 -0.000497
74 -0.000533
75 -0.000292
76 0.000143
77 0.000518
78 0.000638
79 0.000830
80 0.001120
81 0.001008
82 0.000676
83 0.000397
84 0.000181
85 0.000121
86 0.000248
87 0.000350
88 0.000562
89 0.000791
90 0.000991
91 0.001239
92 0.001433
93 0.001591
94 0.001796
95 0.002235
96 0.002744
97 0.003076
98 0.003374
99 0.003463
100 0.003368
101 0.003283
102 0.003132
103 0.002828
104 0.002316
105 0.001863
106 0.001758
107 0.001550
108 0.001137
109 0.000577
110 0.000238
111 -0.000151
112 -0.000440
113 -0.000646
114 -0.000756
115 -0.001049
116 -0.001284
117 -0.001447
118 -0.001323
119 -0.001218
120 -0.000895
121 -0.000712
122 -0.000671
123 -0.000234
124 0.000126
125 0.000668
126 0.001319
127 0.001989
128 0.002417
129 0.002504
130 0.002428
131 0.002241
132 0.002083
133 0.001857
134 0.001566
135 0.001045
136 0.000701
137 0.000576
138 0.000618
139 0.000361
140 0.000184
141 0.000419
142 0.000430
143 0.000700
144 0.001141
145 0.001179
146 0.001164
147 0.001293
148 0.001376
149 0.001301
150 0.001198
151 0.001144
152 0.000966
153 0.001061
154 0.001001
155 0.000600
156 0.000164
157 -0.000128
158 -0.000605
159 -0.001150
160 -0.001587
161 -0.002069
162 -0.002438
163 -0.002533
164 -0.002278
165 -0.001833
166 -0.001486
167 -0.001124
168 -0.000930
169 -0.001228
170 -0.001382
171 -0.001191
172 -0.000945
173 -0.000656
174 -0.000414
175 0.000031
176 0.000454
177 0.000639
178 0.000931
179 0.000950
180 0.000901
181 0.000800
182 0.000583
183 0.000512
184 0.000510
185 0.000326
186 0.000011
187 -0.000135
188 -0.000345
189 -0.000772
190 -0.001268
191 -0.001718
192 -0.001787
193 -0.001899
194 -0.001639
195 -0.001456
196 -0.001446
197 -0.001318
198 -0.000967
199 -0.000770
200 -0.000564
201 -0.000344
202 0.000020
203 0.000092
204 0.000183
205 0.000278
206 0.000344
207 0.000503
208 0.000479
209 0.000465
210 0.000644
211 0.000687
212 0.000735
213 0.000569
214 0.000267
215 0.000272
216 0.000103
217 0.000008
218 0.000145
219 0.000526
220 0.001006
221 0.001494
222 0.002179
223 0.002805
224 0.003479
225 0.003873
226 0.003871
227 0.003635
228 0.003338
229 0.003094
230 0.002831
231 0.002567
232 0.002315
233 0.002115
234 0.001844
235 0.001511
236 0.001438
237 0.001265
238 0.001074
239 0.001184
240 0.001124
241 0.000942
242 0.000654
243 0.000240
244 0.000150
245 0.000140
246 0.000269
247 0.000331
248 0.000350
249 0.000201
