# i correlation
1 0.018279
2 0.015789
3 0.013581
4 0.011884
5 0.010648
6 0.009497
7 0.008468
8 0.007780
9 0.007227
10 0.006537
11 0.006164
12 0.005880
13 0.005790
14 0.005714
15 0.005601
16 0.005600
17 0.005481
18 0.005481
19 0.005432
20 0.005374
21 0.005142
22 0.005049
23 0.004783
24 0.004489
25 0.004018
26 0.003459
27 0.003169
28 0.002991
29 0.003116
30 0.002892
31 0.002759
32 0.002448
33 0.002161
34 0.002144
35 0.002132
36 0.002052
37 0.001899
38 0.002037
39 0.002161
40 0.002530
41 0.002700
42 0.002781
43 0.002812
44 0.003071
45 0.003437
46 0.003746
47 0.004107
48 0.004160
49 0.004315
50 0.004180
51 0.004049
52 0.003817
53 0.003572
54 0.003613
55 0.003638
56 0.003520
57 0.003585
58 0.003829
59 0.003829
60 0.003779
61 0.003670
62 0.003264
63 0.003191
64 0.003177
65 0.003198
66 0.002765
67 0.002464
68 0.002565
69 0.002911
70 0.003135
71 0.003210
72 0.003422
73 0.003631
74 0.003317
75 0.002920
76 0.002598
77 0.002573
78 0.002481
79 0.002412
80 0.002518
81 0.002541
82 0.002553
83 0.002534
84 0.002501
85 0.002473
86 0.002467
87 0.002377
88 0.002099
89 0.002004
90 0.002040
91 0.002218
92 0.002226
93 0.002268
94 0.002438
95 0.002580
96 0.002843
97 0.003022
98 0.003186
99 0.003473
100 0.003476
101 0.003420
102 0.003457
103 0.003626
104 0.004091
105 0.004359
106 0.004534
107 0.004597
108 0.004208
109 0.003742
110 0.003158
111 0.002834
112 0.002516
113 0.002614
114 0.002637
115 0.002626
116 0.002618
117 0.002438
118 0.002493
119 0.002626
120 0.003013
121 0.003279
122 0.003516
123 0.003611
124 0.003557
125 0.003530
126 0.003710
127 0.004054
128 0.004419
129 0.004670
130 0.004661
131 0.004658
132 0.004244
133 0.003958
134 0.003626
135 0.003318
136 0.003110
137 0.002901
138 0.003019
139 0.002938
140 0.002758
141 0.002640
142 0.002620
143 0.002397
144 0.002064
145 0.002128
146 0.002016
147 0.001795
148 0.001589
149 0.001533
150 0.001634
151 0.001900
152 0.001992
153 0.001688
154 0.001509
155 0.001565
156 0.001338
157 0.001194
158 0.001046
159 0.001109
160 0.000957
161 0.000641
162 0.000574
163 0.000675
164 0.000708
165 0.000589
166 0.000420
167 0.000425
168 0.000837
169 0.001213
170 0.001518
171 0.001854
172 0.001922
173 0.001926
174 0.002128
175 0.001905
176 0.002163
177 0.002355
178 0.002430
179 0.002337
180 0.002154
181 0.001825
182 0.001382
183 0.001280
184 0.001209
185 0.001093
186 0.001198
187 0.001304
188 0.001409
189 0.001503
190 0.001490
191 0.001469
192 0.001436
193 0.001357
194 0.000792
195 0.000476
196 0.000200
197 0.000252
198 0.000267
199 0.000292
200 0.000233
201 0.000155
202 0.000017
203 0.000117
204 0.000324
205 0.000338
206 0.000393
207 0.000404
208 0.000655
209 0.000925
210 0.001373
211 0.001822
212 0.001990
213 0.002019
214 0.001875
215 0.001658
216 0.001562
217 0.001535
218 0.001579
219 0.001601
220 0.001618
221 0.001266
222 0.001258
223 0.001393
224 0.001614
225 0.001718
226 0.001917
227 0.002341
228 0.002614
229 0.002770
230 0.002646
231 0.002671
232 0.002751
233 0.002598
234 0.002332
235 0.002131
236 0.001985
237 0.001946
238 0.001696
239 0.001627
240 0.001363
241 0.001073
242 0.001187
243 0.001148
244 0.001140
245 0.001167
246 0.001277
247 0.001303
248 0.001505
249 0.001552
