# i correlation
1 0.016318
2 0.013617
3 0.011584
4 0.010099
5 0.008665
6 0.007359
7 0.006427
8 0.006184
9 0.005826
10 0.005263
11 0.004651
12 0.004581
13 0.004099
14 0.003571
15 0.003028
16 0.002605
17 0.002495
18 0.002206
19 0.001795
20 0.001602
21 0.001476
22 0.001500
23 0.001528
24 0.001452
25 0.001447
26 0.001845
27 0.002216
28 0.002461
29 0.002829
30 0.003325
31 0.003928
32 0.004502
33 0.004722
34 0.004768
35 0.004492
36 0.004333
37 0.004028
38 0.003886
39 0.003740
40 0.003806
41 0.003856
42 0.003670
43 0.003647
44 0.003270
45 0.003026
46 0.002963
47 0.002966
48 0.002780
49 0.003007
50 0.003066
51 0.002838
52 0.002541
53 0.002407
54 0.002057
55 0.002225
56 0.002330
57 0.002433
58 0.002430
59 0.002296
60 0.002148
61 0.002326
62 0.002512
63 0.002600
64 0.002492
65 0.002508
66 0.002650
67 0.002758
68 0.002637
69 0.002911
70 0.003186
71 0.003029
72 0.002977
73 0.003043
74 0.002731
75 0.002656
76 0.002584
77 0.002166
78 0.001581
79 0.001433
80 0.001555
81 0.001820
82 0.001904
83 0.001808
84 0.001810
85 0.001931
86 0.001799
87 0.001499
88 0.001144
89 0.000967
90 0.000675
91 0.000520
92 0.000113
93 -0.000039
94 0.000041
95 0.000040
96 0.000106
97 0.000181
98 0.000435
99 0.000880
100 0.000813
101 0.000775
102 0.001211
103 0.001713
104 0.001913
105 0.001903
106 0.001949
107 0.002009
108 0.002032
109 0.001577
110 0.001321
111 0.001175
112 0.001367
113 0.001622
114 0.001875
115 0.001893
116 0.002078
117 0.002243
118 0.002533
119 0.002873
120 0.002954
121 0.002895
122 0.002521
123 0.002329
124 0.002021
125 0.002121
126 0.002194
127 0.002221
128 0.001936
129 0.001676
130 0.001276
131 0.001246
132 0.001160
133 0.001045
134 0.001085
135 0.001305
136 0.001541
137 0.001804
138 0.001999
139 0.002426
140 0.002522
141 0.002194
142 0.001801
143 0.001548
144 0.001485
145 0.001525
146 0.001563
147 0.001405
148 0.001250
149 0.001014
150 0.000793
151 0.000883
152 0.001132
153 0.001467
154 0.001712
155 0.002156
156 0.002772
157 0.003172
158 0.003302
159 0.003243
160 0.003327
161 0.003415
162 0.002902
163 0.002528
164 0.002377
165 0.002447
166 0.002450
167 0.002384
168 0.002543
169 0.002865
170 0.003104
171 0.002954
172 0.002684
173 0.002508
174 0.002431
175 0.001896
176 0.001503
177 0.001155
178 0.000925
179 0.000841
180 0.000552
181 0.000193
182 -0.000004
183 -0.000175
184 -0.000256
185 -0.000374
186 -0.000118
187 0.000166
188 0.000606
189 0.001100
190 0.001338
191 0.001395
192 0.001373
193 0.001260
194 0.001517
195 0.001629
196 0.001775
197 0.001894
198 0.001938
199 0.001783
200 0.001528
201 0.001762
202 0.002323
203 0.002730
204 0.002906
205 0.003039
206 0.003482
207 0.003703
208 0.003743
209 0.003579
210 0.003420
211 0.003394
212 0.003276
213 0.002973
214 0.002922
215 0.002927
216 0.002917
217 0.002716
218 0.002594
219 0.002402
220 0.002236
221 0.001970
222 0.001800
223 0.001655
224 0.001407
225 0.001316
226 0.001497
227 0.001613
228 0.001687
229 0.001718
230 0.001670
231 0.001513
232 0.001383
233 0.001208
234 0.001239
235 0.001103
236 0.001118
237 0.001484
238 0.002042
239 0.002562
240 0.002905
241 0.003173
242 0.003198
243 0.003266
244 0.003187
245 0.003238
246 0.003658
247 0.003794
248 0.003638
249 0.003548
