# i correlation
1 0.017133
2 0.014669
3 0.013264
4 0.011864
5 0.010560
6 0.009303
7 0.008399
8 0.007389
9 0.006186
10 0.005099
11 0.004141
12 0.003336
13 0.002672
14 0.002182
15 0.001641
16 0.001109
17 0.000867
18 0.000381
19 0.000071
20 0.000006
21 0.000133
22 0.000236
23 0.000182
24 0.000295
25 0.000248
26 0.000104
27 -0.000069
28 -0.000477
29 -0.000810
30 -0.000948
31 -0.001109
32 -0.001196
33 -0.001567
34 -0.001559
35 -0.001515
36 -0.001491
37 -0.001754
38 -0.001950
39 -0.002001
40 -0.001696
41 -0.001192
42 -0.000986
43 -0.000939
44 -0.001045
45 -0.001297
46 -0.001211
47 -0.000716
48 -0.000454
49 -0.000328
50 -0.000144
51 -0.000285
52 -0.000371
53 -0.000316
54 -0.000252
55 -0.000512
56 -0.000732
57 -0.000712
58 -0.000903
59 -0.001124
60 -0.001534
61 -0.001694
62 -0.001938
63 -0.002166
64 -0.002460
65 -0.002918
66 -0.002879
67 -0.002752
68 -0.002942
69 -0.002758
70 -0.002418
71 -0.002170
72 -0.001783
73 -0.001405
74 -0.001230
75 -0.001139
76 -0.001268
77 -0.001092
78 -0.001191
79 -0.001473
80 -0.001507
81 -0.001752
82 -0.001835
83 -0.001835
84 -0.001955
85 -0.002039
86 -0.002370
87 -0.002519
88 -0.002573
89 -0.002731
90 -0.002780
91 -0.002580
92 -0.002537
93 -0.002119
94 -0.001737
95 -0.001611
96 -0.001274
97 -0.000800
98 -0.000382
99 0.000105
100 0.000538
101 0.001035
102 0.001156
103 0.001046
104 0.001090
105 0.000866
106 0.000560
107 0.000331
108 0.000483
109 0.000189
110 -0.000054
111 -0.000292
112 -0.000166
113 0.000122
114 0.000393
115 0.000300
116 0.000163
117 0.000190
118 0.000275
119 0.000329
120 0.000674
121 0.000894
122 0.000984
123 0.001280
124 0.001359
125 0.001791
126 0.002035
127 0.002255
128 0.002160
129 0.002156
130 0.002299
131 0.002156
132 0.002019
133 0.001496
134 0.001208
135 0.001045
136 0.001013
137 0.000890
138 0.000785
139 0.000781
140 0.000664
141 0.000481
142 0.000232
143 0.000097
144 0.000078
145 -0.000039
146 0.000019
147 0.000405
148 0.000712
149 0.000645
150 0.000588
151 0.000598
152 0.000847
153 0.000624
154 0.000593
155 0.000353
156 0.000054
157 -0.000271
158 -0.000641
159 -0.000986
160 -0.000991
161 -0.001032
162 -0.001348
163 -0.001645
164 -0.002102
165 -0.002649
166 -0.003072
167 -0.003431
168 -0.003681
169 -0.003909
170 -0.003863
171 -0.003691
172 -0.003461
173 -0.003003
174 -0.002479
175 -0.002255
176 -0.002043
177 -0.001604
178 -0.001161
179 -0.000490
180 -0.000241
181 -0.000218
182 0.000173
183 0.000211
184 0.000568
185 0.000491
186 0.000466
187 0.000646
188 0.000619
189 0.000453
190 0.000222
191 0.000023
192 -0.000036
193 -0.000308
194 -0.000387
195 -0.000155
196 0.000052
197 0.000138
198 0.000102
199 0.000303
200 0.000612
201 0.000716
202 0.000733
203 0.000756
204 0.000732
205 0.000531
206 0.000267
207 0.000034
208 -0.000144
209 -0.000427
210 -0.000806
211 -0.001233
212 -0.001691
213 -0.001975
214 -0.001937
215 -0.002137
216 -0.002153
217 -0.002308
218 -0.002500
219 -0.002930
220 -0.003227
221 -0.003042
222 -0.002950
223 -0.003043
224 -0.002655
225 -0.002303
226 -0.001798
227 -0.001143
228 -0.000841
229 -0.000511
230 -0.000273
231 0.000031
232 0.000033
233 0.000099
234 -0.000040
235 0.000066
236 0.000074
237 0.000056
238 0.000314
239 0.000369
240 0.000222
241 0.000068
242 -0.000033
243 -0.000082
244 -0.000109
245 -0.000147
246 0.000034
247 -0.000236
248 -0.000374
249 -0.000144
