# i correlation
1 0.015632
2 0.012983
3 0.010654
4 0.008569
5 0.007198
6 0.006081
7 0.005392
8 0.004708
9 0.004316
10 0.003946
11 0.003513
12 0.003214
13 0.003016
14 0.002531
15 0.002057
16 0.001512
17 0.000879
18 0.000324
19 -0.000013
20 -0.000089
21 -0.000331
22 -0.000342
23 -0.000236
24 -0.000130
25 -0.000258
26 -0.000525
27 -0.000892
28 -0.001049
29 -0.001062
30 -0.001176
31 -0.001471
32 -0.001689
33 -0.001561
34 -0.001172
35 -0.000736
36 -0.000490
37 -0.000348
38 -0.000356
39 -0.000643
40 -0.000988
41 -0.001146
42 -0.000949
43 -0.000892
44 -0.000832
45 -0.000970
46 -0.001123
47 -0.001169
48 -0.001252
49 -0.001190
50 -0.000750
51 -0.000480
52 -0.000216
53 -0.000015
54 0.000342
55 0.000772
56 0.000864
57 0.000984
58 0.001036
59 0.001159
60 0.001412
61 0.001529
62 0.001913
63 0.002318
64 0.002787
65 0.002901
66 0.002943
67 0.003009
68 0.002918
69 0.002760
70 0.002738
71 0.002739
72 0.002397
73 0.002163
74 0.002002
75 0.001777
76 0.001318
77 0.001133
78 0.000929
79 0.000676
80 0.000918
81 0.000978
82 0.000729
83 0.000565
84 0.000425
85 0.000524
86 0.000797
87 0.001186
88 0.001245
89 0.001033
90 0.000974
91 0.000782
92 0.001014
93 0.001534
94 0.001841
95 0.002271
96 0.002230
97 0.002227
98 0.002291
99 0.002046
100 0.001776
101 0.001589
102 0.001514
103 0.001326
104 0.001003
105 0.000753
106 0.000533
107 0.000325
108 -0.000190
109 -0.000515
110 -0.000876
111 -0.001385
112 -0.001628
113 -0.001594
114 -0.001632
115 -0.001419
116 -0.000971
117 -0.000387
118 -0.000197
119 -0.000152
120 -0.000217
121 -0.000275
122 -0.000448
123 -0.000643
124 -0.000621
125 -0.000433
126 -0.000364
127 -0.000241
128 -0.000042
129 0.000240
130 0.000676
131 0.001294
132 0.001874
133 0.002199
134 0.002581
135 0.002781
136 0.002669
137 0.002694
138 0.002307
139 0.002092
140 0.001961
141 0.001983
142 0.001922
143 0.001548
144 0.001513
145 0.001560
146 0.001314
147 0.000901
148 0.000711
149 0.000477
150 0.000493
151 0.000829
152 0.001081
153 0.001265
154 0.001428
155 0.001593
156 0.001355
157 0.001301
158 0.001268
159 0.001238
160 0.001259
161 0.001352
162 0.001314
163 0.001087
164 0.000831
165 0.000554
166 0.000184
167 0.000046
168 -0.000063
169 -0.000101
170 -0.000061
171 -0.000219
172 -0.000418
173 -0.000450
174 -0.000569
175 -0.000485
176 -0.000458
177 -0.000611
178 -0.000991
179 -0.001502
180 -0.001761
181 -0.002065
182 -0.002322
183 -0.002421
184 -0.002578
185 -0.002632
186 -0.002784
187 -0.002660
188 -0.002296
189 -0.001903
190 -0.001513
191 -0.001386
192 -0.001253
193 -0.001462
194 -0.001428
195 -0.001372
196 -0.000999
197 -0.000505
198 -0.000024
199 0.000544
200 0.001059
201 0.001495
202 0.001587
203 0.001758
204 0.001929
205 0.002079
206 0.001973
207 0.001916
208 0.001867
209 0.001925
210 0.001957
211 0.001968
212 0.002219
213 0.002299
214 0.002209
215 0.002079
216 0.001900
217 0.001742
218 0.001854
219 0.002136
220 0.002284
221 0.002146
222 0.002051
223 0.001985
224 0.001632
225 0.001342
226 0.000845
227 0.000736
228 0.000519
229 0.000330
230 0.000335
231 0.000107
232 0.000186
233 0.000326
234 0.000412
235 0.000559
236 0.000648
237 0.000856
238 0.000867
239 0.000926
240 0.000841
241 0.000370
242 -0.000012
243 -0.000400
244 -0.000711
245 -0.001048
246 -0.001344
247 -0.001163
248 -0.001304
249 -0.001443
