# i correlation
1 0.019351
2 0.016511
3 0.014283
4 0.012237
5 0.010466
6 0.008879
7 0.007927
8 0.007325
9 0.006653
10 0.006114
11 0.005891
12 0.005563
13 0.005298
14 0.004986
15 0.004804
16 0.004763
17 0.004627
18 0.004559
19 0.004485
20 0.004330
21 0.003745
22 0.003465
23 0.003126
24 0.002994
25 0.002631
26 0.002167
27 0.001890
28 0.001733
29 0.001864
30 0.001852
31 0.002191
32 0.002596
33 0.003095
34 0.003682
35 0.004318
36 0.004831
37 0.005151
38 0.005413
39 0.005095
40 0.004692
41 0.004402
42 0.004147
43 0.003856
44 0.003691
45 0.003443
46 0.003166
47 0.002711
48 0.002495
49 0.002316
50 0.002413
51 0.002436
52 0.002713
53 0.003424
54 0.004037
55 0.004336
56 0.004640
57 0.004727
58 0.004778
59 0.004528
60 0.004450
61 0.004360
62 0.004545
63 0.004784
64 0.004943
65 0.004642
66 0.004663
67 0.004313
68 0.003925
69 0.003469
70 0.002995
71 0.002852
72 0.003047
73 0.003304
74 0.003734
75 0.003807
76 0.004010
77 0.004141
78 0.004050
79 0.004160
80 0.003818
81 0.003530
82 0.003410
83 0.003259
84 0.003077
85 0.002979
86 0.002851
87 0.002729
88 0.002675
89 0.002781
90 0.002698
91 0.002657
92 0.002677
93 0.002898
94 0.002556
95 0.002061
96 0.001842
97 0.001813
98 0.002073
99 0.002092
100 0.002134
101 0.002303
102 0.002103
103 0.001945
104 0.001899
105 0.001668
106 0.001429
107 0.001403
108 0.001481
109 0.001537
110 0.001613
111 0.001572
112 0.001409
113 0.001119
114 0.001062
115 0.001109
116 0.001327
117 0.001941
118 0.002478
119 0.002661
120 0.002920
121 0.002699
122 0.002380
123 0.002016
124 0.001760
125 0.001720
126 0.001770
127 0.002099
128 0.002217
129 0.002316
130 0.002365
131 0.001861
132 0.001526
133 0.001359
134 0.000941
135 0.000773
136 0.000573
137 0.000645
138 0.000621
139 0.000502
140 0.000282
141 0.000376
142 0.000743
143 0.000938
144 0.000830
145 0.001030
146 0.001225
147 0.000955
148 0.000254
149 0.000021
150 -0.000253
151 -0.000742
152 -0.000858
153 -0.000558
154 -0.000282
155 0.000105
156 0.000451
157 0.000876
158 0.000827
159 0.000380
160 0.000049
161 0.000165
162 0.000040
163 0.000061
164 0.000402
165 0.000569
166 0.000631
167 0.000651
168 0.000675
169 0.000736
170 0.000859
171 0.001011
172 0.001233
173 0.001225
174 0.001332
175 0.001399
176 0.001417
177 0.001441
178 0.001616
179 0.001960
180 0.002303
181 0.002555
182 0.002719
183 0.003016
184 0.003014
185 0.002796
186 0.002475
187 0.001935
188 0.001480
189 0.000874
190 0.000702
191 0.000963
192 0.000969
193 0.001382
194 0.001660
195 0.001593
196 0.001366
197 0.000808
198 0.000160
199 -0.000015
200 -0.000447
201 -0.000841
202 -0.001052
203 -0.001180
204 -0.001739
205 -0.002038
206 -0.002324
207 -0.002322
208 -0.002211
209 -0.002093
210 -0.001837
211 -0.001510
212 -0.001284
213 -0.000649
214 -0.000460
215 -0.000465
216 -0.000154
217 -0.000391
218 -0.000302
219 0.000031
220 0.000156
221 0.000425
222 0.000397
223 0.000303
224 0.000121
225 0.000070
226 0.000088
227 0.000118
228 0.000195
229 0.000398
230 0.000266
231 0.000300
232 0.000364
233 0.000338
234 0.000506
235 0.000587
236 0.000725
237 0.000843
238 0.001073
239 0.000924
240 0.000949
241 0.000695
242 0.000388
243 0.000019
244 -0.000349
245 -0.000314
246 -0.000098
247 0.000421
248 0.000863
249 0.001076
