# i correlation
1 0.015553
2 0.013288
3 0.010890
4 0.009158
5 0.007708
6 0.006476
7 0.005433
8 0.005002
9 0.004363
10 0.003842
11 0.002994
12 0.002480
13 0.002135
14 0.001890
15 0.001520
16 0.001131
17 0.000692
18 0.000725
19 0.001062
20 0.000974
21 0.000830
22 0.000669
23 0.000913
24 0.001065
25 0.001140
26 0.001373
27 0.001261
28 0.001348
29 0.001181
30 0.001029
31 0.000796
32 0.000705
33 0.000626
34 0.000969
35 0.000952
36 0.001565
37 0.001763
38 0.002191
39 0.002111
40 0.001870
41 0.001456
42 0.001361
43 0.000964
44 0.001048
45 0.000734
46 0.000555
47 0.000553
48 0.000718
49 0.000794
50 0.000716
51 0.000663
52 0.000557
53 0.000557
54 0.000269
55 -0.000068
56 -0.000350
57 -0.000353
58 -0.000563
59 -0.000749
60 -0.001111
61 -0.001078
62 -0.000830
63 -0.000597
64 -0.000309
65 -0.000253
66 -0.000043
67 0.000128
68 0.000631
69 0.000805
70 0.001352
71 0.001626
72 0.001892
73 0.001700
74 0.001758
75 0.001595
76 0.001764
77 0.001513
78 0.001423
79 0.001044
80 0.000933
81 0.000673
82 0.001030
83 0.001395
84 0.001691
85 0.001910
86 0.001779
87 0.001663
88 0.001188
89 0.000934
90 0.000770
91 0.000718
92 0.000412
93 0.000095
94 -0.000349
95 -0.000475
96 -0.000475
97 -0.000363
98 -0.000204
99 0.000038
100 0.000283
101 0.000704
102 0.000763
103 0.000728
104 0.000815
105 0.000990
106 0.001386
107 0.001495
108 0.001557
109 0.001786
110 0.002154
111 0.002295
112 0.002508
113 0.001973
114 0.001708
115 0.001331
116 0.000847
117 0.000326
118 0.000010
119 -0.000335
120 -0.000696
121 -0.001115
122 -0.001569
123 -0.001868
124 -0.001796
125 -0.001707
126 -0.001533
127 -0.001061
128 -0.000968
129 -0.000744
130 -0.000663
131 -0.000727
132 -0.001071
133 -0.001055
134 -0.000961
135 -0.000906
136 -0.001024
137 -0.000910
138 -0.000862
139 -0.000975
140 -0.001226
141 -0.001837
142 -0.002219
143 -0.002468
144 -0.002571
145 -0.002813
146 -0.002723
147 -0.002470
148 -0.002102
149 -0.001829
150 -0.001562
151 -0.001456
152 -0.001444
153 -0.001216
154 -0.000656
155 -0.000751
156 -0.000666
157 -0.000693
158 -0.000826
159 -0.000633
160 -0.000709
161 -0.000591
162 -0.000449
163 -0.000026
164 -0.000020
165 0.000113
166 0.000061
167 0.000323
168 0.000547
169 0.000689
170 0.000722
171 0.000851
172 0.000704
173 0.000760
174 0.000703
175 0.000933
176 0.000934
177 0.001082
178 0.000920
179 0.000670
180 0.000367
181 0.000118
182 0.000239
183 0.000431
184 0.000277
185 0.000376
186 0.000451
187 0.000540
188 0.000760
189 0.000683
190 0.000893
191 0.000895
192 0.000735
193 0.000607
194 0.000541
195 0.000571
196 0.000656
197 0.001063
198 0.001440
199 0.001787
200 0.001985
201 0.002430
202 0.002798
203 0.002978
204 0.003061
205 0.003204
206 0.003017
207 0.002989
208 0.002372
209 0.001951
210 0.001590
211 0.001411
212 0.001346
213 0.001319
214 0.001034
215 0.001084
216 0.001122
217 0.000983
218 0.000677
219 0.000127
220 -0.000262
221 -0.000391
222 -0.000586
223 -0.000798
224 -0.000796
225 -0.000546
226 -0.000422
227 -0.000409
228 -0.000551
229 -0.000867
230 -0.000834
231 -0.000858
232 -0.001184
233 -0.001331
234 -0.001677
235 -0.001892
236 -0.001720
237 -0.001834
238 -0.001581
239 -0.001174
240 -0.000671
241 0.000038
242 0.000306
243 0.000540
244 0.000636
245 0.000952
246 0.001268
247 0.001386
248 0.001364
249 0.001546
