# i correlation
1 0.017812
2 0.015195
3 0.013208
4 0.011582
5 0.010405
6 0.009154
7 0.008097
8 0.007724
9 0.007522
10 0.007094
11 0.006663
12 0.006388
13 0.006303
14 0.006248
15 0.006003
16 0.005624
17 0.005713
18 0.006012
19 0.005902
20 0.005975
21 0.005869
22 0.005826
23 0.005927
24 0.005645
25 0.005506
26 0.005568
27 0.005543
28 0.005617
29 0.005373
30 0.005139
31 0.004918
32 0.004806
33 0.004911
34 0.005021
35 0.005006
36 0.004848
37 0.004277
38 0.003738
39 0.003433
40 0.003141
41 0.003200
42 0.003078
43 0.003169
44 0.003365
45 0.003346
46 0.003329
47 0.003139
48 0.003208
49 0.003247
50 0.003367
51 0.003516
52 0.003520
53 0.003798
54 0.003966
55 0.004130
56 0.004302
57 0.004232
58 0.003807
59 0.003434
60 0.003203
61 0.003091
62 0.002779
63 0.002313
64 0.002039
65 0.002019
66 0.001647
67 0.001509
68 0.001372
69 0.001520
70 0.001598
71 0.001500
72 0.001263
73 0.000990
74 0.001179
75 0.001411
76 0.001153
77 0.000802
78 0.000529
79 0.000518
80 0.000597
81 0.000346
82 0.000327
83 0.000571
84 0.000936
85 0.001178
86 0.000732
87 0.000796
88 0.000567
89 0.000222
90 -0.000442
91 -0.000966
92 -0.001283
93 -0.001594
94 -0.001804
95 -0.002022
96 -0.002245
97 -0.002363
98 -0.002449
99 -0.002359
100 -0.002240
101 -0.002143
102 -0.001737
103 -0.001484
104 -0.001478
105 -0.001914
106 -0.002129
107 -0.002279
108 -0.002266
109 -0.001947
110 -0.001511
111 -0.001416
112 -0.001125
113 -0.000760
114 -0.000960
115 -0.001119
116 -0.001274
117 -0.001394
118 -0.001416
119 -0.001613
120 -0.001748
121 -0.001810
122 -0.001859
123 -0.001867
124 -0.002026
125 -0.002292
126 -0.002407
127 -0.002253
128 -0.002010
129 -0.001967
130 -0.001583
131 -0.001149
132 -0.000899
133 -0.000824
134 -0.001216
135 -0.001419
136 -0.001316
137 -0.001331
138 -0.001312
139 -0.001478
140 -0.001941
141 -0.002241
142 -0.002628
143 -0.002803
144 -0.002867
145 -0.002583
146 -0.002174
147 -0.002056
148 -0.001959
149 -0.001567
150 -0.001282
151 -0.001060
152 -0.000630
153 -0.000205
154 0.000276
155 0.000782
156 0.001369
157 0.001555
158 0.001649
159 0.001900
160 0.001855
161 0.001712
162 0.001427
163 0.001165
164 0.001049
165 0.000989
166 0.001095
167 0.001140
168 0.001218
169 0.001363
170 0.001314
171 0.001407
172 0.001634
173 0.001803
174 0.002018
175 0.001745
176 0.001510
177 0.001214
178 0.000954
179 0.000648
180 0.000231
181 -0.000174
182 -0.000227
183 0.000070
184 0.000454
185 0.000734
186 0.001150
187 0.001963
188 0.002509
189 0.003152
190 0.003470
191 0.003142
192 0.003014
193 0.002546
194 0.002064
195 0.001870
196 0.001524
197 0.001387
198 0.001392
199 0.001179
200 0.001097
201 0.001426
202 0.001557
203 0.001610
204 0.001652
205 0.001777
206 0.001976
207 0.002348
208 0.002567
209 0.002554
210 0.002702
211 0.002772
212 0.002817
213 0.002869
214 0.002724
215 0.002907
216 0.003116
217 0.003127
218 0.003005
219 0.003070
220 0.003191
221 0.003430
222 0.003646
223 0.004053
224 0.004197
225 0.004206
226 0.004035
227 0.003575
228 0.003242
229 0.003060
230 0.002882
231 0.002945
232 0.002540
233 0.002316
234 0.002366
235 0.002155
236 0.002106
237 0.002197
238 0.002297
239 0.002474
240 0.002648
241 0.002668
242 0.002742
243 0.003123
244 0.003142
245 0.003359
246 0.003423
247 0.003223
248 0.003257
249 0.003409
