# i correlation
1 0.018181
2 0.015322
3 0.013007
4 0.010807
5 0.009101
6 0.007767
7 0.007064
8 0.006222
9 0.005875
10 0.005172
11 0.004745
12 0.004523
13 0.004007
14 0.003272
15 0.002814
16 0.002767
17 0.002780
18 0.002848
19 0.002873
20 0.003014
21 0.003072
22 0.003090
23 0.003170
24 0.003151
25 0.002920
26 0.002538
27 0.002146
28 0.001800
29 0.001824
30 0.001457
31 0.001603
32 0.001885
33 0.002142
34 0.002441
35 0.002440
36 0.002382
37 0.002357
38 0.002626
39 0.002591
40 0.002809
41 0.003148
42 0.003152
43 0.002741
44 0.002397
45 0.002098
46 0.001978
47 0.001770
48 0.001411
49 0.001308
50 0.001223
51 0.001205
52 0.000757
53 0.000439
54 0.000129
55 -0.000302
56 -0.000312
57 -0.000345
58 -0.000190
59 0.000050
60 0.000318
61 0.000126
62 -0.000304
63 -0.000596
64 -0.001090
65 -0.001592
66 -0.001576
67 -0.001241
68 -0.000987
69 -0.000803
70 -0.000573
71 -0.000579
72 -0.000813
73 -0.001255
74 -0.001841
75 -0.001974
76 -0.001986
77 -0.001759
78 -0.001543
79 -0.001034
80 -0.000251
81 0.000120
82 0.000733
83 0.000899
84 0.000900
85 0.000679
86 0.000315
87 0.000054
88 0.000189
89 0.000818
90 0.001094
91 0.001560
92 0.001858
93 0.002043
94 0.002142
95 0.002145
96 0.001908
97 0.001426
98 0.001011
99 0.000873
100 0.000855
101 0.000690
102 0.000368
103 0.000061
104 -0.000201
105 -0.000300
106 -0.000431
107 -0.000509
108 -0.000636
109 -0.000507
110 -0.000631
111 -0.000432
112 -0.000127
113 0.000340
114 0.000674
115 0.000570
116 0.000349
117 0.000144
118 0.000332
119 0.000464
120 0.000723
121 0.000889
122 0.001037
123 0.001158
124 0.001322
125 0.001220
126 0.000824
127 0.000637
128 0.000739
129 0.000832
130 0.001007
131 0.000936
132 0.000984
133 0.000763
134 0.000867
135 0.000866
136 0.000849
137 0.001087
138 0.001347
139 0.001676
140 0.001901
141 0.002355
142 0.002569
143 0.002698
144 0.002358
145 0.002477
146 0.002350
147 0.002268
148 0.002515
149 0.002567
150 0.002789
151 0.002944
152 0.003331
153 0.003492
154 0.003250
155 0.003176
156 0.002706
157 0.002152
158 0.001446
159 0.001093
160 0.000798
161 0.000630
162 0.000258
163 0.000083
164 0.000110
165 0.000226
166 -0.000200
167 -0.000832
168 -0.001060
169 -0.001268
170 -0.001226
171 -0.001093
172 -0.000714
173 -0.000365
174 -0.000148
175 0.000012
176 0.000011
177 -0.000127
178 -0.000463
179 -0.000532
180 -0.000588
181 -0.000231
182 0.000094
183 0.000210
184 0.000317
185 0.000335
186 0.000479
187 0.000142
188 0.000004
189 0.000016
190 -0.000068
191 -0.000178
192 -0.000096
193 0.000080
194 0.000419
195 0.000759
196 0.000711
197 0.000714
198 0.000517
199 0.000381
200 0.000089
201 -0.000124
202 -0.000109
203 -0.000296
204 -0.000422
205 -0.000221
206 -0.000106
207 -0.000287
208 -0.000381
209 -0.000590
210 -0.000881
211 -0.000927
212 -0.000762
213 -0.000622
214 -0.000431
215 -0.000554
216 -0.000755
217 -0.000862
218 -0.001054
219 -0.000918
220 -0.000711
221 -0.000278
222 -0.000293
223 -0.000130
224 -0.000074
225 -0.000061
226 -0.000212
227 -0.000472
228 -0.000394
229 -0.000450
230 -0.000480
231 -0.000237
232 0.000418
233 0.000751
234 0.000843
235 0.001021
236 0.001141
237 0.001608
238 0.001705
239 0.001841
240 0.001737
241 0.001521
242 0.001395
243 0.001325
244 0.001655
245 0.001996
246 0.002267
247 0.002163
248 0.002304
249 0.002200
