# i correlation
1 0.022816
2 0.020189
3 0.017964
4 0.016258
5 0.014771
6 0.013421
7 0.012452
8 0.011984
9 0.011558
10 0.011556
11 0.011232
12 0.011071
13 0.010435
14 0.009691
15 0.009135
16 0.008750
17 0.008639
18 0.008405
19 0.008279
20 0.008408
21 0.008742
22 0.008897
23 0.008537
24 0.008246
25 0.008161
26 0.008114
27 0.007987
28 0.007757
29 0.007740
30 0.007515
31 0.007072
32 0.006857
33 0.006551
34 0.006480
35 0.006045
36 0.005961
37 0.006066
38 0.006131
39 0.006131
40 0.005999
41 0.005948
42 0.005919
43 0.005850
44 0.005749
45 0.005525
46 0.005281
47 0.005303
48 0.005170
49 0.005383
50 0.005797
51 0.005840
52 0.005593
53 0.005387
54 0.005296
55 0.005430
56 0.005623
57 0.005602
58 0.005863
59 0.006139
60 0.006276
61 0.006539
62 0.006752
63 0.007037
64 0.007405
65 0.007713
66 0.007825
67 0.007884
68 0.008036
69 0.007885
70 0.007695
71 0.007053
72 0.006166
73 0.005681
74 0.005055
75 0.004708
76 0.004678
77 0.004620
78 0.004787
79 0.004899
80 0.005099
81 0.005148
82 0.004989
83 0.004830
84 0.004345
85 0.004115
86 0.003911
87 0.003724
88 0.003644
89 0.003577
90 0.003799
91 0.004093
92 0.004217
93 0.004509
94 0.004546
95 0.004559
96 0.004594
97 0.004693
98 0.004891
99 0.004947
100 0.005130
101 0.004980
102 0.004683
103 0.004567
104 0.004606
105 0.004623
106 0.004558
107 0.004574
108 0.004734
109 0.004860
110 0.005221
111 0.005318
112 0.005557
113 0.005380
114 0.005184
115 0.005117
116 0.005147
117 0.005089
118 0.005171
119 0.005335
120 0.005623
121 0.005535
122 0.005427
123 0.005453
124 0.005286
125 0.005363
126 0.005156
127 0.004946
128 0.004393
129 0.003889
130 0.003802
131 0.003647
132 0.003432
133 0.003030
134 0.002827
135 0.002972
136 0.003034
137 0.003088
138 0.003414
139 0.003653
140 0.003839
141 0.003878
142 0.003982
143 0.003865
144 0.003832
145 0.004018
146 0.004047
147 0.004073
148 0.004285
149 0.004450
150 0.004500
151 0.004389
152 0.004331
153 0.004121
154 0.004012
155 0.003851
156 0.003650
157 0.003590
158 0.003467
159 0.003526
160 0.003679
161 0.003899
162 0.004000
163 0.004288
164 0.004451
165 0.004264
166 0.004230
167 0.004108
168 0.004153
169 0.004265
170 0.004664
171 0.004867
172 0.004953
173 0.004847
174 0.005081
175 0.005152
176 0.005439
177 0.005369
178 0.005209
179 0.005103
180 0.005281
181 0.005449
182 0.005616
183 0.005434
184 0.005153
185 0.004919
186 0.004972
187 0.004755
188 0.004988
189 0.005186
190 0.005323
191 0.005305
192 0.005183
193 0.005081
194 0.005165
195 0.005053
196 0.005032
197 0.005246
198 0.005410
199 0.005193
200 0.005181
201 0.005100
202 0.004929
203 0.004491
204 0.004380
205 0.004313
206 0.004345
207 0.004548
208 0.004924
209 0.005166
210 0.005499
211 0.005777
212 0.005632
213 0.005723
214 0.005305
215 0.005164
216 0.005017
217 0.004988
218 0.005253
219 0.005719
220 0.006015
221 0.006289
222 0.006073
223 0.006017
224 0.005865
225 0.005903
226 0.005879
227 0.005799
228 0.005736
229 0.005635
230 0.005737
231 0.006307
232 0.006748
233 0.006954
234 0.006978
235 0.007059
236 0.006893
237 0.006813
238 0.006906
239 0.007112
240 0.007501
241 0.007661
242 0.007723
243 0.007646
244 0.007521
245 0.007380
246 0.006996
247 0.006801
248 0.006600
249 0.006500
