# i correlation
1 0.014946
2 0.012632
3 0.010841
4 0.009418
5 0.008377
6 0.007378
7 0.006306
8 0.005700
9 0.005225
10 0.005000
11 0.004843
12 0.004739
13 0.004531
14 0.004679
15 0.004533
16 0.004312
17 0.004030
18 0.003987
19 0.003955
20 0.004137
21 0.004082
22 0.003625
23 0.003626
24 0.003387
25 0.003161
26 0.002885
27 0.002523
28 0.002256
29 0.001830
30 0.001675
31 0.001451
32 0.001190
33 0.001311
34 0.001180
35 0.001373
36 0.001520
37 0.001896
38 0.002151
39 0.002291
40 0.002467
41 0.002864
42 0.003246
43 0.003634
44 0.003647
45 0.003433
46 0.003003
47 0.002734
48 0.002589
49 0.002289
50 0.002296
51 0.002578
52 0.002545
53 0.002311
54 0.001965
55 0.001630
56 0.001459
57 0.001170
58 0.001398
59 0.001871
60 0.002086
61 0.002256
62 0.002647
63 0.003057
64 0.003293
65 0.003392
66 0.003569
67 0.003596
68 0.003619
69 0.003543
70 0.003516
71 0.003526
72 0.003410
73 0.003141
74 0.003184
75 0.003105
76 0.002832
77 0.002554
78 0.002438
79 0.002609
80 0.002418
81 0.002027
82 0.001909
83 0.001827
84 0.002028
85 0.002111
86 0.001975
87 0.001884
88 0.001921
89 0.001909
90 0.001938
91 0.001687
92 0.001355
93 0.001365
94 0.001096
95 0.000991
96 0.000826
97 0.000441
98 0.000096
99 0.000172
100 0.000357
101 0.000332
102 0.000447
103 0.000876
104 0.001457
105 0.001701
106 0.001879
107 0.002042
108 0.001709
109 0.001496
110 0.001303
111 0.001132
112 0.001124
113 0.000985
114 0.001197
115 0.001775
116 0.002225
117 0.002460
118 0.002736
119 0.002637
120 0.002539
121 0.002452
122 0.002014
123 0.001758
124 0.001573
125 0.001331
126 0.001313
127 0.001569
128 0.001736
129 0.001752
130 0.001819
131 0.001569
132 0.001659
133 0.001742
134 0.001865
135 0.002251
136 0.002333
137 0.002338
138 0.002407
139 0.002300
140 0.002195
141 0.002060
142 0.002191
143 0.002230
144 0.002132
145 0.001887
146 0.001895
147 0.002031
148 0.002082
149 0.002023
150 0.002271
151 0.002404
152 0.002520
153 0.002604
154 0.002754
155 0.002923
156 0.003078
157 0.003021
158 0.003098
159 0.003064
160 0.002850
161 0.002534
162 0.002521
163 0.002410
164 0.002233
165 0.002198
166 0.002156
167 0.002229
168 0.002321
169 0.002265
170 0.002289
171 0.002082
172 0.001696
173 0.000993
174 0.000651
175 0.000436
176 0.000440
177 0.000458
178 0.000544
179 0.000875
180 0.001255
181 0.001530
182 0.001729
183 0.001689
184 0.001270
185 0.000921
186 0.000840
187 0.000866
188 0.000884
189 0.001198
190 0.001320
191 0.001445
192 0.001544
193 0.001646
194 0.001536
195 0.001605
196 0.001589
197 0.001440
198 0.001326
199 0.001059
200 0.000787
201 0.000676
202 0.000912
203 0.001316
204 0.001449
205 0.001783
206 0.002157
207 0.002240
208 0.002144
209 0.002129
210 0.002027
211 0.001799
212 0.001464
213 0.000937
214 0.000641
215 0.000247
216 -0.000116
217 -0.000242
218 -0.000096
219 0.000073
220 0.000505
221 0.000745
222 0.001147
223 0.001330
224 0.001561
225 0.001699
226 0.001613
227 0.001243
228 0.001024
229 0.000981
230 0.000984
231 0.001057
232 0.001028
233 0.001104
234 0.001093
235 0.001102
236 0.001117
237 0.000784
238 0.000448
239 0.000097
240 -0.000211
241 -0.000370
242 -0.000404
243 -0.000435
244 -0.000687
245 -0.000886
246 -0.000922
247 -0.000777
248 -0.000613
249 -0.000445
