# i correlation
1 0.020126
2 0.017549
3 0.015298
4 0.013692
5 0.012317
6 0.010960
7 0.009621
8 0.008574
9 0.007599
10 0.006634
11 0.005624
12 0.004730
13 0.004237
14 0.003746
15 0.002922
16 0.002325
17 0.001648
18 0.001162
19 0.000779
20 0.000518
21 0.000601
22 0.000741
23 0.000849
24 0.000643
25 0.000343
26 0.000113
27 0.000163
28 0.000663
29 0.001289
30 0.001607
31 0.002134
32 0.002400
33 0.002696
34 0.002516
35 0.002907
36 0.002830
37 0.002972
38 0.002966
39 0.002855
40 0.002770
41 0.002565
42 0.002488
43 0.002883
44 0.003028
45 0.003135
46 0.003167
47 0.002717
48 0.002208
49 0.001563
50 0.001142
51 0.001011
52 0.000914
53 0.000779
54 0.000581
55 0.000562
56 0.000547
57 0.000715
58 0.000806
59 0.001227
60 0.001269
61 0.001287
62 0.001366
63 0.001322
64 0.001592
65 0.001922
66 0.002318
67 0.002781
68 0.003084
69 0.003250
70 0.003552
71 0.003688
72 0.003812
73 0.003994
74 0.004050
75 0.004325
76 0.004489
77 0.004447
78 0.004393
79 0.004035
80 0.004017
81 0.003994
82 0.003732
83 0.003490
84 0.003265
85 0.002916
86 0.002841
87 0.002833
88 0.002860
89 0.002937
90 0.002879
91 0.002622
92 0.002067
93 0.001772
94 0.001780
95 0.001763
96 0.001596
97 0.001597
98 0.001741
99 0.001995
100 0.002318
101 0.002349
102 0.002254
103 0.002560
104 0.002510
105 0.002695
106 0.002443
107 0.001976
108 0.001634
109 0.001360
110 0.001158
111 0.000833
112 0.000456
113 0.000181
114 0.000009
115 -0.000273
116 -0.000254
117 -0.000437
118 -0.000295
119 0.000040
120 -0.000037
121 0.000163
122 0.000135
123 0.000189
124 0.000565
125 0.000548
126 0.000627
127 0.000893
128 0.001115
129 0.001410
130 0.001502
131 0.001502
132 0.001640
133 0.001764
134 0.002070
135 0.002504
136 0.002803
137 0.003025
138 0.003319
139 0.003209
140 0.003196
141 0.003029
142 0.002864
143 0.002789
144 0.002545
145 0.002308
146 0.002163
147 0.002311
148 0.002299
149 0.002267
150 0.002352
151 0.002113
152 0.001893
153 0.001506
154 0.001214
155 0.000889
156 0.000698
157 0.000486
158 0.000232
159 -0.000045
160 -0.000242
161 -0.000516
162 -0.000596
163 -0.001074
164 -0.000964
165 -0.001026
166 -0.000829
167 -0.000516
168 -0.000334
169 -0.000042
170 0.000190
171 0.000487
172 0.000677
173 0.000866
174 0.000542
175 0.000582
176 0.000676
177 0.000589
178 0.000488
179 0.000094
180 0.000295
181 0.000300
182 0.000086
183 -0.000039
184 -0.000435
185 -0.000651
186 -0.000527
187 -0.000357
188 -0.000503
189 -0.000608
190 -0.000731
191 -0.000605
192 -0.000452
193 -0.000043
194 0.000015
195 -0.000176
196 -0.000364
197 -0.000332
198 -0.000310
199 -0.000028
200 0.000072
201 -0.000023
202 0.000043
203 0.000107
204 0.000483
205 0.000706
206 0.000719
207 0.000859
208 0.001107
209 0.001363
210 0.001440
211 0.001536
212 0.001463
213 0.001434
214 0.001408
215 0.001721
216 0.001896
217 0.001838
218 0.001705
219 0.001436
220 0.000798
221 0.000266
222 0.000092
223 -0.000171
224 -0.000223
225 -0.000489
226 -0.000723
227 -0.000785
228 -0.000671
229 -0.000789
230 -0.000980
231 -0.001350
232 -0.001267
233 -0.001194
234 -0.001429
235 -0.001379
236 -0.001388
237 -0.001082
238 -0.000755
239 -0.000518
240 -0.000541
241 -0.000949
242 -0.001152
243 -0.001124
244 -0.001087
245 -0.000857
246 -0.000709
247 -0.000666
248 -0.000744
249 -0.001057
