# i correlation
1 0.019898
2 0.017275
3 0.015154
4 0.013164
5 0.011271
6 0.009885
7 0.008598
8 0.007416
9 0.006793
10 0.006571
11 0.006530
12 0.006369
13 0.006175
14 0.005685
15 0.005076
16 0.004322
17 0.003358
18 0.002620
19 0.001740
20 0.000870
21 0.000195
22 -0.000006
23 0.000084
24 0.000457
25 0.000789
26 0.000947
27 0.001056
28 0.001073
29 0.001046
30 0.001249
31 0.001623
32 0.002053
33 0.002221
34 0.002309
35 0.002779
36 0.003215
37 0.003700
38 0.003931
39 0.003909
40 0.004031
41 0.004022
42 0.003869
43 0.003693
44 0.003676
45 0.003582
46 0.003496
47 0.003667
48 0.003713
49 0.003862
50 0.004056
51 0.004208
52 0.004194
53 0.004260
54 0.004330
55 0.004071
56 0.004010
57 0.003926
58 0.003639
59 0.003446
60 0.003612
61 0.003600
62 0.003776
63 0.004069
64 0.004235
65 0.004654
66 0.005199
67 0.005176
68 0.005096
69 0.004796
70 0.004466
71 0.004387
72 0.004495
73 0.004728
74 0.004742
75 0.004848
76 0.004920
77 0.005129
78 0.005538
79 0.005424
80 0.005071
81 0.005208
82 0.004723
83 0.004277
84 0.004134
85 0.004052
86 0.003974
87 0.003969
88 0.003955
89 0.003877
90 0.003687
91 0.003627
92 0.003582
93 0.003227
94 0.002817
95 0.002128
96 0.001742
97 0.001464
98 0.001434
99 0.001266
100 0.001079
101 0.001154
102 0.001138
103 0.001500
104 0.001844
105 0.002200
106 0.002491
107 0.002470
108 0.002527
109 0.002492
110 0.002452
111 0.002416
112 0.002255
113 0.002481
114 0.002636
115 0.002505
116 0.002531
117 0.002570
118 0.002537
119 0.002665
120 0.002889
121 0.002940
122 0.002735
123 0.002669
124 0.002654
125 0.002581
126 0.002385
127 0.002208
128 0.001946
129 0.001953
130 0.002145
131 0.002594
132 0.002476
133 0.002476
134 0.002527
135 0.002653
136 0.002558
137 0.002622
138 0.002552
139 0.002578
140 0.002171
141 0.002158
142 0.001975
143 0.002038
144 0.001890
145 0.001590
146 0.001693
147 0.001697
148 0.001483
149 0.001226
150 0.001127
151 0.001142
152 0.001704
153 0.002306
154 0.002747
155 0.003163
156 0.003466
157 0.003450
158 0.003375
159 0.003268
160 0.002845
161 0.002439
162 0.002232
163 0.002113
164 0.002099
165 0.002139
166 0.002315
167 0.002223
168 0.002096
169 0.002045
170 0.002119
171 0.002224
172 0.002210
173 0.001980
174 0.001604
175 0.001154
176 0.000454
177 0.000028
178 -0.000274
179 -0.000321
180 -0.000541
181 -0.000660
182 -0.000819
183 -0.000913
184 -0.000998
185 -0.000880
186 -0.000824
187 -0.000353
188 -0.000228
189 -0.000198
190 0.000004
191 0.000299
192 0.000279
193 0.000555
194 0.000713
195 0.000622
196 0.000502
197 0.000939
198 0.001075
199 0.001017
200 0.001056
201 0.001085
202 0.001412
203 0.001754
204 0.001983
205 0.002242
206 0.002417
207 0.002188
208 0.001794
209 0.002018
210 0.001963
211 0.001477
212 0.001467
213 0.000966
214 0.000472
215 0.000343
216 0.000207
217 -0.000037
218 -0.000213
219 -0.000294
220 -0.000454
221 -0.000773
222 -0.000869
223 -0.001133
224 -0.001160
225 -0.001264
226 -0.001392
227 -0.001370
228 -0.001251
229 -0.000882
230 -0.000603
231 -0.000342
232 -0.000380
233 -0.000385
234 -0.000361
235 -0.000428
236 -0.000812
237 -0.000935
238 -0.000845
239 -0.000422
240 0.000142
241 0.000633
242 0.001088
243 0.001411
244 0.002225
245 0.002867
246 0.003307
247 0.003663
248 0.003622
249 0.003266
