# i correlation
1 0.001673
2 0.001625
3 0.001587
4 0.001555
5 0.001527
6 0.001502
7 0.001476
8 0.001453
9 0.001437
10 0.001422
11 0.001408
12 0.001391
13 0.001373
14 0.001352
15 0.001332
16 0.001321
17 0.001313
18 0.001301
19 0.001289
20 0.001278
21 0.001268
22 0.001259
23 0.001244
24 0.001235
25 0.001230
26 0.001220
27 0.001213
28 0.001206
29 0.001197
30 0.001187
31 0.001181
32 0.001176
33 0.001168
34 0.001167
35 0.001167
36 0.001170
37 0.001169
38 0.001176
39 0.001183
40 0.001184
41 0.001183
42 0.001185
43 0.001188
44 0.001193
45 0.001197
46 0.001201
47 0.001204
48 0.001205
49 0.001207
50 0.001208
51 0.001211
52 0.001211
53 0.001208
54 0.001198
55 0.001190
56 0.001184
57 0.001174
58 0.001170
59 0.001162
60 0.001150
61 0.001144
62 0.001139
63 0.001135
64 0.001132
65 0.001123
66 0.001114
67 0.001104
68 0.001099
69 0.001093
70 0.001089
71 0.001083
72 0.001076
73 0.001068
74 0.001060
75 0.001054
76 0.001046
77 0.001041
78 0.001034
79 0.001028
80 0.001019
81 0.001010
82 0.001003
83 0.000994
84 0.000990
85 0.000989
86 0.000991
87 0.000995
88 0.000991
89 0.000990
90 0.000989
91 0.000990
92 0.000985
93 0.000978
94 0.000966
95 0.000964
96 0.000964
97 0.000962
98 0.000957
99 0.000949
100 0.000945
101 0.000940
102 0.000938
103 0.000934
104 0.000929
105 0.000923
106 0.000921
107 0.000920
108 0.000923
109 0.000925
110 0.000926
111 0.000926
112 0.000927
113 0.000928
114 0.000926
115 0.000927
116 0.000924
117 0.000926
118 0.000930
119 0.000927
120 0.000925
121 0.000924
122 0.000925
123 0.000926
124 0.000927
125 0.000924
126 0.000919
127 0.000907
128 0.000901
129 0.000895
130 0.000889
131 0.000885
132 0.000881
133 0.000875
134 0.000869
135 0.000870
136 0.000871
137 0.000873
138 0.000870
139 0.000863
140 0.000860
141 0.000852
142 0.000855
143 0.000854
144 0.000849
145 0.000842
146 0.000838
147 0.000833
148 0.000830
149 0.000829
150 0.000827
151 0.000820
152 0.000815
153 0.000812
154 0.000815
155 0.000813
156 0.000810
157 0.000805
158 0.000801
159 0.000801
160 0.000801
161 0.000799
162 0.000798
163 0.000798
164 0.000799
165 0.000795
166 0.000793
167 0.000794
168 0.000800
169 0.000802
170 0.000803
171 0.000806
172 0.000807
173 0.000801
174 0.000796
175 0.000789
176 0.000783
177 0.000780
178 0.000777
179 0.000768
180 0.000765
181 0.000763
182 0.000760
183 0.000754
184 0.000751
185 0.000746
186 0.000742
187 0.000739
188 0.000736
189 0.000736
190 0.000733
191 0.000730
192 0.000728
193 0.000725
194 0.000721
195 0.000720
196 0.000714
197 0.000707
198 0.000701
199 0.000697
200 0.000699
201 0.000697
202 0.000696
203 0.000693
204 0.000691
205 0.000694
206 0.000699
207 0.000704
208 0.000705
209 0.000703
210 0.000703
211 0.000705
212 0.000707
213 0.000706
214 0.000699
215 0.000692
216 0.000685
217 0.000682
218 0.000681
219 0.000679
220 0.000675
221 0.000669
222 0.000664
223 0.000665
224 0.000666
225 0.000663
226 0.000665
227 0.000668
228 0.000670
229 0.000674
230 0.000676
231 0.000673
232 0.000669
233 0.000672
234 0.000671
235 0.000672
236 0.000672
237 0.000667
238 0.000660
239 0.000657
240 0.000657
241 0.000653
242 0.000647
243 0.000645
244 0.000641
245 0.000637
246 0.000638
247 0.000635
248 0.000633
249 0.000632
250 0.000632
251 0.000631
252 0.000627
253 0.000624
254 0.000622
255 0.000623
256 0.000619
257 0.000617
258 0.000615
259 0.000614
260 0.000613
261 0.000610
262 0.000609
263 0.000609
264 0.000607
265 0.000604
266 0.000599
267 0.000594
268 0.000595
269 0.000592
270 0.000586
271 0.000578
272 0.000572
273 0.000567
274 0.000560
275 0.000553
276 0.000548
277 0.000542
278 0.000539
279 0.000541
280 0.000542
281 0.000544
282 0.000549
283 0.000544
284 0.000543
285 0.000541
286 0.000540
287 0.000539
288 0.000536
289 0.000534
290 0.000537
291 0.000541
292 0.000545
293 0.000547
294 0.000547
295 0.000548
296 0.000552
297 0.000557
298 0.000566
299 0.000569
300 0.000571
301 0.000575
302 0.000578
303 0.000576
304 0.000577
305 0.000579
306 0.000583
307 0.000586
308 0.000591
309 0.000598
310 0.000600
311 0.000596
312 0.000587
313 0.000581
314 0.000579
315 0.000578
316 0.000577
317 0.000572
318 0.000571
319 0.000567
320 0.000565
321 0.000561
322 0.000557
323 0.000547
324 0.000539
325 0.000534
326 0.000534
327 0.000534
328 0.000530
329 0.000520
330 0.000517
331 0.000513
332 0.000514
333 0.000511
334 0.000508
335 0.000509
336 0.000514
337 0.000521
338 0.000524
339 0.000524
340 0.000522
341 0.000521
342 0.000518
343 0.000515
344 0.000509
345 0.000507
346 0.000507
347 0.000503
348 0.000504
349 0.000507
350 0.000507
351 0.000506
352 0.000504
353 0.000502
354 0.000511
355 0.000516
356 0.000515
357 0.000510
358 0.000505
359 0.000502
360 0.000498
361 0.000500
362 0.000503
363 0.000500
364 0.000498
365 0.000493
366 0.000493
367 0.000492
368 0.000486
369 0.000477
370 0.000471
371 0.000468
372 0.000467
373 0.000470
374 0.000468
375 0.000467
376 0.000469
377 0.000472
378 0.000473
379 0.000473
380 0.000475
381 0.000473
382 0.000472
383 0.000472
384 0.000472
385 0.000474
386 0.000477
387 0.000478
388 0.000479
389 0.000478
390 0.000474
391 0.000469
392 0.000463
393 0.000459
394 0.000451
395 0.000440
396 0.000434
397 0.000433
398 0.000432
399 0.000426
400 0.000423
401 0.000421
402 0.000424
403 0.000423
404 0.000423
405 0.000428
406 0.000425
407 0.000424
408 0.000419
409 0.000412
410 0.000406
411 0.000400
412 0.000394
413 0.000391
414 0.000388
415 0.000386
416 0.000383
417 0.000383
418 0.000384
419 0.000387
420 0.000388
421 0.000386
422 0.000387
423 0.000387
424 0.000392
425 0.000393
426 0.000397
427 0.000396
428 0.000399
429 0.000404
430 0.000408
431 0.000407
432 0.000409
433 0.000412
434 0.000412
435 0.000414
436 0.000417
437 0.000416
438 0.000412
439 0.000405
440 0.000401
441 0.000404
442 0.000405
443 0.000404
444 0.000404
445 0.000404
446 0.000405
447 0.000403
448 0.000398
449 0.000393
450 0.000391
451 0.000392
452 0.000389
453 0.000384
454 0.000382
455 0.000381
456 0.000380
457 0.000378
458 0.000372
459 0.000367
460 0.000360
461 0.000351
462 0.000346
463 0.000342
464 0.000339
465 0.000332
466 0.000325
467 0.000318
468 0.000317
469 0.000315
470 0.000314
471 0.000309
472 0.000309
473 0.000313
474 0.000315
475 0.000318
476 0.000318
477 0.000317
478 0.000319
479 0.000323
480 0.000325
481 0.000328
482 0.000330
483 0.000327
484 0.000330
485 0.000334
486 0.000335
487 0.000334
488 0.000333
489 0.000328
490 0.000326
491 0.000325
492 0.000321
493 0.000317
494 0.000317
495 0.000315
496 0.000308
497 0.000306
498 0.000306
499 0.000308
500 0.000306
501 0.000304
502 0.000302
503 0.000302
504 0.000305
505 0.000306
506 0.000308
507 0.000306
508 0.000307
509 0.000310
510 0.000313
511 0.000318
512 0.000318
513 0.000317
514 0.000315
515 0.000317
516 0.000313
517 0.000311
518 0.000302
519 0.000291
520 0.000286
521 0.000282
522 0.000283
523 0.000282
524 0.000282
525 0.000281
526 0.000286
527 0.000288
528 0.000292
529 0.000289
530 0.000286
531 0.000283
532 0.000282
533 0.000286
534 0.000292
535 0.000292
536 0.000290
537 0.000290
538 0.000288
539 0.000284
540 0.000279
541 0.000272
542 0.000268
543 0.000265
544 0.000264
545 0.000262
546 0.000260
547 0.000259
548 0.000258
549 0.000255
550 0.000254
551 0.000249
552 0.000243
553 0.000238
554 0.000235
555 0.000237
556 0.000237
557 0.000237
558 0.000236
559 0.000237
560 0.000238
561 0.000240
562 0.000246
563 0.000244
564 0.000242
565 0.000242
566 0.000242
567 0.000242
568 0.000241
569 0.000245
570 0.000244
571 0.000242
572 0.000244
573 0.000246
574 0.000249
575 0.000253
576 0.000255
577 0.000257
578 0.000257
579 0.000258
580 0.000255
581 0.000253
582 0.000249
583 0.000247
584 0.000244
585 0.000244
586 0.000242
587 0.000241
588 0.000239
589 0.000235
590 0.000232
591 0.000230
592 0.000228
593 0.000221
594 0.000217
595 0.000213
596 0.000210
597 0.000210
598 0.000212
599 0.000210
600 0.000214
601 0.000217
602 0.000218
603 0.000217
604 0.000216
605 0.000213
606 0.000212
607 0.000213
608 0.000211
609 0.000208
610 0.000210
611 0.000211
612 0.000213
613 0.000217
614 0.000218
615 0.000218
616 0.000219
617 0.000221
618 0.000223
619 0.000224
620 0.000226
621 0.000227
622 0.000229
623 0.000235
624 0.000243
625 0.000246
626 0.000248
627 0.000250
628 0.000250
629 0.000245
630 0.000241
631 0.000235
632 0.000228
633 0.000221
634 0.000217
635 0.000215
636 0.000213
637 0.000212
638 0.000209
639 0.000203
640 0.000196
641 0.000193
642 0.000189
643 0.000187
644 0.000184
645 0.000178
646 0.000176
647 0.000174
648 0.000175
649 0.000173
650 0.000170
651 0.000164
652 0.000160
653 0.000156
654 0.000152
655 0.000148
656 0.000147
657 0.000148
658 0.000144
659 0.000142
660 0.000139
661 0.000134
662 0.000133
663 0.000135
664 0.000136
665 0.000140
666 0.000142
667 0.000140
668 0.000138
669 0.000136
670 0.000139
671 0.000140
672 0.000141
673 0.000141
674 0.000141
675 0.000141
676 0.000146
677 0.000147
678 0.000149
679 0.000149
680 0.000150
681 0.000149
682 0.000151
683 0.000149
684 0.000149
685 0.000149
686 0.000151
687 0.000154
688 0.000159
689 0.000161
690 0.000160
691 0.000159
692 0.000159
693 0.000157
694 0.000158
695 0.000158
696 0.000152
697 0.000150
698 0.000149
699 0.000147
700 0.000142
701 0.000134
702 0.000130
703 0.000126
704 0.000121
705 0.000117
706 0.000110
707 0.000103
708 0.000097
709 0.000093
710 0.000089
711 0.000087
712 0.000085
713 0.000085
714 0.000086
715 0.000086
716 0.000087
717 0.000085
718 0.000084
719 0.000083
720 0.000082
721 0.000080
722 0.000078
723 0.000079
724 0.000082
725 0.000080
726 0.000078
727 0.000078
728 0.000080
729 0.000080
730 0.000079
731 0.000076
732 0.000076
733 0.000078
734 0.000082
735 0.000088
736 0.000091
737 0.000095
738 0.000102
739 0.000108
740 0.000115
741 0.000123
742 0.000127
743 0.000132
744 0.000136
745 0.000138
746 0.000138
747 0.000136
748 0.000133
749 0.000129
750 0.000126
751 0.000121
752 0.000121
753 0.000120
754 0.000117
755 0.000114
756 0.000111
757 0.000107
758 0.000103
759 0.000099
760 0.000096
761 0.000092
762 0.000086
763 0.000084
764 0.000078
765 0.000073
766 0.000071
767 0.000070
768 0.000067
769 0.000067
770 0.000066
771 0.000064
772 0.000063
773 0.000064
774 0.000064
775 0.000065
776 0.000062
777 0.000059
778 0.000056
779 0.000051
780 0.000050
781 0.000048
782 0.000047
783 0.000047
784 0.000050
785 0.000052
786 0.000053
787 0.000055
788 0.000056
789 0.000053
790 0.000054
791 0.000055
792 0.000055
793 0.000053
794 0.000052
795 0.000055
796 0.000058
797 0.000060
798 0.000056
799 0.000052
800 0.000048
801 0.000044
802 0.000043
803 0.000040
804 0.000037
805 0.000039
806 0.000039
807 0.000040
808 0.000039
809 0.000037
