# i correlation
1 0.001623
2 0.001565
3 0.001512
4 0.001470
5 0.001432
6 0.001405
7 0.001385
8 0.001365
9 0.001345
10 0.001325
11 0.001310
12 0.001292
13 0.001275
14 0.001257
15 0.001247
16 0.001242
17 0.001235
18 0.001233
19 0.001234
20 0.001227
21 0.001223
22 0.001216
23 0.001208
24 0.001195
25 0.001181
26 0.001164
27 0.001155
28 0.001148
29 0.001142
30 0.001144
31 0.001146
32 0.001142
33 0.001137
34 0.001130
35 0.001124
36 0.001120
37 0.001118
38 0.001117
39 0.001116
40 0.001118
41 0.001115
42 0.001106
43 0.001100
44 0.001093
45 0.001084
46 0.001072
47 0.001067
48 0.001060
49 0.001061
50 0.001054
51 0.001043
52 0.001030
53 0.001015
54 0.001007
55 0.000996
56 0.000989
57 0.000982
58 0.000981
59 0.000975
60 0.000975
61 0.000972
62 0.000967
63 0.000967
64 0.000966
65 0.000961
66 0.000961
67 0.000959
68 0.000958
69 0.000953
70 0.000952
71 0.000953
72 0.000951
73 0.000944
74 0.000928
75 0.000911
76 0.000902
77 0.000897
78 0.000889
79 0.000879
80 0.000870
81 0.000857
82 0.000851
83 0.000848
84 0.000843
85 0.000837
86 0.000832
87 0.000829
88 0.000825
89 0.000829
90 0.000828
91 0.000836
92 0.000840
93 0.000844
94 0.000849
95 0.000851
96 0.000846
97 0.000842
98 0.000838
99 0.000834
100 0.000833
101 0.000836
102 0.000839
103 0.000839
104 0.000833
105 0.000825
106 0.000817
107 0.000817
108 0.000812
109 0.000805
110 0.000800
111 0.000790
112 0.000783
113 0.000782
114 0.000783
115 0.000784
116 0.000786
117 0.000787
118 0.000785
119 0.000785
120 0.000783
121 0.000784
122 0.000782
123 0.000782
124 0.000777
125 0.000773
126 0.000770
127 0.000767
128 0.000757
129 0.000749
130 0.000741
131 0.000733
132 0.000727
133 0.000720
134 0.000715
135 0.000708
136 0.000710
137 0.000714
138 0.000722
139 0.000724
140 0.000727
141 0.000728
142 0.000724
143 0.000724
144 0.000726
145 0.000725
146 0.000726
147 0.000729
148 0.000729
149 0.000726
150 0.000725
151 0.000720
152 0.000713
153 0.000700
154 0.000688
155 0.000684
156 0.000676
157 0.000675
158 0.000673
159 0.000671
160 0.000672
161 0.000675
162 0.000674
163 0.000675
164 0.000682
165 0.000688
166 0.000691
167 0.000694
168 0.000691
169 0.000681
170 0.000672
171 0.000668
172 0.000662
173 0.000653
174 0.000644
175 0.000637
176 0.000625
177 0.000615
178 0.000602
179 0.000597
180 0.000593
181 0.000595
182 0.000590
183 0.000592
184 0.000590
185 0.000590
186 0.000596
187 0.000607
188 0.000618
189 0.000626
190 0.000633
191 0.000635
192 0.000635
193 0.000632
194 0.000635
195 0.000638
196 0.000646
197 0.000650
198 0.000654
199 0.000653
200 0.000649
201 0.000648
202 0.000651
203 0.000651
204 0.000657
205 0.000657
206 0.000658
207 0.000657
208 0.000655
209 0.000656
210 0.000665
211 0.000670
212 0.000669
213 0.000664
214 0.000664
215 0.000662
216 0.000656
217 0.000648
218 0.000643
219 0.000641
220 0.000635
221 0.000629
222 0.000622
223 0.000616
224 0.000601
225 0.000591
226 0.000582
227 0.000576
228 0.000573
229 0.000571
230 0.000569
231 0.000566
232 0.000564
233 0.000567
234 0.000565
235 0.000566
236 0.000566
237 0.000568
238 0.000568
239 0.000567
240 0.000560
241 0.000561
242 0.000559
243 0.000554
244 0.000549
245 0.000546
246 0.000541
247 0.000535
248 0.000534
249 0.000528
250 0.000527
251 0.000527
252 0.000531
253 0.000531
254 0.000531
255 0.000529
256 0.000524
257 0.000514
258 0.000505
259 0.000500
260 0.000503
261 0.000505
262 0.000509
263 0.000509
264 0.000510
265 0.000507
266 0.000504
267 0.000501
268 0.000498
269 0.000492
270 0.000487
271 0.000479
272 0.000473
273 0.000468
274 0.000466
275 0.000465
276 0.000461
277 0.000449
278 0.000441
279 0.000436
280 0.000433
281 0.000436
282 0.000442
283 0.000444
284 0.000440
285 0.000436
286 0.000434
287 0.000435
288 0.000433
289 0.000430
290 0.000429
291 0.000429
292 0.000425
293 0.000422
294 0.000417
295 0.000411
296 0.000404
297 0.000398
298 0.000393
299 0.000385
300 0.000378
301 0.000372
302 0.000372
303 0.000369
304 0.000373
305 0.000377
306 0.000378
307 0.000370
308 0.000364
309 0.000359
310 0.000358
311 0.000359
312 0.000363
313 0.000372
314 0.000378
315 0.000380
316 0.000382
317 0.000381
318 0.000377
319 0.000375
320 0.000374
321 0.000376
322 0.000376
323 0.000377
324 0.000379
325 0.000381
326 0.000384
327 0.000388
328 0.000397
329 0.000403
330 0.000407
331 0.000406
332 0.000404
333 0.000398
334 0.000394
335 0.000392
336 0.000395
337 0.000397
338 0.000399
339 0.000400
340 0.000395
341 0.000387
342 0.000384
343 0.000376
344 0.000372
345 0.000371
346 0.000373
347 0.000377
348 0.000379
349 0.000380
350 0.000375
351 0.000372
352 0.000370
353 0.000374
354 0.000378
355 0.000383
356 0.000389
357 0.000393
358 0.000404
359 0.000417
360 0.000429
361 0.000437
362 0.000448
363 0.000451
364 0.000450
365 0.000450
366 0.000453
367 0.000452
368 0.000449
369 0.000450
370 0.000450
371 0.000449
372 0.000440
373 0.000429
374 0.000418
375 0.000409
376 0.000398
377 0.000393
378 0.000390
379 0.000382
380 0.000375
381 0.000372
382 0.000365
383 0.000362
384 0.000357
385 0.000359
386 0.000363
387 0.000365
388 0.000365
389 0.000366
390 0.000365
391 0.000363
392 0.000360
393 0.000361
394 0.000361
395 0.000357
396 0.000356
397 0.000354
398 0.000354
399 0.000357
400 0.000364
401 0.000365
402 0.000367
403 0.000370
404 0.000367
405 0.000364
406 0.000360
407 0.000355
408 0.000355
409 0.000353
410 0.000353
411 0.000351
412 0.000350
413 0.000348
414 0.000345
415 0.000342
416 0.000337
417 0.000328
418 0.000318
419 0.000312
420 0.000308
421 0.000309
422 0.000309
423 0.000303
424 0.000300
425 0.000299
426 0.000296
427 0.000296
428 0.000292
429 0.000293
430 0.000297
431 0.000303
432 0.000306
433 0.000312
434 0.000313
435 0.000312
436 0.000308
437 0.000305
438 0.000300
439 0.000290
440 0.000281
441 0.000271
442 0.000265
443 0.000262
444 0.000253
445 0.000243
446 0.000234
447 0.000225
448 0.000221
449 0.000224
450 0.000226
451 0.000226
452 0.000228
453 0.000230
454 0.000234
455 0.000238
456 0.000239
457 0.000244
458 0.000245
459 0.000244
460 0.000241
461 0.000235
462 0.000231
463 0.000231
464 0.000233
465 0.000235
466 0.000238
467 0.000236
468 0.000232
469 0.000230
470 0.000227
471 0.000229
472 0.000229
473 0.000232
474 0.000236
475 0.000235
476 0.000238
477 0.000240
478 0.000245
479 0.000245
480 0.000243
481 0.000239
482 0.000236
483 0.000229
484 0.000219
485 0.000217
486 0.000211
487 0.000206
488 0.000202
489 0.000203
490 0.000203
491 0.000200
492 0.000201
493 0.000202
494 0.000203
495 0.000202
496 0.000199
497 0.000198
498 0.000196
499 0.000192
500 0.000187
501 0.000185
502 0.000179
503 0.000175
504 0.000174
505 0.000172
506 0.000165
507 0.000164
508 0.000164
509 0.000165
510 0.000165
511 0.000161
512 0.000158
513 0.000156
514 0.000157
515 0.000155
516 0.000155
517 0.000155
518 0.000154
519 0.000150
520 0.000148
521 0.000144
522 0.000141
523 0.000144
524 0.000152
525 0.000163
526 0.000176
527 0.000187
528 0.000194
529 0.000201
530 0.000208
531 0.000209
532 0.000212
533 0.000215
534 0.000221
535 0.000225
536 0.000227
537 0.000231
538 0.000233
539 0.000233
540 0.000227
541 0.000222
542 0.000220
543 0.000221
544 0.000224
545 0.000224
546 0.000225
547 0.000221
548 0.000221
549 0.000223
550 0.000228
551 0.000232
552 0.000238
553 0.000241
554 0.000243
555 0.000246
556 0.000249
557 0.000254
558 0.000264
559 0.000266
560 0.000265
561 0.000260
562 0.000256
563 0.000252
564 0.000250
565 0.000252
566 0.000253
567 0.000257
568 0.000263
569 0.000267
570 0.000268
571 0.000268
572 0.000270
573 0.000269
574 0.000273
575 0.000277
576 0.000284
577 0.000289
578 0.000292
579 0.000291
580 0.000290
581 0.000294
582 0.000296
583 0.000296
584 0.000291
585 0.000287
586 0.000282
587 0.000282
588 0.000281
589 0.000278
590 0.000272
591 0.000266
592 0.000262
593 0.000260
594 0.000259
595 0.000260
596 0.000264
597 0.000270
598 0.000273
599 0.000274
600 0.000280
601 0.000282
602 0.000289
603 0.000296
604 0.000306
605 0.000312
606 0.000313
607 0.000313
608 0.000309
609 0.000306
610 0.000304
611 0.000299
612 0.000296
613 0.000287
614 0.000279
615 0.000273
616 0.000268
617 0.000263
618 0.000260
619 0.000259
620 0.000253
621 0.000256
622 0.000256
623 0.000259
624 0.000258
625 0.000258
626 0.000259
627 0.000260
628 0.000260
629 0.000262
630 0.000259
631 0.000260
632 0.000258
633 0.000254
634 0.000251
635 0.000249
636 0.000247
637 0.000249
638 0.000247
639 0.000244
640 0.000248
641 0.000252
642 0.000255
643 0.000255
644 0.000258
645 0.000261
646 0.000262
647 0.000264
648 0.000263
649 0.000260
650 0.000257
651 0.000254
652 0.000251
653 0.000250
654 0.000249
655 0.000246
656 0.000241
657 0.000235
658 0.000228
659 0.000221
660 0.000218
661 0.000216
662 0.000211
663 0.000204
664 0.000199
665 0.000199
666 0.000198
667 0.000193
668 0.000191
669 0.000190
670 0.000190
671 0.000188
672 0.000187
673 0.000186
674 0.000185
675 0.000186
676 0.000191
677 0.000195
678 0.000198
679 0.000198
680 0.000198
681 0.000201
682 0.000203
683 0.000202
684 0.000204
685 0.000207
686 0.000206
687 0.000206
688 0.000209
689 0.000212
690 0.000214
691 0.000217
692 0.000219
693 0.000219
694 0.000221
695 0.000226
696 0.000231
697 0.000237
698 0.000239
699 0.000241
700 0.000239
701 0.000241
702 0.000241
703 0.000238
704 0.000235
705 0.000234
706 0.000230
707 0.000224
708 0.000218
709 0.000209
710 0.000202
711 0.000190
712 0.000182
713 0.000176
714 0.000174
715 0.000174
716 0.000174
717 0.000177
718 0.000178
719 0.000181
720 0.000184
721 0.000181
722 0.000176
723 0.000171
724 0.000171
725 0.000174
726 0.000179
727 0.000184
728 0.000189
729 0.000193
730 0.000193
731 0.000192
732 0.000192
733 0.000194
734 0.000193
735 0.000191
736 0.000188
737 0.000183
738 0.000181
739 0.000180
740 0.000180
741 0.000180
742 0.000183
743 0.000183
744 0.000182
745 0.000182
746 0.000184
747 0.000186
748 0.000190
749 0.000194
750 0.000197
751 0.000196
752 0.000191
753 0.000189
754 0.000187
755 0.000186
756 0.000182
757 0.000178
758 0.000173
759 0.000171
760 0.000167
761 0.000167
762 0.000169
763 0.000172
764 0.000176
765 0.000180
766 0.000179
767 0.000176
768 0.000175
769 0.000176
770 0.000175
771 0.000176
772 0.000174
773 0.000171
774 0.000167
775 0.000163
776 0.000159
777 0.000152
778 0.000148
779 0.000143
780 0.000141
781 0.000139
782 0.000135
783 0.000130
784 0.000125
785 0.000122
786 0.000122
787 0.000124
788 0.000123
789 0.000119
790 0.000116
791 0.000115
792 0.000116
793 0.000114
794 0.000114
795 0.000115
796 0.000118
797 0.000121
798 0.000120
799 0.000122
800 0.000121
801 0.000118
802 0.000115
803 0.000111
804 0.000107
805 0.000105
806 0.000103
807 0.000100
808 0.000100
809 0.000096
