# i correlation
1 0.001751
2 0.001701
3 0.001659
4 0.001627
5 0.001598
6 0.001575
7 0.001554
8 0.001537
9 0.001522
10 0.001510
11 0.001500
12 0.001485
13 0.001467
14 0.001450
15 0.001435
16 0.001418
17 0.001399
18 0.001380
19 0.001363
20 0.001351
21 0.001338
22 0.001331
23 0.001324
24 0.001318
25 0.001312
26 0.001310
27 0.001309
28 0.001303
29 0.001296
30 0.001288
31 0.001278
32 0.001269
33 0.001260
34 0.001251
35 0.001238
36 0.001229
37 0.001219
38 0.001210
39 0.001206
40 0.001200
41 0.001188
42 0.001177
43 0.001168
44 0.001160
45 0.001153
46 0.001146
47 0.001135
48 0.001121
49 0.001109
50 0.001101
51 0.001092
52 0.001083
53 0.001078
54 0.001072
55 0.001061
56 0.001056
57 0.001048
58 0.001041
59 0.001036
60 0.001032
61 0.001023
62 0.001013
63 0.001005
64 0.001001
65 0.000994
66 0.000991
67 0.000990
68 0.000989
69 0.000988
70 0.000987
71 0.000982
72 0.000974
73 0.000968
74 0.000962
75 0.000956
76 0.000949
77 0.000941
78 0.000939
79 0.000939
80 0.000940
81 0.000945
82 0.000951
83 0.000954
84 0.000954
85 0.000956
86 0.000958
87 0.000955
88 0.000947
89 0.000944
90 0.000940
91 0.000943
92 0.000941
93 0.000943
94 0.000939
95 0.000940
96 0.000941
97 0.000944
98 0.000945
99 0.000943
100 0.000934
101 0.000927
102 0.000920
103 0.000912
104 0.000903
105 0.000897
106 0.000893
107 0.000889
108 0.000880
109 0.000877
110 0.000876
111 0.000873
112 0.000870
113 0.000866
114 0.000858
115 0.000848
116 0.000834
117 0.000830
118 0.000828
119 0.000827
120 0.000826
121 0.000825
122 0.000824
123 0.000819
124 0.000818
125 0.000820
126 0.000822
127 0.000817
128 0.000813
129 0.000806
130 0.000801
131 0.000795
132 0.000791
133 0.000788
134 0.000786
135 0.000788
136 0.000789
137 0.000788
138 0.000782
139 0.000778
140 0.000772
141 0.000768
142 0.000761
143 0.000752
144 0.000747
145 0.000744
146 0.000739
147 0.000735
148 0.000728
149 0.000723
150 0.000721
151 0.000721
152 0.000727
153 0.000732
154 0.000732
155 0.000730
156 0.000728
157 0.000726
158 0.000714
159 0.000705
160 0.000701
161 0.000697
162 0.000691
163 0.000690
164 0.000686
165 0.000679
166 0.000676
167 0.000674
168 0.000674
169 0.000677
170 0.000676
171 0.000673
172 0.000667
173 0.000663
174 0.000660
175 0.000649
176 0.000642
177 0.000636
178 0.000636
179 0.000641
180 0.000644
181 0.000645
182 0.000645
183 0.000639
184 0.000636
185 0.000632
186 0.000629
187 0.000625
188 0.000620
189 0.000614
190 0.000614
191 0.000611
192 0.000607
193 0.000606
194 0.000601
195 0.000592
196 0.000588
197 0.000585
198 0.000581
199 0.000578
200 0.000574
201 0.000569
202 0.000567
203 0.000566
204 0.000565
205 0.000560
206 0.000554
207 0.000551
208 0.000552
209 0.000551
210 0.000545
211 0.000541
212 0.000532
213 0.000529
214 0.000520
215 0.000513
216 0.000512
217 0.000514
218 0.000514
219 0.000517
220 0.000519
221 0.000518
222 0.000514
223 0.000507
224 0.000501
225 0.000498
226 0.000492
227 0.000492
228 0.000487
229 0.000481
230 0.000478
231 0.000474
232 0.000469
233 0.000464
234 0.000460
235 0.000453
236 0.000448
237 0.000445
238 0.000443
239 0.000441
240 0.000437
241 0.000430
242 0.000424
243 0.000418
244 0.000412
245 0.000405
246 0.000399
247 0.000390
248 0.000387
249 0.000386
250 0.000387
251 0.000382
252 0.000382
253 0.000383
254 0.000390
255 0.000394
256 0.000397
257 0.000396
258 0.000395
259 0.000390
260 0.000387
261 0.000388
262 0.000388
263 0.000391
264 0.000393
265 0.000395
266 0.000399
267 0.000406
268 0.000412
269 0.000414
270 0.000414
271 0.000413
272 0.000417
273 0.000418
274 0.000414
275 0.000408
276 0.000402
277 0.000398
278 0.000394
279 0.000390
280 0.000385
281 0.000380
282 0.000377
283 0.000379
284 0.000375
285 0.000374
286 0.000365
287 0.000361
288 0.000360
289 0.000358
290 0.000353
291 0.000352
292 0.000349
293 0.000348
294 0.000345
295 0.000344
296 0.000334
297 0.000325
298 0.000316
299 0.000311
300 0.000312
301 0.000311
302 0.000315
303 0.000315
304 0.000317
305 0.000314
306 0.000315
307 0.000320
308 0.000332
309 0.000339
310 0.000344
311 0.000347
312 0.000349
313 0.000350
314 0.000349
315 0.000350
316 0.000348
317 0.000349
318 0.000354
319 0.000357
320 0.000357
321 0.000354
322 0.000351
323 0.000349
324 0.000346
325 0.000340
326 0.000334
327 0.000330
328 0.000326
329 0.000327
330 0.000325
331 0.000322
332 0.000319
333 0.000313
334 0.000306
335 0.000300
336 0.000297
337 0.000293
338 0.000291
339 0.000295
340 0.000298
341 0.000303
342 0.000304
343 0.000307
344 0.000312
345 0.000313
346 0.000309
347 0.000310
348 0.000315
349 0.000320
350 0.000319
351 0.000321
352 0.000324
353 0.000328
354 0.000333
355 0.000336
356 0.000335
357 0.000333
358 0.000330
359 0.000327
360 0.000327
361 0.000329
362 0.000331
363 0.000333
364 0.000334
365 0.000334
366 0.000332
367 0.000328
368 0.000325
369 0.000321
370 0.000322
371 0.000325
372 0.000332
373 0.000333
374 0.000340
375 0.000347
376 0.000351
377 0.000353
378 0.000351
379 0.000345
380 0.000340
381 0.000337
382 0.000333
383 0.000328
384 0.000323
385 0.000314
386 0.000311
387 0.000308
388 0.000302
389 0.000298
390 0.000296
391 0.000295
392 0.000291
393 0.000288
394 0.000282
395 0.000275
396 0.000267
397 0.000264
398 0.000264
399 0.000265
400 0.000268
401 0.000273
402 0.000276
403 0.000274
404 0.000274
405 0.000271
406 0.000272
407 0.000271
408 0.000269
409 0.000270
410 0.000270
411 0.000270
412 0.000268
413 0.000267
414 0.000265
415 0.000260
416 0.000250
417 0.000241
418 0.000236
419 0.000236
420 0.000235
421 0.000234
422 0.000233
423 0.000228
424 0.000227
425 0.000221
426 0.000214
427 0.000206
428 0.000201
429 0.000196
430 0.000198
431 0.000194
432 0.000191
433 0.000183
434 0.000177
435 0.000171
436 0.000170
437 0.000170
438 0.000170
439 0.000168
440 0.000169
441 0.000168
442 0.000171
443 0.000176
444 0.000179
445 0.000181
446 0.000181
447 0.000182
448 0.000180
449 0.000178
450 0.000177
451 0.000178
452 0.000172
453 0.000169
454 0.000174
455 0.000173
456 0.000172
457 0.000172
458 0.000170
459 0.000167
460 0.000166
461 0.000164
462 0.000162
463 0.000160
464 0.000160
465 0.000164
466 0.000167
467 0.000167
468 0.000164
469 0.000164
470 0.000165
471 0.000165
472 0.000165
473 0.000168
474 0.000171
475 0.000171
476 0.000171
477 0.000170
478 0.000167
479 0.000162
480 0.000161
481 0.000162
482 0.000165
483 0.000167
484 0.000165
485 0.000161
486 0.000156
487 0.000153
488 0.000151
489 0.000150
490 0.000150
491 0.000149
492 0.000148
493 0.000150
494 0.000151
495 0.000152
496 0.000157
497 0.000160
498 0.000164
499 0.000165
500 0.000167
501 0.000170
502 0.000173
503 0.000173
504 0.000176
505 0.000177
506 0.000176
507 0.000172
508 0.000170
509 0.000167
510 0.000168
511 0.000175
512 0.000182
513 0.000185
514 0.000187
515 0.000186
516 0.000185
517 0.000185
518 0.000187
519 0.000186
520 0.000184
521 0.000183
522 0.000182
523 0.000183
524 0.000183
525 0.000181
526 0.000183
527 0.000187
528 0.000191
529 0.000195
530 0.000196
531 0.000194
532 0.000192
533 0.000188
534 0.000183
535 0.000179
536 0.000177
537 0.000175
538 0.000174
539 0.000174
540 0.000173
541 0.000175
542 0.000177
543 0.000181
544 0.000184
545 0.000187
546 0.000188
547 0.000186
548 0.000183
549 0.000180
550 0.000180
551 0.000181
552 0.000187
553 0.000190
554 0.000189
555 0.000187
556 0.000189
557 0.000196
558 0.000200
559 0.000198
560 0.000194
561 0.000193
562 0.000192
563 0.000192
564 0.000191
565 0.000192
566 0.000192
567 0.000191
568 0.000192
569 0.000190
570 0.000185
571 0.000181
572 0.000178
573 0.000173
574 0.000168
575 0.000165
576 0.000161
577 0.000155
578 0.000149
579 0.000147
580 0.000146
581 0.000143
582 0.000140
583 0.000139
584 0.000138
585 0.000135
586 0.000132
587 0.000131
588 0.000129
589 0.000128
590 0.000129
591 0.000129
592 0.000134
593 0.000139
594 0.000143
595 0.000145
596 0.000146
597 0.000151
598 0.000154
599 0.000156
600 0.000158
601 0.000158
602 0.000161
603 0.000164
604 0.000167
605 0.000168
606 0.000170
607 0.000174
608 0.000177
609 0.000179
610 0.000182
611 0.000186
612 0.000187
613 0.000184
614 0.000182
615 0.000181
616 0.000179
617 0.000178
618 0.000177
619 0.000174
620 0.000173
621 0.000175
622 0.000177
623 0.000182
624 0.000186
625 0.000186
626 0.000188
627 0.000191
628 0.000193
629 0.000195
630 0.000199
631 0.000203
632 0.000206
633 0.000210
634 0.000212
635 0.000211
636 0.000213
637 0.000214
638 0.000216
639 0.000218
640 0.000215
641 0.000216
642 0.000212
643 0.000214
644 0.000215
645 0.000213
646 0.000208
647 0.000205
648 0.000199
649 0.000196
650 0.000192
651 0.000188
652 0.000183
653 0.000180
654 0.000176
655 0.000172
656 0.000169
657 0.000169
658 0.000168
659 0.000166
660 0.000161
661 0.000156
662 0.000152
663 0.000149
664 0.000151
665 0.000152
666 0.000149
667 0.000149
668 0.000147
669 0.000143
670 0.000140
671 0.000136
672 0.000129
673 0.000125
674 0.000125
675 0.000125
676 0.000125
677 0.000124
678 0.000123
679 0.000120
680 0.000118
681 0.000116
682 0.000114
683 0.000114
684 0.000116
685 0.000120
686 0.000124
687 0.000126
688 0.000124
689 0.000125
690 0.000127
691 0.000127
692 0.000127
693 0.000130
694 0.000134
695 0.000134
696 0.000135
697 0.000136
698 0.000137
699 0.000135
700 0.000131
701 0.000130
702 0.000130
703 0.000128
704 0.000129
705 0.000130
706 0.000132
707 0.000133
708 0.000131
709 0.000131
710 0.000131
711 0.000130
712 0.000129
713 0.000129
714 0.000131
715 0.000134
716 0.000136
717 0.000139
718 0.000141
719 0.000141
720 0.000142
721 0.000144
722 0.000147
723 0.000153
724 0.000156
725 0.000159
726 0.000160
727 0.000159
728 0.000158
729 0.000159
730 0.000160
731 0.000159
732 0.000159
733 0.000160
734 0.000160
735 0.000158
736 0.000158
737 0.000157
738 0.000157
739 0.000156
740 0.000155
741 0.000152
742 0.000149
743 0.000147
744 0.000143
745 0.000139
746 0.000133
747 0.000126
748 0.000120
749 0.000119
750 0.000120
751 0.000123
752 0.000122
753 0.000120
754 0.000117
755 0.000115
756 0.000116
757 0.000116
758 0.000116
759 0.000114
760 0.000114
761 0.000114
762 0.000114
763 0.000117
764 0.000118
765 0.000116
766 0.000115
767 0.000113
768 0.000112
769 0.000111
770 0.000110
771 0.000109
772 0.000107
773 0.000106
774 0.000105
775 0.000103
776 0.000101
777 0.000097
778 0.000094
779 0.000090
780 0.000085
781 0.000078
782 0.000074
783 0.000074
784 0.000077
785 0.000078
786 0.000079
787 0.000080
788 0.000080
789 0.000078
790 0.000077
791 0.000078
792 0.000077
793 0.000075
794 0.000074
795 0.000071
796 0.000072
797 0.000072
798 0.000071
799 0.000071
800 0.000072
801 0.000073
802 0.000074
803 0.000073
804 0.000071
805 0.000066
806 0.000064
807 0.000060
808 0.000057
809 0.000052
