# i correlation
1 0.001583
2 0.001526
3 0.001486
4 0.001453
5 0.001421
6 0.001389
7 0.001361
8 0.001339
9 0.001322
10 0.001311
11 0.001299
12 0.001285
13 0.001276
14 0.001269
15 0.001266
16 0.001254
17 0.001240
18 0.001230
19 0.001217
20 0.001203
21 0.001193
22 0.001183
23 0.001171
24 0.001164
25 0.001152
26 0.001139
27 0.001131
28 0.001124
29 0.001121
30 0.001118
31 0.001116
32 0.001115
33 0.001116
34 0.001114
35 0.001104
36 0.001099
37 0.001095
38 0.001087
39 0.001082
40 0.001071
41 0.001061
42 0.001052
43 0.001039
44 0.001030
45 0.001029
46 0.001024
47 0.001020
48 0.001015
49 0.001018
50 0.001021
51 0.001022
52 0.001019
53 0.001014
54 0.001009
55 0.001007
56 0.001008
57 0.001002
58 0.000997
59 0.000998
60 0.001000
61 0.000995
62 0.000989
63 0.000989
64 0.000988
65 0.000982
66 0.000978
67 0.000976
68 0.000971
69 0.000965
70 0.000958
71 0.000957
72 0.000958
73 0.000954
74 0.000954
75 0.000956
76 0.000960
77 0.000962
78 0.000970
79 0.000976
80 0.000984
81 0.000987
82 0.000986
83 0.000979
84 0.000975
85 0.000968
86 0.000961
87 0.000956
88 0.000949
89 0.000943
90 0.000935
91 0.000924
92 0.000917
93 0.000909
94 0.000898
95 0.000886
96 0.000879
97 0.000875
98 0.000874
99 0.000873
100 0.000878
101 0.000875
102 0.000871
103 0.000867
104 0.000858
105 0.000850
106 0.000839
107 0.000827
108 0.000822
109 0.000820
110 0.000821
111 0.000820
112 0.000821
113 0.000823
114 0.000826
115 0.000836
116 0.000840
117 0.000842
118 0.000846
119 0.000852
120 0.000859
121 0.000858
122 0.000857
123 0.000854
124 0.000849
125 0.000849
126 0.000852
127 0.000853
128 0.000855
129 0.000854
130 0.000860
131 0.000864
132 0.000863
133 0.000865
134 0.000875
135 0.000883
136 0.000888
137 0.000888
138 0.000890
139 0.000893
140 0.000897
141 0.000896
142 0.000894
143 0.000893
144 0.000892
145 0.000886
146 0.000882
147 0.000876
148 0.000873
149 0.000879
150 0.000879
151 0.000876
152 0.000873
153 0.000877
154 0.000879
155 0.000878
156 0.000872
157 0.000862
158 0.000848
159 0.000835
160 0.000828
161 0.000819
162 0.000810
163 0.000800
164 0.000796
165 0.000799
166 0.000798
167 0.000797
168 0.000801
169 0.000802
170 0.000805
171 0.000804
172 0.000806
173 0.000804
174 0.000798
175 0.000792
176 0.000785
177 0.000773
178 0.000765
179 0.000755
180 0.000751
181 0.000747
182 0.000742
183 0.000739
184 0.000734
185 0.000732
186 0.000730
187 0.000731
188 0.000728
189 0.000725
190 0.000726
191 0.000730
192 0.000731
193 0.000726
194 0.000722
195 0.000718
196 0.000714
197 0.000710
198 0.000708
199 0.000708
200 0.000707
201 0.000715
202 0.000729
203 0.000737
204 0.000740
205 0.000741
206 0.000746
207 0.000753
208 0.000752
209 0.000752
210 0.000750
211 0.000747
212 0.000750
213 0.000753
214 0.000749
215 0.000744
216 0.000744
217 0.000744
218 0.000743
219 0.000739
220 0.000739
221 0.000741
222 0.000740
223 0.000734
224 0.000734
225 0.000735
226 0.000733
227 0.000729
228 0.000727
229 0.000725
230 0.000721
231 0.000718
232 0.000708
233 0.000698
234 0.000692
235 0.000691
236 0.000683
237 0.000678
238 0.000671
239 0.000664
240 0.000665
241 0.000666
242 0.000668
243 0.000665
244 0.000662
245 0.000659
246 0.000657
247 0.000649
248 0.000642
249 0.000636
250 0.000634
251 0.000635
252 0.000642
253 0.000648
254 0.000658
255 0.000666
256 0.000669
257 0.000668
258 0.000665
259 0.000660
260 0.000651
261 0.000646
262 0.000646
263 0.000642
264 0.000635
265 0.000623
266 0.000619
267 0.000619
268 0.000621
269 0.000627
270 0.000634
271 0.000640
272 0.000637
273 0.000636
274 0.000637
275 0.000636
276 0.000637
277 0.000634
278 0.000630
279 0.000622
280 0.000617
281 0.000615
282 0.000610
283 0.000606
284 0.000603
285 0.000608
286 0.000608
287 0.000605
288 0.000602
289 0.000599
290 0.000598
291 0.000603
292 0.000601
293 0.000601
294 0.000599
295 0.000602
296 0.000600
297 0.000595
298 0.000588
299 0.000577
300 0.000571
301 0.000564
302 0.000561
303 0.000560
304 0.000562
305 0.000564
306 0.000570
307 0.000572
308 0.000565
309 0.000565
310 0.000564
311 0.000560
312 0.000557
313 0.000550
314 0.000543
315 0.000537
316 0.000531
317 0.000520
318 0.000517
319 0.000513
320 0.000509
321 0.000511
322 0.000516
323 0.000512
324 0.000509
325 0.000506
326 0.000503
327 0.000504
328 0.000506
329 0.000506
330 0.000508
331 0.000504
332 0.000501
333 0.000497
334 0.000492
335 0.000485
336 0.000483
337 0.000481
338 0.000481
339 0.000482
340 0.000483
341 0.000483
342 0.000490
343 0.000498
344 0.000501
345 0.000503
346 0.000509
347 0.000512
348 0.000512
349 0.000505
350 0.000492
351 0.000486
352 0.000487
353 0.000484
354 0.000484
355 0.000486
356 0.000492
357 0.000500
358 0.000503
359 0.000506
360 0.000505
361 0.000506
362 0.000508
363 0.000505
364 0.000500
365 0.000498
366 0.000494
367 0.000489
368 0.000480
369 0.000478
370 0.000478
371 0.000481
372 0.000481
373 0.000482
374 0.000480
375 0.000482
376 0.000477
377 0.000475
378 0.000476
379 0.000470
380 0.000462
381 0.000457
382 0.000449
383 0.000437
384 0.000431
385 0.000428
386 0.000425
387 0.000418
388 0.000413
389 0.000414
390 0.000416
391 0.000418
392 0.000414
393 0.000414
394 0.000417
395 0.000418
396 0.000417
397 0.000415
398 0.000411
399 0.000408
400 0.000405
401 0.000398
402 0.000393
403 0.000388
404 0.000382
405 0.000378
406 0.000377
407 0.000376
408 0.000375
409 0.000373
410 0.000376
411 0.000381
412 0.000388
413 0.000391
414 0.000388
415 0.000388
416 0.000389
417 0.000391
418 0.000393
419 0.000395
420 0.000398
421 0.000399
422 0.000401
423 0.000403
424 0.000405
425 0.000404
426 0.000407
427 0.000412
428 0.000416
429 0.000415
430 0.000412
431 0.000411
432 0.000412
433 0.000414
434 0.000411
435 0.000406
436 0.000402
437 0.000399
438 0.000389
439 0.000381
440 0.000377
441 0.000373
442 0.000372
443 0.000369
444 0.000371
445 0.000367
446 0.000367
447 0.000369
448 0.000368
449 0.000371
450 0.000371
451 0.000373
452 0.000375
453 0.000377
454 0.000371
455 0.000368
456 0.000367
457 0.000368
458 0.000372
459 0.000374
460 0.000372
461 0.000371
462 0.000372
463 0.000372
464 0.000374
465 0.000375
466 0.000376
467 0.000375
468 0.000373
469 0.000372
470 0.000368
471 0.000364
472 0.000360
473 0.000358
474 0.000363
475 0.000367
476 0.000374
477 0.000379
478 0.000381
479 0.000382
480 0.000384
481 0.000383
482 0.000385
483 0.000388
484 0.000390
485 0.000391
486 0.000393
487 0.000396
488 0.000399
489 0.000399
490 0.000400
491 0.000402
492 0.000403
493 0.000405
494 0.000402
495 0.000400
496 0.000401
497 0.000405
498 0.000409
499 0.000412
500 0.000413
501 0.000410
502 0.000408
503 0.000401
504 0.000393
505 0.000385
506 0.000376
507 0.000368
508 0.000367
509 0.000369
510 0.000368
511 0.000371
512 0.000377
513 0.000389
514 0.000396
515 0.000405
516 0.000411
517 0.000412
518 0.000407
519 0.000402
520 0.000399
521 0.000395
522 0.000387
523 0.000378
524 0.000376
525 0.000376
526 0.000372
527 0.000366
528 0.000361
529 0.000357
530 0.000354
531 0.000355
532 0.000356
533 0.000355
534 0.000355
535 0.000350
536 0.000342
537 0.000334
538 0.000327
539 0.000322
540 0.000316
541 0.000308
542 0.000303
543 0.000295
544 0.000289
545 0.000287
546 0.000288
547 0.000291
548 0.000294
549 0.000299
550 0.000301
551 0.000302
552 0.000303
553 0.000302
554 0.000304
555 0.000307
556 0.000312
557 0.000312
558 0.000313
559 0.000316
560 0.000316
561 0.000319
562 0.000324
563 0.000323
564 0.000329
565 0.000331
566 0.000335
567 0.000341
568 0.000346
569 0.000351
570 0.000352
571 0.000351
572 0.000354
573 0.000358
574 0.000358
575 0.000355
576 0.000354
577 0.000355
578 0.000355
579 0.000356
580 0.000360
581 0.000360
582 0.000359
583 0.000357
584 0.000356
585 0.000352
586 0.000348
587 0.000343
588 0.000340
589 0.000337
590 0.000334
591 0.000334
592 0.000336
593 0.000339
594 0.000338
595 0.000336
596 0.000336
597 0.000338
598 0.000342
599 0.000344
600 0.000346
601 0.000349
602 0.000353
603 0.000355
604 0.000354
605 0.000349
606 0.000344
607 0.000341
608 0.000338
609 0.000335
610 0.000329
611 0.000325
612 0.000322
613 0.000325
614 0.000328
615 0.000330
616 0.000332
617 0.000332
618 0.000333
619 0.000335
620 0.000331
621 0.000327
622 0.000318
623 0.000312
624 0.000309
625 0.000309
626 0.000306
627 0.000302
628 0.000299
629 0.000295
630 0.000291
631 0.000291
632 0.000291
633 0.000290
634 0.000295
635 0.000297
636 0.000299
637 0.000299
638 0.000294
639 0.000290
640 0.000289
641 0.000290
642 0.000291
643 0.000293
644 0.000296
645 0.000298
646 0.000299
647 0.000298
648 0.000301
649 0.000304
650 0.000305
651 0.000304
652 0.000303
653 0.000302
654 0.000299
655 0.000293
656 0.000287
657 0.000279
658 0.000274
659 0.000269
660 0.000266
661 0.000264
662 0.000262
663 0.000257
664 0.000255
665 0.000251
666 0.000245
667 0.000238
668 0.000237
669 0.000234
670 0.000234
671 0.000231
672 0.000227
673 0.000225
674 0.000225
675 0.000225
676 0.000223
677 0.000220
678 0.000216
679 0.000211
680 0.000209
681 0.000210
682 0.000212
683 0.000207
684 0.000204
685 0.000204
686 0.000205
687 0.000205
688 0.000206
689 0.000207
690 0.000205
691 0.000203
692 0.000202
693 0.000200
694 0.000196
695 0.000194
696 0.000194
697 0.000191
698 0.000187
699 0.000187
700 0.000189
701 0.000191
702 0.000191
703 0.000193
704 0.000196
705 0.000198
706 0.000198
707 0.000198
708 0.000195
709 0.000187
710 0.000180
711 0.000175
712 0.000170
713 0.000165
714 0.000159
715 0.000153
716 0.000145
717 0.000142
718 0.000141
719 0.000140
720 0.000137
721 0.000138
722 0.000142
723 0.000145
724 0.000149
725 0.000150
726 0.000151
727 0.000156
728 0.000160
729 0.000164
730 0.000164
731 0.000160
732 0.000159
733 0.000158
734 0.000161
735 0.000162
736 0.000159
737 0.000159
738 0.000161
739 0.000158
740 0.000154
741 0.000151
742 0.000151
743 0.000151
744 0.000152
745 0.000152
746 0.000156
747 0.000158
748 0.000158
749 0.000159
750 0.000158
751 0.000157
752 0.000158
753 0.000158
754 0.000157
755 0.000153
756 0.000152
757 0.000150
758 0.000148
759 0.000147
760 0.000147
761 0.000144
762 0.000144
763 0.000145
764 0.000147
765 0.000148
766 0.000150
767 0.000150
768 0.000153
769 0.000155
770 0.000154
771 0.000157
772 0.000158
773 0.000158
774 0.000160
775 0.000158
776 0.000158
777 0.000157
778 0.000156
779 0.000155
780 0.000158
781 0.000162
782 0.000160
783 0.000160
784 0.000163
785 0.000166
786 0.000170
787 0.000174
788 0.000177
789 0.000180
790 0.000181
791 0.000182
792 0.000181
793 0.000181
794 0.000180
795 0.000174
796 0.000171
797 0.000167
798 0.000163
799 0.000159
800 0.000154
801 0.000147
802 0.000145
803 0.000141
804 0.000139
805 0.000138
806 0.000140
807 0.000139
808 0.000139
809 0.000139
