# i correlation
1 0.001501
2 0.001455
3 0.001414
4 0.001374
5 0.001340
6 0.001306
7 0.001280
8 0.001255
9 0.001228
10 0.001204
11 0.001184
12 0.001162
13 0.001147
14 0.001128
15 0.001110
16 0.001100
17 0.001090
18 0.001081
19 0.001069
20 0.001059
21 0.001052
22 0.001039
23 0.001033
24 0.001030
25 0.001018
26 0.001012
27 0.001001
28 0.000987
29 0.000976
30 0.000968
31 0.000969
32 0.000967
33 0.000972
34 0.000978
35 0.000976
36 0.000968
37 0.000961
38 0.000955
39 0.000950
40 0.000946
41 0.000944
42 0.000939
43 0.000928
44 0.000919
45 0.000907
46 0.000892
47 0.000884
48 0.000872
49 0.000865
50 0.000864
51 0.000859
52 0.000863
53 0.000866
54 0.000868
55 0.000870
56 0.000871
57 0.000870
58 0.000870
59 0.000864
60 0.000859
61 0.000854
62 0.000850
63 0.000848
64 0.000844
65 0.000843
66 0.000843
67 0.000841
68 0.000837
69 0.000829
70 0.000824
71 0.000821
72 0.000814
73 0.000809
74 0.000811
75 0.000811
76 0.000808
77 0.000801
78 0.000794
79 0.000785
80 0.000774
81 0.000766
82 0.000761
83 0.000757
84 0.000757
85 0.000753
86 0.000746
87 0.000740
88 0.000729
89 0.000721
90 0.000713
91 0.000706
92 0.000699
93 0.000691
94 0.000691
95 0.000689
96 0.000686
97 0.000683
98 0.000683
99 0.000688
100 0.000692
101 0.000697
102 0.000700
103 0.000705
104 0.000701
105 0.000697
106 0.000692
107 0.000692
108 0.000691
109 0.000688
110 0.000688
111 0.000689
112 0.000686
113 0.000680
114 0.000676
115 0.000675
116 0.000673
117 0.000671
118 0.000676
119 0.000680
120 0.000682
121 0.000687
122 0.000685
123 0.000681
124 0.000677
125 0.000674
126 0.000669
127 0.000669
128 0.000673
129 0.000673
130 0.000676
131 0.000672
132 0.000668
133 0.000660
134 0.000654
135 0.000652
136 0.000648
137 0.000645
138 0.000645
139 0.000648
140 0.000650
141 0.000650
142 0.000654
143 0.000656
144 0.000653
145 0.000649
146 0.000641
147 0.000628
148 0.000621
149 0.000617
150 0.000612
151 0.000606
152 0.000606
153 0.000606
154 0.000606
155 0.000605
156 0.000612
157 0.000616
158 0.000618
159 0.000620
160 0.000616
161 0.000614
162 0.000613
163 0.000607
164 0.000603
165 0.000600
166 0.000598
167 0.000594
168 0.000590
169 0.000590
170 0.000593
171 0.000591
172 0.000586
173 0.000583
174 0.000580
175 0.000580
176 0.000579
177 0.000582
178 0.000585
179 0.000586
180 0.000591
181 0.000593
182 0.000592
183 0.000595
184 0.000597
185 0.000596
186 0.000592
187 0.000590
188 0.000583
189 0.000578
190 0.000578
191 0.000578
192 0.000579
193 0.000581
194 0.000581
195 0.000583
196 0.000586
197 0.000588
198 0.000588
199 0.000586
200 0.000582
201 0.000574
202 0.000568
203 0.000559
204 0.000555
205 0.000546
206 0.000540
207 0.000529
208 0.000518
209 0.000510
210 0.000501
211 0.000492
212 0.000484
213 0.000475
214 0.000476
215 0.000473
216 0.000470
217 0.000467
218 0.000468
219 0.000472
220 0.000475
221 0.000474
222 0.000476
223 0.000479
224 0.000483
225 0.000488
226 0.000489
227 0.000495
228 0.000499
229 0.000497
230 0.000499
231 0.000502
232 0.000501
233 0.000504
234 0.000506
235 0.000509
236 0.000506
237 0.000504
238 0.000502
239 0.000497
240 0.000496
241 0.000496
242 0.000493
243 0.000494
244 0.000493
245 0.000490
246 0.000487
247 0.000481
248 0.000476
249 0.000475
250 0.000470
251 0.000468
252 0.000468
253 0.000470
254 0.000474
255 0.000480
256 0.000486
257 0.000488
258 0.000488
259 0.000488
260 0.000486
261 0.000484
262 0.000482
263 0.000478
264 0.000473
265 0.000467
266 0.000463
267 0.000462
268 0.000460
269 0.000459
270 0.000459
271 0.000459
272 0.000459
273 0.000461
274 0.000463
275 0.000465
276 0.000470
277 0.000475
278 0.000480
279 0.000484
280 0.000489
281 0.000494
282 0.000502
283 0.000502
284 0.000500
285 0.000493
286 0.000488
287 0.000484
288 0.000478
289 0.000473
290 0.000471
291 0.000466
292 0.000462
293 0.000459
294 0.000461
295 0.000465
296 0.000468
297 0.000471
298 0.000477
299 0.000486
300 0.000492
301 0.000498
302 0.000503
303 0.000504
304 0.000502
305 0.000504
306 0.000504
307 0.000506
308 0.000510
309 0.000508
310 0.000513
311 0.000515
312 0.000519
313 0.000520
314 0.000522
315 0.000526
316 0.000522
317 0.000521
318 0.000520
319 0.000519
320 0.000514
321 0.000510
322 0.000503
323 0.000497
324 0.000488
325 0.000482
326 0.000477
327 0.000468
328 0.000461
329 0.000452
330 0.000444
331 0.000436
332 0.000429
333 0.000419
334 0.000410
335 0.000400
336 0.000399
337 0.000395
338 0.000395
339 0.000392
340 0.000390
341 0.000391
342 0.000390
343 0.000386
344 0.000385
345 0.000385
346 0.000384
347 0.000383
348 0.000385
349 0.000389
350 0.000394
351 0.000393
352 0.000396
353 0.000400
354 0.000404
355 0.000408
356 0.000406
357 0.000411
358 0.000414
359 0.000413
360 0.000408
361 0.000403
362 0.000405
363 0.000402
364 0.000404
365 0.000404
366 0.000403
367 0.000402
368 0.000401
369 0.000394
370 0.000388
371 0.000386
372 0.000376
373 0.000376
374 0.000376
375 0.000375
376 0.000376
377 0.000374
378 0.000372
379 0.000365
380 0.000359
381 0.000356
382 0.000352
383 0.000350
384 0.000350
385 0.000349
386 0.000353
387 0.000353
388 0.000354
389 0.000360
390 0.000358
391 0.000356
392 0.000357
393 0.000356
394 0.000356
395 0.000353
396 0.000348
397 0.000348
398 0.000344
399 0.000345
400 0.000346
401 0.000350
402 0.000354
403 0.000354
404 0.000356
405 0.000354
406 0.000352
407 0.000351
408 0.000352
409 0.000352
410 0.000355
411 0.000358
412 0.000363
413 0.000366
414 0.000366
415 0.000370
416 0.000371
417 0.000370
418 0.000372
419 0.000367
420 0.000368
421 0.000367
422 0.000364
423 0.000364
424 0.000365
425 0.000367
426 0.000372
427 0.000373
428 0.000376
429 0.000379
430 0.000380
431 0.000378
432 0.000375
433 0.000370
434 0.000366
435 0.000360
436 0.000355
437 0.000350
438 0.000347
439 0.000349
440 0.000350
441 0.000347
442 0.000345
443 0.000342
444 0.000338
445 0.000334
446 0.000328
447 0.000321
448 0.000315
449 0.000312
450 0.000307
451 0.000302
452 0.000300
453 0.000300
454 0.000296
455 0.000291
456 0.000288
457 0.000287
458 0.000284
459 0.000281
460 0.000286
461 0.000290
462 0.000290
463 0.000291
464 0.000292
465 0.000296
466 0.000300
467 0.000306
468 0.000315
469 0.000321
470 0.000329
471 0.000335
472 0.000340
473 0.000351
474 0.000356
475 0.000359
476 0.000364
477 0.000364
478 0.000366
479 0.000367
480 0.000369
481 0.000370
482 0.000370
483 0.000368
484 0.000366
485 0.000365
486 0.000364
487 0.000362
488 0.000357
489 0.000352
490 0.000348
491 0.000342
492 0.000339
493 0.000334
494 0.000329
495 0.000324
496 0.000321
497 0.000321
498 0.000323
499 0.000324
500 0.000326
501 0.000329
502 0.000331
503 0.000334
504 0.000337
505 0.000335
506 0.000338
507 0.000343
508 0.000349
509 0.000352
510 0.000355
511 0.000356
512 0.000354
513 0.000349
514 0.000348
515 0.000348
516 0.000346
517 0.000342
518 0.000333
519 0.000326
520 0.000317
521 0.000307
522 0.000295
523 0.000284
524 0.000277
525 0.000268
526 0.000259
527 0.000253
528 0.000247
529 0.000240
530 0.000234
531 0.000230
532 0.000231
533 0.000237
534 0.000243
535 0.000250
536 0.000252
537 0.000252
538 0.000252
539 0.000254
540 0.000253
541 0.000249
542 0.000248
543 0.000249
544 0.000249
545 0.000254
546 0.000255
547 0.000256
548 0.000258
549 0.000256
550 0.000258
551 0.000260
552 0.000262
553 0.000266
554 0.000266
555 0.000266
556 0.000265
557 0.000265
558 0.000267
559 0.000268
560 0.000268
561 0.000264
562 0.000256
563 0.000248
564 0.000244
565 0.000237
566 0.000229
567 0.000221
568 0.000218
569 0.000218
570 0.000216
571 0.000218
572 0.000218
573 0.000222
574 0.000225
575 0.000224
576 0.000224
577 0.000223
578 0.000223
579 0.000220
580 0.000214
581 0.000210
582 0.000207
583 0.000200
584 0.000197
585 0.000194
586 0.000189
587 0.000183
588 0.000182
589 0.000183
590 0.000180
591 0.000180
592 0.000183
593 0.000187
594 0.000188
595 0.000191
596 0.000191
597 0.000190
598 0.000191
599 0.000191
600 0.000190
601 0.000188
602 0.000187
603 0.000187
604 0.000183
605 0.000178
606 0.000173
607 0.000166
608 0.000164
609 0.000165
610 0.000165
611 0.000168
612 0.000167
613 0.000169
614 0.000169
615 0.000167
616 0.000167
617 0.000165
618 0.000163
619 0.000161
620 0.000158
621 0.000154
622 0.000153
623 0.000151
624 0.000149
625 0.000143
626 0.000140
627 0.000141
628 0.000137
629 0.000135
630 0.000135
631 0.000133
632 0.000131
633 0.000128
634 0.000125
635 0.000125
636 0.000125
637 0.000127
638 0.000132
639 0.000134
640 0.000137
641 0.000137
642 0.000137
643 0.000139
644 0.000142
645 0.000143
646 0.000147
647 0.000148
648 0.000149
649 0.000152
650 0.000152
651 0.000153
652 0.000153
653 0.000155
654 0.000157
655 0.000160
656 0.000159
657 0.000159
658 0.000159
659 0.000155
660 0.000156
661 0.000154
662 0.000151
663 0.000151
664 0.000152
665 0.000154
666 0.000155
667 0.000156
668 0.000158
669 0.000159
670 0.000160
671 0.000161
672 0.000164
673 0.000167
674 0.000170
675 0.000169
676 0.000172
677 0.000171
678 0.000171
679 0.000173
680 0.000174
681 0.000173
682 0.000166
683 0.000161
684 0.000159
685 0.000157
686 0.000155
687 0.000153
688 0.000153
689 0.000151
690 0.000146
691 0.000140
692 0.000137
693 0.000131
694 0.000130
695 0.000131
696 0.000135
697 0.000138
698 0.000138
699 0.000139
700 0.000141
701 0.000143
702 0.000144
703 0.000143
704 0.000143
705 0.000144
706 0.000145
707 0.000150
708 0.000153
709 0.000156
710 0.000159
711 0.000160
712 0.000162
713 0.000159
714 0.000159
715 0.000158
716 0.000156
717 0.000154
718 0.000152
719 0.000148
720 0.000150
721 0.000150
722 0.000148
723 0.000148
724 0.000145
725 0.000143
726 0.000139
727 0.000135
728 0.000140
729 0.000142
730 0.000147
731 0.000152
732 0.000155
733 0.000159
734 0.000162
735 0.000166
736 0.000167
737 0.000166
738 0.000168
739 0.000170
740 0.000170
741 0.000171
742 0.000174
743 0.000174
744 0.000175
745 0.000173
746 0.000170
747 0.000166
748 0.000158
749 0.000155
750 0.000149
751 0.000145
752 0.000145
753 0.000143
754 0.000142
755 0.000142
756 0.000140
757 0.000138
758 0.000134
759 0.000132
760 0.000125
761 0.000119
762 0.000114
763 0.000112
764 0.000109
765 0.000107
766 0.000105
767 0.000104
768 0.000106
769 0.000105
770 0.000106
771 0.000103
772 0.000102
773 0.000102
774 0.000103
775 0.000108
776 0.000113
777 0.000112
778 0.000113
779 0.000114
780 0.000116
781 0.000116
782 0.000115
783 0.000117
784 0.000118
785 0.000118
786 0.000122
787 0.000123
788 0.000130
789 0.000132
790 0.000134
791 0.000140
792 0.000143
793 0.000145
794 0.000148
795 0.000148
796 0.000152
797 0.000155
798 0.000155
799 0.000159
800 0.000157
801 0.000157
802 0.000157
803 0.000153
804 0.000150
805 0.000144
806 0.000141
807 0.000139
808 0.000137
809 0.000136
