# i correlation
1 0.001880
2 0.001824
3 0.001778
4 0.001744
5 0.001714
6 0.001690
7 0.001672
8 0.001652
9 0.001627
10 0.001599
11 0.001577
12 0.001556
13 0.001543
14 0.001530
15 0.001518
16 0.001499
17 0.001483
18 0.001468
19 0.001459
20 0.001451
21 0.001448
22 0.001444
23 0.001434
24 0.001424
25 0.001414
26 0.001400
27 0.001386
28 0.001372
29 0.001363
30 0.001358
31 0.001350
32 0.001340
33 0.001327
34 0.001316
35 0.001305
36 0.001298
37 0.001286
38 0.001284
39 0.001283
40 0.001278
41 0.001271
42 0.001268
43 0.001271
44 0.001271
45 0.001269
46 0.001265
47 0.001260
48 0.001257
49 0.001250
50 0.001244
51 0.001242
52 0.001241
53 0.001240
54 0.001237
55 0.001234
56 0.001232
57 0.001226
58 0.001218
59 0.001211
60 0.001206
61 0.001206
62 0.001204
63 0.001197
64 0.001195
65 0.001189
66 0.001183
67 0.001180
68 0.001179
69 0.001183
70 0.001185
71 0.001180
72 0.001172
73 0.001170
74 0.001167
75 0.001170
76 0.001170
77 0.001171
78 0.001169
79 0.001165
80 0.001161
81 0.001157
82 0.001157
83 0.001161
84 0.001169
85 0.001172
86 0.001173
87 0.001172
88 0.001166
89 0.001158
90 0.001151
91 0.001146
92 0.001139
93 0.001127
94 0.001119
95 0.001108
96 0.001101
97 0.001102
98 0.001099
99 0.001093
100 0.001084
101 0.001072
102 0.001060
103 0.001053
104 0.001046
105 0.001041
106 0.001040
107 0.001039
108 0.001033
109 0.001030
110 0.001027
111 0.001020
112 0.001015
113 0.001010
114 0.001002
115 0.000997
116 0.000990
117 0.000979
118 0.000971
119 0.000966
120 0.000962
121 0.000955
122 0.000948
123 0.000944
124 0.000939
125 0.000934
126 0.000930
127 0.000924
128 0.000913
129 0.000904
130 0.000901
131 0.000900
132 0.000899
133 0.000902
134 0.000901
135 0.000900
136 0.000893
137 0.000887
138 0.000878
139 0.000873
140 0.000869
141 0.000866
142 0.000864
143 0.000859
144 0.000857
145 0.000859
146 0.000867
147 0.000869
148 0.000866
149 0.000864
150 0.000862
151 0.000858
152 0.000856
153 0.000853
154 0.000853
155 0.000855
156 0.000859
157 0.000856
158 0.000856
159 0.000862
160 0.000873
161 0.000876
162 0.000878
163 0.000879
164 0.000880
165 0.000877
166 0.000877
167 0.000882
168 0.000880
169 0.000876
170 0.000869
171 0.000865
172 0.000861
173 0.000859
174 0.000858
175 0.000854
176 0.000849
177 0.000845
178 0.000843
179 0.000840
180 0.000831
181 0.000823
182 0.000817
183 0.000803
184 0.000793
185 0.000785
186 0.000781
187 0.000775
188 0.000773
189 0.000773
190 0.000775
191 0.000777
192 0.000775
193 0.000766
194 0.000760
195 0.000754
196 0.000749
197 0.000749
198 0.000743
199 0.000737
200 0.000729
201 0.000720
202 0.000713
203 0.000713
204 0.000714
205 0.000711
206 0.000705
207 0.000698
208 0.000687
209 0.000676
210 0.000665
211 0.000657
212 0.000651
213 0.000645
214 0.000636
215 0.000628
216 0.000622
217 0.000621
218 0.000622
219 0.000623
220 0.000629
221 0.000631
222 0.000636
223 0.000637
224 0.000641
225 0.000642
226 0.000642
227 0.000641
228 0.000643
229 0.000644
230 0.000652
231 0.000656
232 0.000648
233 0.000644
234 0.000639
235 0.000638
236 0.000636
237 0.000635
238 0.000633
239 0.000629
240 0.000620
241 0.000613
242 0.000606
243 0.000604
244 0.000602
245 0.000601
246 0.000606
247 0.000608
248 0.000611
249 0.000610
250 0.000609
251 0.000605
252 0.000597
253 0.000595
254 0.000588
255 0.000579
256 0.000567
257 0.000560
258 0.000558
259 0.000561
260 0.000567
261 0.000570
262 0.000568
263 0.000566
264 0.000565
265 0.000565
266 0.000566
267 0.000568
268 0.000571
269 0.000576
270 0.000576
271 0.000581
272 0.000586
273 0.000591
274 0.000596
275 0.000602
276 0.000609
277 0.000612
278 0.000615
279 0.000618
280 0.000619
281 0.000618
282 0.000618
283 0.000621
284 0.000619
285 0.000617
286 0.000614
287 0.000614
288 0.000610
289 0.000610
290 0.000606
291 0.000610
292 0.000613
293 0.000616
294 0.000623
295 0.000624
296 0.000623
297 0.000617
298 0.000611
299 0.000604
300 0.000599
301 0.000597
302 0.000595
303 0.000590
304 0.000580
305 0.000570
306 0.000565
307 0.000559
308 0.000554
309 0.000547
310 0.000541
311 0.000533
312 0.000523
313 0.000520
314 0.000518
315 0.000520
316 0.000522
317 0.000523
318 0.000524
319 0.000526
320 0.000524
321 0.000521
322 0.000525
323 0.000526
324 0.000527
325 0.000521
326 0.000513
327 0.000507
328 0.000507
329 0.000503
330 0.000500
331 0.000494
332 0.000486
333 0.000484
334 0.000484
335 0.000488
336 0.000488
337 0.000487
338 0.000488
339 0.000488
340 0.000488
341 0.000486
342 0.000484
343 0.000479
344 0.000476
345 0.000477
346 0.000477
347 0.000477
348 0.000474
349 0.000472
350 0.000470
351 0.000469
352 0.000466
353 0.000467
354 0.000470
355 0.000472
356 0.000471
357 0.000476
358 0.000480
359 0.000480
360 0.000480
361 0.000483
362 0.000479
363 0.000476
364 0.000479
365 0.000478
366 0.000479
367 0.000478
368 0.000475
369 0.000470
370 0.000469
371 0.000465
372 0.000461
373 0.000452
374 0.000441
375 0.000434
376 0.000427
377 0.000417
378 0.000411
379 0.000408
380 0.000405
381 0.000402
382 0.000399
383 0.000400
384 0.000402
385 0.000407
386 0.000415
387 0.000416
388 0.000413
389 0.000412
390 0.000414
391 0.000418
392 0.000420
393 0.000425
394 0.000430
395 0.000433
396 0.000426
397 0.000420
398 0.000417
399 0.000413
400 0.000414
401 0.000412
402 0.000408
403 0.000401
404 0.000395
405 0.000390
406 0.000388
407 0.000384
408 0.000384
409 0.000387
410 0.000390
411 0.000391
412 0.000386
413 0.000382
414 0.000379
415 0.000378
416 0.000376
417 0.000370
418 0.000361
419 0.000353
420 0.000348
421 0.000348
422 0.000347
423 0.000343
424 0.000339
425 0.000342
426 0.000343
427 0.000346
428 0.000351
429 0.000358
430 0.000363
431 0.000367
432 0.000371
433 0.000373
434 0.000377
435 0.000382
436 0.000386
437 0.000387
438 0.000391
439 0.000396
440 0.000402
441 0.000411
442 0.000422
443 0.000433
444 0.000440
445 0.000447
446 0.000449
447 0.000449
448 0.000450
449 0.000452
450 0.000454
451 0.000456
452 0.000456
453 0.000454
454 0.000453
455 0.000456
456 0.000457
457 0.000455
458 0.000456
459 0.000458
460 0.000459
461 0.000456
462 0.000448
463 0.000443
464 0.000440
465 0.000437
466 0.000437
467 0.000433
468 0.000430
469 0.000429
470 0.000429
471 0.000423
472 0.000416
473 0.000413
474 0.000414
475 0.000413
476 0.000410
477 0.000407
478 0.000405
479 0.000402
480 0.000399
481 0.000396
482 0.000395
483 0.000393
484 0.000394
485 0.000395
486 0.000392
487 0.000385
488 0.000380
489 0.000372
490 0.000365
491 0.000361
492 0.000360
493 0.000357
494 0.000351
495 0.000345
496 0.000340
497 0.000338
498 0.000340
499 0.000345
500 0.000349
501 0.000352
502 0.000352
503 0.000345
504 0.000338
505 0.000332
506 0.000329
507 0.000330
508 0.000330
509 0.000331
510 0.000332
511 0.000331
512 0.000332
513 0.000338
514 0.000345
515 0.000347
516 0.000348
517 0.000350
518 0.000353
519 0.000358
520 0.000361
521 0.000367
522 0.000376
523 0.000379
524 0.000384
525 0.000389
526 0.000393
527 0.000397
528 0.000401
529 0.000403
530 0.000402
531 0.000402
532 0.000404
533 0.000401
534 0.000396
535 0.000398
536 0.000400
537 0.000404
538 0.000402
539 0.000403
540 0.000403
541 0.000401
542 0.000396
543 0.000392
544 0.000395
545 0.000396
546 0.000398
547 0.000397
548 0.000397
549 0.000393
550 0.000389
551 0.000380
552 0.000372
553 0.000365
554 0.000361
555 0.000358
556 0.000351
557 0.000352
558 0.000353
559 0.000348
560 0.000344
561 0.000344
562 0.000345
563 0.000347
564 0.000348
565 0.000352
566 0.000354
567 0.000357
568 0.000361
569 0.000363
570 0.000364
571 0.000363
572 0.000362
573 0.000360
574 0.000352
575 0.000349
576 0.000347
577 0.000345
578 0.000343
579 0.000344
580 0.000339
581 0.000332
582 0.000327
583 0.000325
584 0.000325
585 0.000327
586 0.000326
587 0.000324
588 0.000324
589 0.000327
590 0.000331
591 0.000334
592 0.000339
593 0.000341
594 0.000341
595 0.000339
596 0.000337
597 0.000336
598 0.000332
599 0.000331
600 0.000331
601 0.000331
602 0.000331
603 0.000328
604 0.000321
605 0.000317
606 0.000314
607 0.000310
608 0.000307
609 0.000309
610 0.000307
611 0.000310
612 0.000307
613 0.000305
614 0.000303
615 0.000303
616 0.000299
617 0.000296
618 0.000293
619 0.000292
620 0.000290
621 0.000292
622 0.000294
623 0.000294
624 0.000299
625 0.000299
626 0.000295
627 0.000288
628 0.000284
629 0.000280
630 0.000279
631 0.000276
632 0.000277
633 0.000281
634 0.000284
635 0.000286
636 0.000286
637 0.000284
638 0.000282
639 0.000279
640 0.000276
641 0.000274
642 0.000270
643 0.000267
644 0.000263
645 0.000262
646 0.000261
647 0.000261
648 0.000262
649 0.000261
650 0.000257
651 0.000249
652 0.000245
653 0.000240
654 0.000236
655 0.000238
656 0.000236
657 0.000237
658 0.000237
659 0.000237
660 0.000235
661 0.000232
662 0.000231
663 0.000231
664 0.000233
665 0.000230
666 0.000229
667 0.000225
668 0.000219
669 0.000215
670 0.000215
671 0.000216
672 0.000216
673 0.000219
674 0.000221
675 0.000221
676 0.000220
677 0.000218
678 0.000220
679 0.000222
680 0.000223
681 0.000227
682 0.000231
683 0.000234
684 0.000235
685 0.000235
686 0.000237
687 0.000237
688 0.000240
689 0.000245
690 0.000246
691 0.000248
692 0.000249
693 0.000247
694 0.000244
695 0.000240
696 0.000237
697 0.000232
698 0.000226
699 0.000216
700 0.000208
701 0.000198
702 0.000190
703 0.000186
704 0.000184
705 0.000182
706 0.000178
707 0.000173
708 0.000168
709 0.000165
710 0.000166
711 0.000169
712 0.000169
713 0.000166
714 0.000167
715 0.000168
716 0.000169
717 0.000169
718 0.000173
719 0.000179
720 0.000180
721 0.000177
722 0.000173
723 0.000167
724 0.000166
725 0.000162
726 0.000159
727 0.000154
728 0.000153
729 0.000150
730 0.000145
731 0.000142
732 0.000139
733 0.000135
734 0.000133
735 0.000136
736 0.000140
737 0.000142
738 0.000140
739 0.000142
740 0.000140
741 0.000137
742 0.000134
743 0.000133
744 0.000132
745 0.000129
746 0.000127
747 0.000124
748 0.000118
749 0.000118
750 0.000120
751 0.000118
752 0.000115
753 0.000110
754 0.000104
755 0.000100
756 0.000096
757 0.000095
758 0.000095
759 0.000097
760 0.000098
761 0.000102
762 0.000102
763 0.000099
764 0.000095
765 0.000093
766 0.000092
767 0.000095
768 0.000097
769 0.000098
770 0.000101
771 0.000105
772 0.000106
773 0.000105
774 0.000102
775 0.000103
776 0.000102
777 0.000100
778 0.000098
779 0.000094
780 0.000090
781 0.000086
782 0.000084
783 0.000083
784 0.000078
785 0.000075
786 0.000069
787 0.000061
788 0.000054
789 0.000050
790 0.000046
791 0.000042
792 0.000039
793 0.000038
794 0.000036
795 0.000033
796 0.000035
797 0.000037
798 0.000034
799 0.000034
800 0.000032
801 0.000030
802 0.000025
803 0.000023
804 0.000022
805 0.000024
806 0.000023
807 0.000018
808 0.000017
809 0.000013
