# i correlation
1 0.001511
2 0.001460
3 0.001417
4 0.001375
5 0.001337
6 0.001312
7 0.001285
8 0.001258
9 0.001239
10 0.001220
11 0.001206
12 0.001198
13 0.001189
14 0.001182
15 0.001181
16 0.001176
17 0.001175
18 0.001177
19 0.001177
20 0.001173
21 0.001168
22 0.001160
23 0.001149
24 0.001141
25 0.001132
26 0.001119
27 0.001110
28 0.001101
29 0.001090
30 0.001079
31 0.001071
32 0.001066
33 0.001063
34 0.001060
35 0.001051
36 0.001041
37 0.001034
38 0.001027
39 0.001016
40 0.001006
41 0.001001
42 0.000997
43 0.000991
44 0.000985
45 0.000978
46 0.000973
47 0.000968
48 0.000958
49 0.000953
50 0.000946
51 0.000936
52 0.000933
53 0.000933
54 0.000934
55 0.000930
56 0.000929
57 0.000923
58 0.000923
59 0.000920
60 0.000913
61 0.000907
62 0.000897
63 0.000890
64 0.000880
65 0.000877
66 0.000872
67 0.000873
68 0.000873
69 0.000874
70 0.000872
71 0.000874
72 0.000870
73 0.000866
74 0.000861
75 0.000853
76 0.000849
77 0.000849
78 0.000846
79 0.000841
80 0.000838
81 0.000838
82 0.000837
83 0.000837
84 0.000834
85 0.000829
86 0.000826
87 0.000824
88 0.000829
89 0.000824
90 0.000814
91 0.000810
92 0.000812
93 0.000812
94 0.000814
95 0.000816
96 0.000816
97 0.000814
98 0.000811
99 0.000808
100 0.000806
101 0.000805
102 0.000802
103 0.000806
104 0.000806
105 0.000805
106 0.000806
107 0.000804
108 0.000800
109 0.000798
110 0.000801
111 0.000802
112 0.000801
113 0.000800
114 0.000795
115 0.000792
116 0.000785
117 0.000779
118 0.000777
119 0.000772
120 0.000764
121 0.000760
122 0.000757
123 0.000752
124 0.000747
125 0.000747
126 0.000748
127 0.000748
128 0.000748
129 0.000746
130 0.000747
131 0.000745
132 0.000743
133 0.000736
134 0.000734
135 0.000729
136 0.000723
137 0.000714
138 0.000707
139 0.000697
140 0.000688
141 0.000679
142 0.000675
143 0.000671
144 0.000665
145 0.000657
146 0.000653
147 0.000652
148 0.000652
149 0.000649
150 0.000646
151 0.000642
152 0.000637
153 0.000634
154 0.000631
155 0.000628
156 0.000626
157 0.000625
158 0.000626
159 0.000625
160 0.000627
161 0.000629
162 0.000629
163 0.000630
164 0.000633
165 0.000639
166 0.000637
167 0.000636
168 0.000632
169 0.000629
170 0.000622
171 0.000619
172 0.000612
173 0.000605
174 0.000597
175 0.000589
176 0.000586
177 0.000582
178 0.000576
179 0.000568
180 0.000566
181 0.000566
182 0.000567
183 0.000565
184 0.000565
185 0.000562
186 0.000562
187 0.000560
188 0.000560
189 0.000557
190 0.000555
191 0.000554
192 0.000559
193 0.000568
194 0.000577
195 0.000581
196 0.000581
197 0.000580
198 0.000580
199 0.000586
200 0.000589
201 0.000593
202 0.000592
203 0.000590
204 0.000582
205 0.000579
206 0.000579
207 0.000578
208 0.000574
209 0.000568
210 0.000563
211 0.000558
212 0.000558
213 0.000560
214 0.000564
215 0.000563
216 0.000561
217 0.000561
218 0.000564
219 0.000567
220 0.000573
221 0.000579
222 0.000580
223 0.000578
224 0.000574
225 0.000573
226 0.000574
227 0.000576
228 0.000576
229 0.000575
230 0.000568
231 0.000563
232 0.000560
233 0.000554
234 0.000552
235 0.000552
236 0.000552
237 0.000555
238 0.000562
239 0.000569
240 0.000577
241 0.000584
242 0.000587
243 0.000585
244 0.000580
245 0.000578
246 0.000577
247 0.000580
248 0.000584
249 0.000582
250 0.000577
251 0.000570
252 0.000562
253 0.000560
254 0.000558
255 0.000557
256 0.000553
257 0.000550
258 0.000549
259 0.000555
260 0.000560
261 0.000564
262 0.000562
263 0.000559
264 0.000557
265 0.000554
266 0.000555
267 0.000548
268 0.000542
269 0.000535
270 0.000530
271 0.000525
272 0.000521
273 0.000513
274 0.000506
275 0.000506
276 0.000505
277 0.000505
278 0.000503
279 0.000501
280 0.000500
281 0.000503
282 0.000505
283 0.000506
284 0.000504
285 0.000497
286 0.000491
287 0.000483
288 0.000477
289 0.000472
290 0.000471
291 0.000469
292 0.000462
293 0.000456
294 0.000455
295 0.000453
296 0.000455
297 0.000456
298 0.000452
299 0.000452
300 0.000457
301 0.000455
302 0.000449
303 0.000447
304 0.000445
305 0.000444
306 0.000443
307 0.000444
308 0.000443
309 0.000443
310 0.000447
311 0.000445
312 0.000443
313 0.000441
314 0.000438
315 0.000435
316 0.000427
317 0.000419
318 0.000416
319 0.000409
320 0.000402
321 0.000396
322 0.000391
323 0.000389
324 0.000392
325 0.000393
326 0.000391
327 0.000390
328 0.000391
329 0.000397
330 0.000407
331 0.000416
332 0.000422
333 0.000427
334 0.000425
335 0.000416
336 0.000406
337 0.000398
338 0.000389
339 0.000382
340 0.000376
341 0.000370
342 0.000368
343 0.000363
344 0.000360
345 0.000356
346 0.000353
347 0.000354
348 0.000355
349 0.000359
350 0.000358
351 0.000357
352 0.000353
353 0.000351
354 0.000350
355 0.000346
356 0.000342
357 0.000340
358 0.000335
359 0.000334
360 0.000336
361 0.000338
362 0.000339
363 0.000344
364 0.000354
365 0.000363
366 0.000372
367 0.000379
368 0.000387
369 0.000388
370 0.000390
371 0.000390
372 0.000389
373 0.000388
374 0.000383
375 0.000379
376 0.000377
377 0.000378
378 0.000380
379 0.000383
380 0.000381
381 0.000377
382 0.000376
383 0.000373
384 0.000374
385 0.000379
386 0.000383
387 0.000382
388 0.000381
389 0.000379
390 0.000377
391 0.000378
392 0.000379
393 0.000377
394 0.000375
395 0.000371
396 0.000367
397 0.000359
398 0.000352
399 0.000345
400 0.000337
401 0.000333
402 0.000331
403 0.000331
404 0.000329
405 0.000324
406 0.000323
407 0.000328
408 0.000330
409 0.000335
410 0.000339
411 0.000343
412 0.000347
413 0.000355
414 0.000359
415 0.000360
416 0.000357
417 0.000349
418 0.000344
419 0.000337
420 0.000334
421 0.000329
422 0.000329
423 0.000326
424 0.000322
425 0.000318
426 0.000314
427 0.000308
428 0.000308
429 0.000304
430 0.000298
431 0.000294
432 0.000292
433 0.000292
434 0.000292
435 0.000300
436 0.000309
437 0.000318
438 0.000323
439 0.000324
440 0.000328
441 0.000332
442 0.000335
443 0.000334
444 0.000331
445 0.000327
446 0.000319
447 0.000312
448 0.000308
449 0.000305
450 0.000299
451 0.000288
452 0.000281
453 0.000275
454 0.000272
455 0.000271
456 0.000271
457 0.000269
458 0.000268
459 0.000273
460 0.000276
461 0.000283
462 0.000292
463 0.000293
464 0.000296
465 0.000303
466 0.000306
467 0.000311
468 0.000316
469 0.000320
470 0.000319
471 0.000317
472 0.000314
473 0.000310
474 0.000304
475 0.000296
476 0.000293
477 0.000292
478 0.000293
479 0.000298
480 0.000304
481 0.000309
482 0.000316
483 0.000325
484 0.000331
485 0.000333
486 0.000334
487 0.000336
488 0.000338
489 0.000339
490 0.000342
491 0.000349
492 0.000348
493 0.000344
494 0.000342
495 0.000342
496 0.000341
497 0.000341
498 0.000344
499 0.000346
500 0.000348
501 0.000347
502 0.000345
503 0.000346
504 0.000347
505 0.000344
506 0.000345
507 0.000346
508 0.000346
509 0.000346
510 0.000344
511 0.000342
512 0.000336
513 0.000328
514 0.000321
515 0.000314
516 0.000307
517 0.000302
518 0.000295
519 0.000289
520 0.000284
521 0.000279
522 0.000276
523 0.000276
524 0.000277
525 0.000283
526 0.000290
527 0.000292
528 0.000297
529 0.000302
530 0.000305
531 0.000307
532 0.000310
533 0.000313
534 0.000311
535 0.000309
536 0.000307
537 0.000305
538 0.000305
539 0.000306
540 0.000301
541 0.000300
542 0.000297
543 0.000294
544 0.000293
545 0.000294
546 0.000290
547 0.000289
548 0.000290
549 0.000288
550 0.000288
551 0.000286
552 0.000280
553 0.000277
554 0.000272
555 0.000266
556 0.000260
557 0.000254
558 0.000246
559 0.000238
560 0.000235
561 0.000232
562 0.000231
563 0.000231
564 0.000229
565 0.000227
566 0.000226
567 0.000223
568 0.000221
569 0.000217
570 0.000213
571 0.000212
572 0.000214
573 0.000215
574 0.000214
575 0.000213
576 0.000213
577 0.000209
578 0.000207
579 0.000206
580 0.000209
581 0.000205
582 0.000203
583 0.000200
584 0.000194
585 0.000191
586 0.000186
587 0.000184
588 0.000184
589 0.000182
590 0.000181
591 0.000184
592 0.000185
593 0.000188
594 0.000189
595 0.000188
596 0.000184
597 0.000183
598 0.000179
599 0.000176
600 0.000176
601 0.000174
602 0.000171
603 0.000169
604 0.000171
605 0.000172
606 0.000179
607 0.000184
608 0.000187
609 0.000191
610 0.000198
611 0.000202
612 0.000204
613 0.000208
614 0.000213
615 0.000215
616 0.000215
617 0.000213
618 0.000209
619 0.000207
620 0.000202
621 0.000203
622 0.000204
623 0.000204
624 0.000204
625 0.000208
626 0.000212
627 0.000215
628 0.000211
629 0.000210
630 0.000210
631 0.000212
632 0.000211
633 0.000211
634 0.000213
635 0.000213
636 0.000212
637 0.000207
638 0.000204
639 0.000198
640 0.000190
641 0.000187
642 0.000186
643 0.000186
644 0.000185
645 0.000185
646 0.000186
647 0.000189
648 0.000191
649 0.000194
650 0.000195
651 0.000197
652 0.000196
653 0.000192
654 0.000190
655 0.000187
656 0.000185
657 0.000184
658 0.000183
659 0.000184
660 0.000187
661 0.000192
662 0.000197
663 0.000201
664 0.000209
665 0.000213
666 0.000213
667 0.000216
668 0.000220
669 0.000220
670 0.000217
671 0.000220
672 0.000220
673 0.000219
674 0.000220
675 0.000223
676 0.000223
677 0.000225
678 0.000228
679 0.000230
680 0.000234
681 0.000236
682 0.000238
683 0.000241
684 0.000243
685 0.000243
686 0.000246
687 0.000245
688 0.000244
689 0.000241
690 0.000241
691 0.000242
692 0.000244
693 0.000248
694 0.000254
695 0.000256
696 0.000260
697 0.000265
698 0.000270
699 0.000275
700 0.000278
701 0.000280
702 0.000280
703 0.000283
704 0.000285
705 0.000284
706 0.000284
707 0.000282
708 0.000281
709 0.000282
710 0.000283
711 0.000282
712 0.000280
713 0.000277
714 0.000273
715 0.000268
716 0.000263
717 0.000258
718 0.000257
719 0.000259
720 0.000260
721 0.000260
722 0.000262
723 0.000262
724 0.000263
725 0.000265
726 0.000265
727 0.000266
728 0.000268
729 0.000268
730 0.000265
731 0.000266
732 0.000265
733 0.000264
734 0.000262
735 0.000258
736 0.000253
737 0.000250
738 0.000246
739 0.000242
740 0.000238
741 0.000236
742 0.000234
743 0.000232
744 0.000230
745 0.000229
746 0.000230
747 0.000229
748 0.000227
749 0.000227
750 0.000225
751 0.000220
752 0.000220
753 0.000219
754 0.000217
755 0.000217
756 0.000219
757 0.000219
758 0.000218
759 0.000218
760 0.000217
761 0.000215
762 0.000214
763 0.000209
764 0.000204
765 0.000202
766 0.000199
767 0.000195
768 0.000190
769 0.000188
770 0.000187
771 0.000187
772 0.000187
773 0.000186
774 0.000187
775 0.000187
776 0.000183
777 0.000183
778 0.000183
779 0.000182
780 0.000185
781 0.000186
782 0.000188
783 0.000187
784 0.000183
785 0.000178
786 0.000174
787 0.000173
788 0.000168
789 0.000166
790 0.000166
791 0.000166
792 0.000168
793 0.000170
794 0.000175
795 0.000177
796 0.000179
797 0.000177
798 0.000176
799 0.000175
800 0.000176
801 0.000175
802 0.000175
803 0.000174
804 0.000172
805 0.000170
806 0.000167
807 0.000167
808 0.000166
809 0.000165
