# i correlation
1 0.001708
2 0.001662
3 0.001626
4 0.001594
5 0.001568
6 0.001548
7 0.001535
8 0.001523
9 0.001509
10 0.001499
11 0.001487
12 0.001471
13 0.001458
14 0.001448
15 0.001433
16 0.001417
17 0.001405
18 0.001395
19 0.001384
20 0.001368
21 0.001354
22 0.001337
23 0.001318
24 0.001306
25 0.001295
26 0.001282
27 0.001264
28 0.001245
29 0.001233
30 0.001226
31 0.001218
32 0.001210
33 0.001206
34 0.001197
35 0.001186
36 0.001170
37 0.001158
38 0.001144
39 0.001134
40 0.001126
41 0.001115
42 0.001106
43 0.001097
44 0.001091
45 0.001084
46 0.001075
47 0.001064
48 0.001054
49 0.001043
50 0.001034
51 0.001031
52 0.001022
53 0.001019
54 0.001017
55 0.001014
56 0.001011
57 0.001003
58 0.000992
59 0.000985
60 0.000980
61 0.000976
62 0.000976
63 0.000975
64 0.000974
65 0.000978
66 0.000982
67 0.000981
68 0.000980
69 0.000979
70 0.000981
71 0.000977
72 0.000972
73 0.000971
74 0.000972
75 0.000969
76 0.000967
77 0.000965
78 0.000962
79 0.000957
80 0.000953
81 0.000947
82 0.000935
83 0.000927
84 0.000924
85 0.000925
86 0.000921
87 0.000923
88 0.000922
89 0.000921
90 0.000918
91 0.000914
92 0.000912
93 0.000910
94 0.000905
95 0.000904
96 0.000897
97 0.000888
98 0.000882
99 0.000876
100 0.000869
101 0.000866
102 0.000867
103 0.000863
104 0.000863
105 0.000862
106 0.000858
107 0.000854
108 0.000849
109 0.000845
110 0.000839
111 0.000836
112 0.000831
113 0.000823
114 0.000812
115 0.000806
116 0.000802
117 0.000799
118 0.000794
119 0.000788
120 0.000787
121 0.000785
122 0.000783
123 0.000779
124 0.000775
125 0.000772
126 0.000768
127 0.000761
128 0.000758
129 0.000752
130 0.000748
131 0.000744
132 0.000742
133 0.000744
134 0.000748
135 0.000750
136 0.000753
137 0.000752
138 0.000754
139 0.000759
140 0.000761
141 0.000769
142 0.000777
143 0.000784
144 0.000785
145 0.000779
146 0.000779
147 0.000777
148 0.000774
149 0.000774
150 0.000775
151 0.000772
152 0.000768
153 0.000772
154 0.000775
155 0.000777
156 0.000777
157 0.000776
158 0.000778
159 0.000775
160 0.000775
161 0.000777
162 0.000779
163 0.000778
164 0.000777
165 0.000776
166 0.000775
167 0.000774
168 0.000776
169 0.000777
170 0.000773
171 0.000772
172 0.000777
173 0.000777
174 0.000782
175 0.000787
176 0.000791
177 0.000791
178 0.000789
179 0.000789
180 0.000785
181 0.000783
182 0.000783
183 0.000784
184 0.000778
185 0.000773
186 0.000768
187 0.000757
188 0.000750
189 0.000745
190 0.000746
191 0.000748
192 0.000748
193 0.000749
194 0.000747
195 0.000741
196 0.000737
197 0.000733
198 0.000728
199 0.000721
200 0.000713
201 0.000702
202 0.000695
203 0.000683
204 0.000677
205 0.000672
206 0.000669
207 0.000669
208 0.000666
209 0.000668
210 0.000666
211 0.000662
212 0.000655
213 0.000652
214 0.000646
215 0.000642
216 0.000643
217 0.000645
218 0.000648
219 0.000647
220 0.000644
221 0.000638
222 0.000632
223 0.000629
224 0.000622
225 0.000617
226 0.000612
227 0.000611
228 0.000613
229 0.000616
230 0.000613
231 0.000611
232 0.000609
233 0.000603
234 0.000598
235 0.000591
236 0.000586
237 0.000582
238 0.000576
239 0.000574
240 0.000567
241 0.000560
242 0.000559
243 0.000560
244 0.000558
245 0.000555
246 0.000554
247 0.000546
248 0.000544
249 0.000546
250 0.000552
251 0.000555
252 0.000553
253 0.000548
254 0.000544
255 0.000539
256 0.000537
257 0.000535
258 0.000529
259 0.000530
260 0.000533
261 0.000537
262 0.000543
263 0.000547
264 0.000551
265 0.000551
266 0.000549
267 0.000548
268 0.000541
269 0.000536
270 0.000534
271 0.000531
272 0.000527
273 0.000522
274 0.000523
275 0.000522
276 0.000523
277 0.000524
278 0.000528
279 0.000531
280 0.000535
281 0.000536
282 0.000536
283 0.000542
284 0.000551
285 0.000557
286 0.000562
287 0.000566
288 0.000568
289 0.000570
290 0.000574
291 0.000574
292 0.000578
293 0.000580
294 0.000585
295 0.000590
296 0.000595
297 0.000600
298 0.000602
299 0.000605
300 0.000609
301 0.000612
302 0.000616
303 0.000619
304 0.000620
305 0.000619
306 0.000612
307 0.000616
308 0.000619
309 0.000621
310 0.000623
311 0.000629
312 0.000632
313 0.000634
314 0.000635
315 0.000637
316 0.000637
317 0.000640
318 0.000645
319 0.000650
320 0.000649
321 0.000647
322 0.000651
323 0.000647
324 0.000645
325 0.000641
326 0.000637
327 0.000628
328 0.000621
329 0.000615
330 0.000613
331 0.000608
332 0.000602
333 0.000597
334 0.000600
335 0.000603
336 0.000603
337 0.000600
338 0.000597
339 0.000590
340 0.000586
341 0.000582
342 0.000572
343 0.000561
344 0.000553
345 0.000542
346 0.000529
347 0.000516
348 0.000511
349 0.000503
350 0.000497
351 0.000493
352 0.000493
353 0.000495
354 0.000500
355 0.000505
356 0.000506
357 0.000503
358 0.000500
359 0.000497
360 0.000490
361 0.000487
362 0.000483
363 0.000478
364 0.000472
365 0.000468
366 0.000460
367 0.000454
368 0.000447
369 0.000447
370 0.000443
371 0.000438
372 0.000432
373 0.000429
374 0.000427
375 0.000422
376 0.000414
377 0.000409
378 0.000405
379 0.000405
380 0.000402
381 0.000400
382 0.000399
383 0.000396
384 0.000391
385 0.000391
386 0.000386
387 0.000385
388 0.000387
389 0.000390
390 0.000393
391 0.000394
392 0.000397
393 0.000392
394 0.000385
395 0.000382
396 0.000383
397 0.000385
398 0.000384
399 0.000389
400 0.000394
401 0.000399
402 0.000400
403 0.000403
404 0.000411
405 0.000415
406 0.000418
407 0.000415
408 0.000411
409 0.000410
410 0.000409
411 0.000409
412 0.000411
413 0.000413
414 0.000415
415 0.000415
416 0.000414
417 0.000412
418 0.000411
419 0.000406
420 0.000404
421 0.000401
422 0.000399
423 0.000397
424 0.000397
425 0.000396
426 0.000392
427 0.000389
428 0.000387
429 0.000386
430 0.000387
431 0.000388
432 0.000386
433 0.000385
434 0.000383
435 0.000380
436 0.000383
437 0.000382
438 0.000380
439 0.000379
440 0.000373
441 0.000369
442 0.000366
443 0.000363
444 0.000358
445 0.000356
446 0.000362
447 0.000365
448 0.000370
449 0.000371
450 0.000375
451 0.000378
452 0.000380
453 0.000381
454 0.000381
455 0.000383
456 0.000386
457 0.000392
458 0.000399
459 0.000404
460 0.000408
461 0.000412
462 0.000414
463 0.000413
464 0.000409
465 0.000406
466 0.000404
467 0.000402
468 0.000404
469 0.000408
470 0.000409
471 0.000408
472 0.000407
473 0.000405
474 0.000400
475 0.000394
476 0.000393
477 0.000394
478 0.000398
479 0.000400
480 0.000404
481 0.000408
482 0.000407
483 0.000408
484 0.000407
485 0.000407
486 0.000406
487 0.000404
488 0.000401
489 0.000400
490 0.000397
491 0.000395
492 0.000390
493 0.000388
494 0.000392
495 0.000397
496 0.000400
497 0.000401
498 0.000402
499 0.000400
500 0.000399
501 0.000395
502 0.000395
503 0.000396
504 0.000391
505 0.000386
506 0.000380
507 0.000373
508 0.000371
509 0.000369
510 0.000365
511 0.000360
512 0.000356
513 0.000355
514 0.000352
515 0.000348
516 0.000345
517 0.000341
518 0.000335
519 0.000330
520 0.000326
521 0.000322
522 0.000317
523 0.000312
524 0.000311
525 0.000303
526 0.000297
527 0.000292
528 0.000289
529 0.000284
530 0.000282
531 0.000282
532 0.000282
533 0.000281
534 0.000282
535 0.000279
536 0.000273
537 0.000265
538 0.000260
539 0.000254
540 0.000254
541 0.000252
542 0.000249
543 0.000246
544 0.000240
545 0.000238
546 0.000240
547 0.000241
548 0.000242
549 0.000239
550 0.000237
551 0.000235
552 0.000230
553 0.000227
554 0.000225
555 0.000223
556 0.000216
557 0.000213
558 0.000209
559 0.000209
560 0.000206
561 0.000205
562 0.000202
563 0.000198
564 0.000197
565 0.000198
566 0.000196
567 0.000195
568 0.000194
569 0.000189
570 0.000183
571 0.000176
572 0.000172
573 0.000170
574 0.000171
575 0.000172
576 0.000175
577 0.000171
578 0.000167
579 0.000164
580 0.000166
581 0.000165
582 0.000160
583 0.000156
584 0.000151
585 0.000148
586 0.000147
587 0.000148
588 0.000147
589 0.000145
590 0.000142
591 0.000137
592 0.000133
593 0.000128
594 0.000126
595 0.000123
596 0.000120
597 0.000116
598 0.000115
599 0.000113
600 0.000113
601 0.000114
602 0.000115
603 0.000116
604 0.000117
605 0.000120
606 0.000120
607 0.000121
608 0.000125
609 0.000127
610 0.000122
611 0.000119
612 0.000117
613 0.000113
614 0.000110
615 0.000109
616 0.000108
617 0.000105
618 0.000105
619 0.000106
620 0.000108
621 0.000111
622 0.000116
623 0.000118
624 0.000121
625 0.000124
626 0.000126
627 0.000127
628 0.000127
629 0.000131
630 0.000131
631 0.000134
632 0.000137
633 0.000141
634 0.000144
635 0.000146
636 0.000145
637 0.000143
638 0.000146
639 0.000146
640 0.000148
641 0.000151
642 0.000154
643 0.000158
644 0.000161
645 0.000164
646 0.000165
647 0.000164
648 0.000166
649 0.000167
650 0.000168
651 0.000171
652 0.000176
653 0.000178
654 0.000181
655 0.000184
656 0.000185
657 0.000185
658 0.000183
659 0.000180
660 0.000177
661 0.000175
662 0.000175
663 0.000176
664 0.000177
665 0.000176
666 0.000177
667 0.000178
668 0.000176
669 0.000173
670 0.000173
671 0.000173
672 0.000171
673 0.000169
674 0.000170
675 0.000170
676 0.000172
677 0.000173
678 0.000175
679 0.000176
680 0.000176
681 0.000178
682 0.000180
683 0.000180
684 0.000179
685 0.000180
686 0.000177
687 0.000175
688 0.000175
689 0.000177
690 0.000175
691 0.000173
692 0.000173
693 0.000170
694 0.000168
695 0.000165
696 0.000167
697 0.000165
698 0.000163
699 0.000161
700 0.000160
701 0.000157
702 0.000155
703 0.000152
704 0.000150
705 0.000146
706 0.000141
707 0.000136
708 0.000132
709 0.000130
710 0.000128
711 0.000124
712 0.000120
713 0.000120
714 0.000122
715 0.000124
716 0.000127
717 0.000128
718 0.000131
719 0.000130
720 0.000131
721 0.000129
722 0.000129
723 0.000133
724 0.000133
725 0.000131
726 0.000128
727 0.000126
728 0.000124
729 0.000124
730 0.000124
731 0.000126
732 0.000127
733 0.000128
734 0.000128
735 0.000127
736 0.000123
737 0.000119
738 0.000118
739 0.000115
740 0.000115
741 0.000113
742 0.000116
743 0.000117
744 0.000122
745 0.000126
746 0.000127
747 0.000127
748 0.000128
749 0.000128
750 0.000130
751 0.000131
752 0.000132
753 0.000136
754 0.000139
755 0.000142
756 0.000143
757 0.000143
758 0.000145
759 0.000148
760 0.000148
761 0.000145
762 0.000145
763 0.000144
764 0.000142
765 0.000139
766 0.000136
767 0.000133
768 0.000130
769 0.000129
770 0.000127
771 0.000127
772 0.000128
773 0.000126
774 0.000127
775 0.000128
776 0.000126
777 0.000124
778 0.000123
779 0.000119
780 0.000116
781 0.000111
782 0.000106
783 0.000101
784 0.000098
785 0.000097
786 0.000095
787 0.000092
788 0.000090
789 0.000088
790 0.000083
791 0.000079
792 0.000074
793 0.000071
794 0.000067
795 0.000061
796 0.000058
797 0.000057
798 0.000058
799 0.000057
800 0.000053
801 0.000049
802 0.000045
803 0.000041
804 0.000038
805 0.000036
806 0.000032
807 0.000030
808 0.000029
809 0.000029
