# i correlation
1 0.001788
2 0.001743
3 0.001706
4 0.001674
5 0.001646
6 0.001616
7 0.001591
8 0.001567
9 0.001542
10 0.001515
11 0.001492
12 0.001469
13 0.001449
14 0.001432
15 0.001422
16 0.001409
17 0.001399
18 0.001387
19 0.001372
20 0.001360
21 0.001348
22 0.001340
23 0.001332
24 0.001325
25 0.001315
26 0.001306
27 0.001303
28 0.001295
29 0.001286
30 0.001278
31 0.001270
32 0.001274
33 0.001275
34 0.001278
35 0.001276
36 0.001272
37 0.001267
38 0.001265
39 0.001267
40 0.001268
41 0.001270
42 0.001267
43 0.001265
44 0.001263
45 0.001262
46 0.001262
47 0.001258
48 0.001258
49 0.001256
50 0.001255
51 0.001259
52 0.001259
53 0.001260
54 0.001261
55 0.001256
56 0.001252
57 0.001246
58 0.001234
59 0.001226
60 0.001216
61 0.001203
62 0.001191
63 0.001185
64 0.001178
65 0.001171
66 0.001165
67 0.001163
68 0.001165
69 0.001160
70 0.001151
71 0.001147
72 0.001146
73 0.001149
74 0.001155
75 0.001161
76 0.001160
77 0.001155
78 0.001150
79 0.001146
80 0.001142
81 0.001144
82 0.001149
83 0.001153
84 0.001153
85 0.001150
86 0.001148
87 0.001146
88 0.001140
89 0.001135
90 0.001130
91 0.001124
92 0.001121
93 0.001108
94 0.001098
95 0.001093
96 0.001092
97 0.001088
98 0.001082
99 0.001078
100 0.001078
101 0.001074
102 0.001071
103 0.001067
104 0.001055
105 0.001042
106 0.001031
107 0.001025
108 0.001015
109 0.001008
110 0.001001
111 0.000997
112 0.000989
113 0.000981
114 0.000974
115 0.000970
116 0.000968
117 0.000963
118 0.000966
119 0.000969
120 0.000973
121 0.000974
122 0.000975
123 0.000971
124 0.000972
125 0.000972
126 0.000968
127 0.000964
128 0.000966
129 0.000967
130 0.000967
131 0.000964
132 0.000958
133 0.000954
134 0.000951
135 0.000948
136 0.000947
137 0.000948
138 0.000949
139 0.000947
140 0.000944
141 0.000947
142 0.000946
143 0.000943
144 0.000933
145 0.000929
146 0.000926
147 0.000919
148 0.000911
149 0.000905
150 0.000900
151 0.000895
152 0.000894
153 0.000893
154 0.000892
155 0.000893
156 0.000892
157 0.000891
158 0.000886
159 0.000880
160 0.000876
161 0.000870
162 0.000862
163 0.000860
164 0.000867
165 0.000867
166 0.000860
167 0.000853
168 0.000845
169 0.000842
170 0.000840
171 0.000837
172 0.000835
173 0.000832
174 0.000829
175 0.000826
176 0.000823
177 0.000819
178 0.000813
179 0.000812
180 0.000809
181 0.000809
182 0.000807
183 0.000807
184 0.000809
185 0.000808
186 0.000803
187 0.000802
188 0.000800
189 0.000798
190 0.000789
191 0.000784
192 0.000783
193 0.000784
194 0.000784
195 0.000779
196 0.000773
197 0.000768
198 0.000765
199 0.000760
200 0.000752
201 0.000745
202 0.000738
203 0.000737
204 0.000740
205 0.000739
206 0.000739
207 0.000740
208 0.000743
209 0.000750
210 0.000754
211 0.000758
212 0.000758
213 0.000757
214 0.000757
215 0.000752
216 0.000750
217 0.000747
218 0.000745
219 0.000743
220 0.000745
221 0.000751
222 0.000753
223 0.000753
224 0.000751
225 0.000752
226 0.000752
227 0.000751
228 0.000750
229 0.000751
230 0.000746
231 0.000741
232 0.000739
233 0.000734
234 0.000726
235 0.000718
236 0.000712
237 0.000708
238 0.000707
239 0.000708
240 0.000712
241 0.000714
242 0.000712
243 0.000708
244 0.000706
245 0.000706
246 0.000705
247 0.000702
248 0.000702
249 0.000705
250 0.000705
251 0.000700
252 0.000702
253 0.000701
254 0.000696
255 0.000693
256 0.000690
257 0.000686
258 0.000681
259 0.000677
260 0.000677
261 0.000676
262 0.000675
263 0.000676
264 0.000675
265 0.000671
266 0.000664
267 0.000658
268 0.000651
269 0.000643
270 0.000634
271 0.000624
272 0.000618
273 0.000615
274 0.000607
275 0.000602
276 0.000597
277 0.000594
278 0.000591
279 0.000588
280 0.000587
281 0.000586
282 0.000583
283 0.000584
284 0.000586
285 0.000590
286 0.000594
287 0.000595
288 0.000593
289 0.000592
290 0.000589
291 0.000584
292 0.000581
293 0.000581
294 0.000587
295 0.000592
296 0.000597
297 0.000600
298 0.000607
299 0.000609
300 0.000612
301 0.000617
302 0.000618
303 0.000619
304 0.000622
305 0.000628
306 0.000630
307 0.000632
308 0.000636
309 0.000638
310 0.000640
311 0.000641
312 0.000644
313 0.000644
314 0.000638
315 0.000633
316 0.000629
317 0.000626
318 0.000619
319 0.000615
320 0.000612
321 0.000608
322 0.000604
323 0.000600
324 0.000596
325 0.000590
326 0.000583
327 0.000576
328 0.000575
329 0.000578
330 0.000576
331 0.000571
332 0.000567
333 0.000564
334 0.000563
335 0.000559
336 0.000552
337 0.000547
338 0.000544
339 0.000542
340 0.000538
341 0.000539
342 0.000536
343 0.000532
344 0.000531
345 0.000528
346 0.000526
347 0.000527
348 0.000530
349 0.000534
350 0.000534
351 0.000535
352 0.000539
353 0.000542
354 0.000543
355 0.000542
356 0.000543
357 0.000544
358 0.000545
359 0.000546
360 0.000546
361 0.000549
362 0.000555
363 0.000559
364 0.000562
365 0.000566
366 0.000564
367 0.000564
368 0.000566
369 0.000563
370 0.000561
371 0.000557
372 0.000549
373 0.000544
374 0.000535
375 0.000531
376 0.000525
377 0.000518
378 0.000514
379 0.000511
380 0.000512
381 0.000515
382 0.000517
383 0.000519
384 0.000524
385 0.000530
386 0.000535
387 0.000540
388 0.000544
389 0.000539
390 0.000536
391 0.000533
392 0.000530
393 0.000527
394 0.000520
395 0.000514
396 0.000504
397 0.000497
398 0.000494
399 0.000483
400 0.000476
401 0.000470
402 0.000467
403 0.000464
404 0.000460
405 0.000463
406 0.000459
407 0.000460
408 0.000462
409 0.000464
410 0.000472
411 0.000472
412 0.000473
413 0.000474
414 0.000476
415 0.000481
416 0.000491
417 0.000497
418 0.000500
419 0.000503
420 0.000507
421 0.000509
422 0.000511
423 0.000513
424 0.000518
425 0.000524
426 0.000526
427 0.000526
428 0.000527
429 0.000526
430 0.000528
431 0.000531
432 0.000538
433 0.000543
434 0.000543
435 0.000544
436 0.000543
437 0.000545
438 0.000546
439 0.000548
440 0.000549
441 0.000551
442 0.000549
443 0.000547
444 0.000547
445 0.000542
446 0.000535
447 0.000523
448 0.000513
449 0.000506
450 0.000502
451 0.000500
452 0.000494
453 0.000485
454 0.000479
455 0.000471
456 0.000461
457 0.000450
458 0.000443
459 0.000437
460 0.000430
461 0.000424
462 0.000422
463 0.000416
464 0.000411
465 0.000405
466 0.000402
467 0.000407
468 0.000407
469 0.000411
470 0.000413
471 0.000413
472 0.000417
473 0.000419
474 0.000420
475 0.000420
476 0.000419
477 0.000413
478 0.000410
479 0.000407
480 0.000399
481 0.000388
482 0.000380
483 0.000373
484 0.000370
485 0.000367
486 0.000360
487 0.000357
488 0.000353
489 0.000352
490 0.000352
491 0.000355
492 0.000356
493 0.000354
494 0.000355
495 0.000354
496 0.000350
497 0.000350
498 0.000347
499 0.000347
500 0.000348
501 0.000347
502 0.000344
503 0.000341
504 0.000339
505 0.000341
506 0.000346
507 0.000352
508 0.000356
509 0.000359
510 0.000358
511 0.000354
512 0.000357
513 0.000362
514 0.000368
515 0.000373
516 0.000377
517 0.000377
518 0.000376
519 0.000373
520 0.000367
521 0.000362
522 0.000357
523 0.000353
524 0.000348
525 0.000343
526 0.000340
527 0.000339
528 0.000335
529 0.000332
530 0.000325
531 0.000319
532 0.000312
533 0.000310
534 0.000309
535 0.000306
536 0.000301
537 0.000296
538 0.000292
539 0.000290
540 0.000283
541 0.000277
542 0.000273
543 0.000272
544 0.000267
545 0.000265
546 0.000264
547 0.000263
548 0.000265
549 0.000262
550 0.000264
551 0.000265
552 0.000266
553 0.000267
554 0.000266
555 0.000261
556 0.000257
557 0.000255
558 0.000253
559 0.000249
560 0.000245
561 0.000244
562 0.000245
563 0.000243
564 0.000240
565 0.000240
566 0.000239
567 0.000237
568 0.000234
569 0.000233
570 0.000233
571 0.000233
572 0.000236
573 0.000239
574 0.000246
575 0.000252
576 0.000253
577 0.000254
578 0.000250
579 0.000246
580 0.000241
581 0.000235
582 0.000229
583 0.000226
584 0.000222
585 0.000217
586 0.000213
587 0.000208
588 0.000204
589 0.000200
590 0.000196
591 0.000194
592 0.000195
593 0.000196
594 0.000197
595 0.000194
596 0.000191
597 0.000193
598 0.000197
599 0.000200
600 0.000198
601 0.000200
602 0.000204
603 0.000206
604 0.000210
605 0.000213
606 0.000216
607 0.000219
608 0.000221
609 0.000223
610 0.000226
611 0.000226
612 0.000225
613 0.000227
614 0.000226
615 0.000225
616 0.000223
617 0.000218
618 0.000214
619 0.000209
620 0.000205
621 0.000203
622 0.000198
623 0.000190
624 0.000182
625 0.000178
626 0.000176
627 0.000172
628 0.000168
629 0.000166
630 0.000164
631 0.000160
632 0.000155
633 0.000149
634 0.000145
635 0.000141
636 0.000136
637 0.000134
638 0.000133
639 0.000132
640 0.000134
641 0.000130
642 0.000127
643 0.000124
644 0.000120
645 0.000120
646 0.000121
647 0.000121
648 0.000122
649 0.000125
650 0.000127
651 0.000129
652 0.000129
653 0.000132
654 0.000135
655 0.000139
656 0.000140
657 0.000141
658 0.000141
659 0.000140
660 0.000137
661 0.000138
662 0.000140
663 0.000142
664 0.000147
665 0.000149
666 0.000152
667 0.000153
668 0.000153
669 0.000150
670 0.000146
671 0.000142
672 0.000141
673 0.000142
674 0.000139
675 0.000134
676 0.000131
677 0.000128
678 0.000126
679 0.000124
680 0.000127
681 0.000129
682 0.000129
683 0.000130
684 0.000128
685 0.000130
686 0.000131
687 0.000132
688 0.000134
689 0.000137
690 0.000139
691 0.000143
692 0.000143
693 0.000144
694 0.000148
695 0.000149
696 0.000152
697 0.000153
698 0.000156
699 0.000159
700 0.000161
701 0.000159
702 0.000157
703 0.000156
704 0.000155
705 0.000155
706 0.000152
707 0.000148
708 0.000147
709 0.000140
710 0.000135
711 0.000128
712 0.000121
713 0.000114
714 0.000110
715 0.000107
716 0.000102
717 0.000096
718 0.000091
719 0.000085
720 0.000079
721 0.000075
722 0.000076
723 0.000076
724 0.000075
725 0.000071
726 0.000069
727 0.000069
728 0.000069
729 0.000071
730 0.000072
731 0.000075
732 0.000081
733 0.000085
734 0.000085
735 0.000084
736 0.000082
737 0.000082
738 0.000083
739 0.000084
740 0.000091
741 0.000098
742 0.000100
743 0.000101
744 0.000104
745 0.000105
746 0.000107
747 0.000110
748 0.000113
749 0.000119
750 0.000120
751 0.000121
752 0.000117
753 0.000114
754 0.000113
755 0.000114
756 0.000116
757 0.000116
758 0.000114
759 0.000113
760 0.000108
761 0.000102
762 0.000097
763 0.000092
764 0.000089
765 0.000083
766 0.000078
767 0.000073
768 0.000072
769 0.000068
770 0.000063
771 0.000061
772 0.000060
773 0.000063
774 0.000063
775 0.000065
776 0.000064
777 0.000064
778 0.000064
779 0.000065
780 0.000065
781 0.000067
782 0.000069
783 0.000073
784 0.000075
785 0.000074
786 0.000077
787 0.000077
788 0.000077
789 0.000077
790 0.000076
791 0.000075
792 0.000075
793 0.000073
794 0.000068
795 0.000065
796 0.000064
797 0.000065
798 0.000065
799 0.000064
800 0.000065
801 0.000066
802 0.000068
803 0.000071
804 0.000072
805 0.000072
806 0.000075
807 0.000077
808 0.000080
809 0.000083
