# i correlation
1 0.001748
2 0.001698
3 0.001657
4 0.001622
5 0.001596
6 0.001573
7 0.001553
8 0.001531
9 0.001513
10 0.001498
11 0.001486
12 0.001476
13 0.001470
14 0.001456
15 0.001441
16 0.001428
17 0.001424
18 0.001420
19 0.001411
20 0.001396
21 0.001385
22 0.001372
23 0.001362
24 0.001355
25 0.001353
26 0.001349
27 0.001344
28 0.001335
29 0.001328
30 0.001326
31 0.001329
32 0.001331
33 0.001324
34 0.001311
35 0.001298
36 0.001278
37 0.001259
38 0.001243
39 0.001224
40 0.001211
41 0.001203
42 0.001196
43 0.001195
44 0.001190
45 0.001189
46 0.001184
47 0.001181
48 0.001184
49 0.001179
50 0.001177
51 0.001174
52 0.001177
53 0.001173
54 0.001166
55 0.001157
56 0.001151
57 0.001144
58 0.001146
59 0.001141
60 0.001136
61 0.001129
62 0.001121
63 0.001116
64 0.001113
65 0.001104
66 0.001097
67 0.001083
68 0.001070
69 0.001055
70 0.001042
71 0.001032
72 0.001019
73 0.001016
74 0.001010
75 0.001006
76 0.001003
77 0.001004
78 0.001009
79 0.001008
80 0.001002
81 0.000995
82 0.000984
83 0.000982
84 0.000984
85 0.000984
86 0.000977
87 0.000967
88 0.000956
89 0.000947
90 0.000941
91 0.000937
92 0.000927
93 0.000919
94 0.000915
95 0.000908
96 0.000905
97 0.000903
98 0.000897
99 0.000891
100 0.000879
101 0.000871
102 0.000864
103 0.000857
104 0.000852
105 0.000846
106 0.000851
107 0.000849
108 0.000844
109 0.000837
110 0.000837
111 0.000834
112 0.000837
113 0.000840
114 0.000842
115 0.000837
116 0.000833
117 0.000832
118 0.000831
119 0.000830
120 0.000835
121 0.000840
122 0.000842
123 0.000842
124 0.000839
125 0.000838
126 0.000832
127 0.000829
128 0.000825
129 0.000818
130 0.000811
131 0.000810
132 0.000807
133 0.000803
134 0.000796
135 0.000786
136 0.000772
137 0.000766
138 0.000764
139 0.000765
140 0.000762
141 0.000762
142 0.000763
143 0.000759
144 0.000758
145 0.000758
146 0.000759
147 0.000759
148 0.000759
149 0.000762
150 0.000762
151 0.000758
152 0.000757
153 0.000754
154 0.000750
155 0.000745
156 0.000738
157 0.000734
158 0.000733
159 0.000726
160 0.000721
161 0.000712
162 0.000712
163 0.000711
164 0.000710
165 0.000710
166 0.000709
167 0.000707
168 0.000699
169 0.000693
170 0.000690
171 0.000682
172 0.000681
173 0.000682
174 0.000676
175 0.000674
176 0.000679
177 0.000680
178 0.000679
179 0.000678
180 0.000675
181 0.000673
182 0.000673
183 0.000672
184 0.000670
185 0.000662
186 0.000653
187 0.000646
188 0.000634
189 0.000619
190 0.000608
191 0.000609
192 0.000610
193 0.000611
194 0.000609
195 0.000608
196 0.000605
197 0.000604
198 0.000605
199 0.000601
200 0.000595
201 0.000592
202 0.000586
203 0.000585
204 0.000583
205 0.000584
206 0.000586
207 0.000587
208 0.000586
209 0.000583
210 0.000588
211 0.000592
212 0.000590
213 0.000588
214 0.000588
215 0.000586
216 0.000584
217 0.000584
218 0.000585
219 0.000584
220 0.000579
221 0.000571
222 0.000564
223 0.000557
224 0.000554
225 0.000550
226 0.000549
227 0.000548
228 0.000553
229 0.000548
230 0.000550
231 0.000549
232 0.000546
233 0.000546
234 0.000545
235 0.000549
236 0.000550
237 0.000550
238 0.000546
239 0.000544
240 0.000538
241 0.000529
242 0.000519
243 0.000515
244 0.000510
245 0.000505
246 0.000502
247 0.000496
248 0.000491
249 0.000488
250 0.000484
251 0.000485
252 0.000486
253 0.000487
254 0.000482
255 0.000480
256 0.000474
257 0.000466
258 0.000457
259 0.000450
260 0.000446
261 0.000444
262 0.000440
263 0.000432
264 0.000427
265 0.000424
266 0.000426
267 0.000430
268 0.000433
269 0.000433
270 0.000434
271 0.000437
272 0.000442
273 0.000443
274 0.000442
275 0.000437
276 0.000434
277 0.000425
278 0.000421
279 0.000419
280 0.000420
281 0.000417
282 0.000418
283 0.000421
284 0.000426
285 0.000427
286 0.000429
287 0.000433
288 0.000435
289 0.000435
290 0.000436
291 0.000438
292 0.000438
293 0.000439
294 0.000438
295 0.000429
296 0.000419
297 0.000421
298 0.000425
299 0.000429
300 0.000434
301 0.000443
302 0.000447
303 0.000447
304 0.000450
305 0.000458
306 0.000459
307 0.000456
308 0.000450
309 0.000441
310 0.000436
311 0.000433
312 0.000431
313 0.000427
314 0.000421
315 0.000421
316 0.000422
317 0.000421
318 0.000422
319 0.000422
320 0.000422
321 0.000414
322 0.000407
323 0.000399
324 0.000397
325 0.000394
326 0.000389
327 0.000383
328 0.000377
329 0.000374
330 0.000374
331 0.000378
332 0.000381
333 0.000381
334 0.000384
335 0.000386
336 0.000391
337 0.000393
338 0.000394
339 0.000393
340 0.000394
341 0.000392
342 0.000395
343 0.000395
344 0.000388
345 0.000384
346 0.000385
347 0.000383
348 0.000382
349 0.000386
350 0.000392
351 0.000399
352 0.000404
353 0.000408
354 0.000405
355 0.000403
356 0.000399
357 0.000395
358 0.000394
359 0.000398
360 0.000400
361 0.000405
362 0.000403
363 0.000409
364 0.000417
365 0.000422
366 0.000426
367 0.000427
368 0.000424
369 0.000418
370 0.000411
371 0.000404
372 0.000399
373 0.000393
374 0.000388
375 0.000380
376 0.000376
377 0.000371
378 0.000370
379 0.000371
380 0.000370
381 0.000368
382 0.000366
383 0.000366
384 0.000372
385 0.000379
386 0.000381
387 0.000377
388 0.000373
389 0.000370
390 0.000369
391 0.000368
392 0.000363
393 0.000359
394 0.000356
395 0.000359
396 0.000362
397 0.000364
398 0.000369
399 0.000368
400 0.000369
401 0.000372
402 0.000374
403 0.000377
404 0.000377
405 0.000375
406 0.000370
407 0.000366
408 0.000359
409 0.000355
410 0.000357
411 0.000359
412 0.000360
413 0.000366
414 0.000370
415 0.000377
416 0.000383
417 0.000388
418 0.000390
419 0.000396
420 0.000395
421 0.000394
422 0.000396
423 0.000393
424 0.000389
425 0.000388
426 0.000389
427 0.000388
428 0.000390
429 0.000388
430 0.000387
431 0.000382
432 0.000379
433 0.000378
434 0.000375
435 0.000369
436 0.000364
437 0.000360
438 0.000362
439 0.000359
440 0.000354
441 0.000344
442 0.000334
443 0.000325
444 0.000317
445 0.000313
446 0.000311
447 0.000310
448 0.000310
449 0.000315
450 0.000314
451 0.000311
452 0.000306
453 0.000303
454 0.000299
455 0.000297
456 0.000294
457 0.000293
458 0.000288
459 0.000283
460 0.000281
461 0.000277
462 0.000272
463 0.000276
464 0.000279
465 0.000282
466 0.000285
467 0.000286
468 0.000284
469 0.000279
470 0.000280
471 0.000278
472 0.000273
473 0.000272
474 0.000272
475 0.000272
476 0.000268
477 0.000261
478 0.000258
479 0.000255
480 0.000257
481 0.000260
482 0.000265
483 0.000268
484 0.000270
485 0.000271
486 0.000274
487 0.000275
488 0.000277
489 0.000277
490 0.000272
491 0.000269
492 0.000272
493 0.000271
494 0.000270
495 0.000268
496 0.000264
497 0.000265
498 0.000267
499 0.000267
500 0.000271
501 0.000272
502 0.000271
503 0.000266
504 0.000264
505 0.000263
506 0.000263
507 0.000262
508 0.000260
509 0.000258
510 0.000255
511 0.000254
512 0.000249
513 0.000251
514 0.000247
515 0.000249
516 0.000249
517 0.000250
518 0.000253
519 0.000257
520 0.000257
521 0.000254
522 0.000252
523 0.000250
524 0.000245
525 0.000238
526 0.000236
527 0.000238
528 0.000244
529 0.000250
530 0.000254
531 0.000257
532 0.000257
533 0.000257
534 0.000260
535 0.000256
536 0.000255
537 0.000252
538 0.000246
539 0.000238
540 0.000233
541 0.000231
542 0.000227
543 0.000224
544 0.000222
545 0.000218
546 0.000214
547 0.000210
548 0.000209
549 0.000201
550 0.000196
551 0.000191
552 0.000188
553 0.000186
554 0.000186
555 0.000181
556 0.000179
557 0.000174
558 0.000173
559 0.000175
560 0.000177
561 0.000179
562 0.000179
563 0.000180
564 0.000177
565 0.000174
566 0.000171
567 0.000172
568 0.000166
569 0.000162
570 0.000161
571 0.000161
572 0.000157
573 0.000156
574 0.000151
575 0.000144
576 0.000140
577 0.000139
578 0.000140
579 0.000145
580 0.000147
581 0.000148
582 0.000145
583 0.000142
584 0.000142
585 0.000141
586 0.000146
587 0.000148
588 0.000149
589 0.000151
590 0.000151
591 0.000152
592 0.000154
593 0.000152
594 0.000154
595 0.000160
596 0.000162
597 0.000161
598 0.000164
599 0.000167
600 0.000162
601 0.000157
602 0.000151
603 0.000145
604 0.000143
605 0.000139
606 0.000137
607 0.000132
608 0.000129
609 0.000126
610 0.000121
611 0.000118
612 0.000121
613 0.000121
614 0.000122
615 0.000120
616 0.000119
617 0.000120
618 0.000119
619 0.000118
620 0.000116
621 0.000117
622 0.000121
623 0.000122
624 0.000121
625 0.000122
626 0.000121
627 0.000121
628 0.000118
629 0.000115
630 0.000111
631 0.000107
632 0.000106
633 0.000108
634 0.000109
635 0.000108
636 0.000109
637 0.000108
638 0.000107
639 0.000106
640 0.000108
641 0.000109
642 0.000108
643 0.000106
644 0.000107
645 0.000105
646 0.000104
647 0.000103
648 0.000101
649 0.000100
650 0.000098
651 0.000098
652 0.000101
653 0.000101
654 0.000104
655 0.000107
656 0.000109
657 0.000112
658 0.000114
659 0.000113
660 0.000109
661 0.000103
662 0.000099
663 0.000092
664 0.000092
665 0.000091
666 0.000091
667 0.000089
668 0.000090
669 0.000093
670 0.000097
671 0.000100
672 0.000102
673 0.000105
674 0.000106
675 0.000104
676 0.000102
677 0.000103
678 0.000103
679 0.000105
680 0.000105
681 0.000106
682 0.000105
683 0.000108
684 0.000109
685 0.000111
686 0.000113
687 0.000114
688 0.000113
689 0.000110
690 0.000110
691 0.000107
692 0.000105
693 0.000106
694 0.000102
695 0.000097
696 0.000091
697 0.000086
698 0.000083
699 0.000079
700 0.000075
701 0.000077
702 0.000077
703 0.000076
704 0.000079
705 0.000080
706 0.000082
707 0.000080
708 0.000079
709 0.000075
710 0.000074
711 0.000075
712 0.000078
713 0.000078
714 0.000077
715 0.000076
716 0.000078
717 0.000079
718 0.000080
719 0.000081
720 0.000086
721 0.000089
722 0.000092
723 0.000095
724 0.000095
725 0.000098
726 0.000101
727 0.000105
728 0.000107
729 0.000107
730 0.000107
731 0.000109
732 0.000110
733 0.000113
734 0.000113
735 0.000117
736 0.000117
737 0.000121
738 0.000125
739 0.000127
740 0.000131
741 0.000134
742 0.000132
743 0.000131
744 0.000130
745 0.000127
746 0.000127
747 0.000128
748 0.000129
749 0.000128
750 0.000129
751 0.000128
752 0.000125
753 0.000123
754 0.000127
755 0.000131
756 0.000134
757 0.000136
758 0.000139
759 0.000142
760 0.000142
761 0.000143
762 0.000143
763 0.000141
764 0.000145
765 0.000149
766 0.000155
767 0.000159
768 0.000166
769 0.000170
770 0.000171
771 0.000176
772 0.000179
773 0.000177
774 0.000177
775 0.000174
776 0.000174
777 0.000173
778 0.000174
779 0.000173
780 0.000172
781 0.000174
782 0.000178
783 0.000178
784 0.000176
785 0.000175
786 0.000174
787 0.000174
788 0.000170
789 0.000170
790 0.000170
791 0.000173
792 0.000172
793 0.000172
794 0.000169
795 0.000170
796 0.000168
797 0.000166
798 0.000163
799 0.000162
800 0.000162
801 0.000161
802 0.000161
803 0.000163
804 0.000166
805 0.000167
806 0.000171
807 0.000170
808 0.000170
809 0.000171
