# i correlation
1 0.001439
2 0.001389
3 0.001347
4 0.001314
5 0.001286
6 0.001259
7 0.001237
8 0.001213
9 0.001186
10 0.001168
11 0.001152
12 0.001138
13 0.001125
14 0.001107
15 0.001093
16 0.001074
17 0.001061
18 0.001050
19 0.001043
20 0.001034
21 0.001024
22 0.001021
23 0.001012
24 0.001002
25 0.000995
26 0.000992
27 0.000993
28 0.000993
29 0.000991
30 0.000990
31 0.000988
32 0.000986
33 0.000982
34 0.000982
35 0.000983
36 0.000976
37 0.000970
38 0.000968
39 0.000963
40 0.000956
41 0.000950
42 0.000940
43 0.000929
44 0.000918
45 0.000904
46 0.000890
47 0.000873
48 0.000864
49 0.000860
50 0.000858
51 0.000855
52 0.000854
53 0.000851
54 0.000847
55 0.000838
56 0.000832
57 0.000828
58 0.000825
59 0.000817
60 0.000814
61 0.000808
62 0.000802
63 0.000794
64 0.000789
65 0.000790
66 0.000784
67 0.000780
68 0.000774
69 0.000770
70 0.000767
71 0.000765
72 0.000767
73 0.000765
74 0.000764
75 0.000767
76 0.000766
77 0.000767
78 0.000764
79 0.000760
80 0.000754
81 0.000746
82 0.000741
83 0.000733
84 0.000725
85 0.000715
86 0.000706
87 0.000701
88 0.000696
89 0.000690
90 0.000687
91 0.000682
92 0.000683
93 0.000684
94 0.000684
95 0.000679
96 0.000676
97 0.000671
98 0.000670
99 0.000671
100 0.000673
101 0.000676
102 0.000680
103 0.000685
104 0.000685
105 0.000688
106 0.000692
107 0.000699
108 0.000702
109 0.000701
110 0.000703
111 0.000702
112 0.000700
113 0.000699
114 0.000692
115 0.000682
116 0.000678
117 0.000671
118 0.000672
119 0.000671
120 0.000667
121 0.000661
122 0.000658
123 0.000654
124 0.000649
125 0.000649
126 0.000644
127 0.000634
128 0.000619
129 0.000610
130 0.000604
131 0.000602
132 0.000600
133 0.000599
134 0.000596
135 0.000597
136 0.000603
137 0.000612
138 0.000617
139 0.000616
140 0.000623
141 0.000624
142 0.000627
143 0.000626
144 0.000628
145 0.000631
146 0.000632
147 0.000635
148 0.000642
149 0.000644
150 0.000649
151 0.000653
152 0.000657
153 0.000658
154 0.000661
155 0.000667
156 0.000669
157 0.000671
158 0.000672
159 0.000673
160 0.000679
161 0.000679
162 0.000680
163 0.000680
164 0.000681
165 0.000678
166 0.000671
167 0.000663
168 0.000653
169 0.000640
170 0.000635
171 0.000627
172 0.000621
173 0.000615
174 0.000611
175 0.000609
176 0.000610
177 0.000608
178 0.000607
179 0.000606
180 0.000607
181 0.000607
182 0.000606
183 0.000607
184 0.000609
185 0.000617
186 0.000622
187 0.000622
188 0.000617
189 0.000614
190 0.000613
191 0.000612
192 0.000616
193 0.000621
194 0.000627
195 0.000631
196 0.000630
197 0.000627
198 0.000629
199 0.000626
200 0.000623
201 0.000624
202 0.000620
203 0.000613
204 0.000609
205 0.000604
206 0.000604
207 0.000600
208 0.000602
209 0.000604
210 0.000600
211 0.000595
212 0.000598
213 0.000600
214 0.000602
215 0.000599
216 0.000597
217 0.000598
218 0.000592
219 0.000587
220 0.000584
221 0.000582
222 0.000578
223 0.000572
224 0.000569
225 0.000568
226 0.000562
227 0.000557
228 0.000556
229 0.000552
230 0.000546
231 0.000540
232 0.000535
233 0.000532
234 0.000528
235 0.000530
236 0.000531
237 0.000531
238 0.000531
239 0.000530
240 0.000528
241 0.000523
242 0.000518
243 0.000516
244 0.000518
245 0.000521
246 0.000521
247 0.000521
248 0.000520
249 0.000517
250 0.000512
251 0.000512
252 0.000513
253 0.000511
254 0.000508
255 0.000500
256 0.000499
257 0.000501
258 0.000506
259 0.000511
260 0.000514
261 0.000513
262 0.000511
263 0.000508
264 0.000506
265 0.000500
266 0.000493
267 0.000489
268 0.000485
269 0.000483
270 0.000481
271 0.000482
272 0.000482
273 0.000485
274 0.000487
275 0.000482
276 0.000477
277 0.000475
278 0.000474
279 0.000474
280 0.000473
281 0.000471
282 0.000470
283 0.000463
284 0.000456
285 0.000451
286 0.000453
287 0.000459
288 0.000465
289 0.000468
290 0.000466
291 0.000463
292 0.000460
293 0.000456
294 0.000456
295 0.000455
296 0.000454
297 0.000450
298 0.000442
299 0.000438
300 0.000441
301 0.000443
302 0.000446
303 0.000447
304 0.000446
305 0.000444
306 0.000441
307 0.000440
308 0.000441
309 0.000432
310 0.000427
311 0.000423
312 0.000425
313 0.000424
314 0.000427
315 0.000424
316 0.000420
317 0.000420
318 0.000418
319 0.000414
320 0.000411
321 0.000413
322 0.000419
323 0.000421
324 0.000417
325 0.000412
326 0.000405
327 0.000403
328 0.000395
329 0.000386
330 0.000377
331 0.000369
332 0.000364
333 0.000360
334 0.000356
335 0.000357
336 0.000354
337 0.000349
338 0.000347
339 0.000348
340 0.000351
341 0.000352
342 0.000352
343 0.000351
344 0.000346
345 0.000344
346 0.000348
347 0.000351
348 0.000354
349 0.000358
350 0.000360
351 0.000359
352 0.000358
353 0.000356
354 0.000359
355 0.000360
356 0.000360
357 0.000361
358 0.000362
359 0.000364
360 0.000365
361 0.000368
362 0.000371
363 0.000370
364 0.000372
365 0.000373
366 0.000370
367 0.000370
368 0.000368
369 0.000362
370 0.000357
371 0.000358
372 0.000361
373 0.000363
374 0.000362
375 0.000360
376 0.000361
377 0.000363
378 0.000366
379 0.000373
380 0.000377
381 0.000376
382 0.000375
383 0.000376
384 0.000382
385 0.000389
386 0.000388
387 0.000389
388 0.000389
389 0.000392
390 0.000394
391 0.000394
392 0.000396
393 0.000396
394 0.000401
395 0.000405
396 0.000406
397 0.000404
398 0.000402
399 0.000406
400 0.000413
401 0.000415
402 0.000415
403 0.000410
404 0.000407
405 0.000403
406 0.000400
407 0.000400
408 0.000397
409 0.000393
410 0.000394
411 0.000392
412 0.000394
413 0.000396
414 0.000401
415 0.000402
416 0.000402
417 0.000400
418 0.000397
419 0.000394
420 0.000393
421 0.000394
422 0.000397
423 0.000400
424 0.000405
425 0.000410
426 0.000415
427 0.000413
428 0.000409
429 0.000408
430 0.000405
431 0.000402
432 0.000398
433 0.000394
434 0.000390
435 0.000384
436 0.000377
437 0.000377
438 0.000377
439 0.000377
440 0.000375
441 0.000368
442 0.000361
443 0.000354
444 0.000350
445 0.000351
446 0.000350
447 0.000342
448 0.000339
449 0.000334
450 0.000332
451 0.000331
452 0.000337
453 0.000342
454 0.000347
455 0.000348
456 0.000346
457 0.000346
458 0.000347
459 0.000349
460 0.000352
461 0.000349
462 0.000345
463 0.000341
464 0.000337
465 0.000336
466 0.000334
467 0.000335
468 0.000334
469 0.000327
470 0.000318
471 0.000311
472 0.000310
473 0.000307
474 0.000302
475 0.000301
476 0.000295
477 0.000289
478 0.000283
479 0.000278
480 0.000277
481 0.000278
482 0.000277
483 0.000276
484 0.000273
485 0.000269
486 0.000265
487 0.000267
488 0.000270
489 0.000271
490 0.000274
491 0.000275
492 0.000274
493 0.000271
494 0.000265
495 0.000262
496 0.000252
497 0.000247
498 0.000248
499 0.000247
500 0.000245
501 0.000242
502 0.000244
503 0.000250
504 0.000254
505 0.000256
506 0.000255
507 0.000255
508 0.000254
509 0.000253
510 0.000254
511 0.000250
512 0.000247
513 0.000245
514 0.000242
515 0.000240
516 0.000242
517 0.000242
518 0.000241
519 0.000236
520 0.000237
521 0.000238
522 0.000237
523 0.000232
524 0.000227
525 0.000224
526 0.000221
527 0.000216
528 0.000208
529 0.000204
530 0.000200
531 0.000198
532 0.000199
533 0.000200
534 0.000199
535 0.000200
536 0.000200
537 0.000198
538 0.000193
539 0.000189
540 0.000190
541 0.000189
542 0.000190
543 0.000191
544 0.000193
545 0.000199
546 0.000197
547 0.000204
548 0.000211
549 0.000216
550 0.000219
551 0.000220
552 0.000223
553 0.000225
554 0.000221
555 0.000219
556 0.000215
557 0.000210
558 0.000204
559 0.000201
560 0.000205
561 0.000207
562 0.000209
563 0.000208
564 0.000211
565 0.000214
566 0.000215
567 0.000216
568 0.000215
569 0.000211
570 0.000208
571 0.000208
572 0.000207
573 0.000206
574 0.000205
575 0.000209
576 0.000208
577 0.000210
578 0.000208
579 0.000206
580 0.000205
581 0.000206
582 0.000210
583 0.000212
584 0.000215
585 0.000218
586 0.000223
587 0.000225
588 0.000226
589 0.000226
590 0.000227
591 0.000227
592 0.000227
593 0.000229
594 0.000231
595 0.000233
596 0.000235
597 0.000239
598 0.000240
599 0.000244
600 0.000250
601 0.000257
602 0.000266
603 0.000273
604 0.000279
605 0.000284
606 0.000287
607 0.000288
608 0.000289
609 0.000291
610 0.000295
611 0.000296
612 0.000299
613 0.000300
614 0.000300
615 0.000297
616 0.000298
617 0.000296
618 0.000293
619 0.000289
620 0.000288
621 0.000283
622 0.000278
623 0.000276
624 0.000275
625 0.000273
626 0.000267
627 0.000266
628 0.000263
629 0.000262
630 0.000259
631 0.000254
632 0.000247
633 0.000239
634 0.000231
635 0.000228
636 0.000223
637 0.000221
638 0.000218
639 0.000217
640 0.000214
641 0.000212
642 0.000212
643 0.000210
644 0.000206
645 0.000204
646 0.000204
647 0.000204
648 0.000205
649 0.000204
650 0.000204
651 0.000203
652 0.000201
653 0.000201
654 0.000203
655 0.000204
656 0.000203
657 0.000199
658 0.000196
659 0.000195
660 0.000194
661 0.000192
662 0.000194
663 0.000195
664 0.000194
665 0.000192
666 0.000191
667 0.000193
668 0.000196
669 0.000200
670 0.000202
671 0.000203
672 0.000206
673 0.000210
674 0.000214
675 0.000216
676 0.000217
677 0.000217
678 0.000217
679 0.000216
680 0.000213
681 0.000212
682 0.000211
683 0.000209
684 0.000204
685 0.000203
686 0.000202
687 0.000200
688 0.000197
689 0.000195
690 0.000189
691 0.000182
692 0.000173
693 0.000165
694 0.000157
695 0.000147
696 0.000139
697 0.000135
698 0.000128
699 0.000120
700 0.000114
701 0.000108
702 0.000106
703 0.000104
704 0.000106
705 0.000104
706 0.000103
707 0.000105
708 0.000108
709 0.000109
710 0.000111
711 0.000113
712 0.000118
713 0.000123
714 0.000126
715 0.000127
716 0.000131
717 0.000135
718 0.000135
719 0.000137
720 0.000137
721 0.000136
722 0.000133
723 0.000128
724 0.000122
725 0.000117
726 0.000112
727 0.000113
728 0.000113
729 0.000109
730 0.000105
731 0.000097
732 0.000091
733 0.000084
734 0.000079
735 0.000075
736 0.000071
737 0.000067
738 0.000063
739 0.000063
740 0.000063
741 0.000064
742 0.000065
743 0.000066
744 0.000061
745 0.000058
746 0.000056
747 0.000056
748 0.000058
749 0.000062
750 0.000063
751 0.000064
752 0.000064
753 0.000067
754 0.000070
755 0.000072
756 0.000074
757 0.000077
758 0.000078
759 0.000079
760 0.000082
761 0.000087
762 0.000094
763 0.000096
764 0.000098
765 0.000098
766 0.000095
767 0.000096
768 0.000098
769 0.000097
770 0.000093
771 0.000089
772 0.000086
773 0.000084
774 0.000082
775 0.000080
776 0.000076
777 0.000074
778 0.000071
779 0.000070
780 0.000070
781 0.000072
782 0.000070
783 0.000067
784 0.000063
785 0.000060
786 0.000059
787 0.000057
788 0.000055
789 0.000055
790 0.000055
791 0.000051
792 0.000049
793 0.000048
794 0.000048
795 0.000049
796 0.000051
797 0.000053
798 0.000054
799 0.000056
800 0.000056
801 0.000056
802 0.000055
803 0.000052
804 0.000048
805 0.000047
806 0.000045
807 0.000043
808 0.000039
809 0.000039
