# i correlation
1 0.001641
2 0.001597
3 0.001558
4 0.001527
5 0.001504
6 0.001478
7 0.001460
8 0.001437
9 0.001418
10 0.001402
11 0.001391
12 0.001373
13 0.001357
14 0.001346
15 0.001333
16 0.001321
17 0.001316
18 0.001309
19 0.001305
20 0.001296
21 0.001293
22 0.001294
23 0.001287
24 0.001278
25 0.001268
26 0.001257
27 0.001248
28 0.001235
29 0.001220
30 0.001206
31 0.001192
32 0.001186
33 0.001179
34 0.001175
35 0.001174
36 0.001171
37 0.001168
38 0.001168
39 0.001166
40 0.001158
41 0.001150
42 0.001142
43 0.001132
44 0.001126
45 0.001120
46 0.001111
47 0.001101
48 0.001086
49 0.001075
50 0.001062
51 0.001052
52 0.001042
53 0.001029
54 0.001018
55 0.001013
56 0.001013
57 0.001011
58 0.001009
59 0.001006
60 0.001007
61 0.001002
62 0.001000
63 0.000996
64 0.000991
65 0.000983
66 0.000981
67 0.000976
68 0.000972
69 0.000967
70 0.000961
71 0.000960
72 0.000951
73 0.000945
74 0.000948
75 0.000944
76 0.000942
77 0.000937
78 0.000937
79 0.000943
80 0.000946
81 0.000955
82 0.000955
83 0.000961
84 0.000967
85 0.000973
86 0.000980
87 0.000987
88 0.000996
89 0.000998
90 0.000996
91 0.000989
92 0.000982
93 0.000981
94 0.000981
95 0.000985
96 0.000986
97 0.000986
98 0.000989
99 0.000983
100 0.000977
101 0.000969
102 0.000970
103 0.000973
104 0.000976
105 0.000980
106 0.000981
107 0.000974
108 0.000970
109 0.000967
110 0.000962
111 0.000956
112 0.000949
113 0.000946
114 0.000935
115 0.000924
116 0.000919
117 0.000919
118 0.000919
119 0.000919
120 0.000921
121 0.000920
122 0.000918
123 0.000914
124 0.000913
125 0.000908
126 0.000904
127 0.000898
128 0.000893
129 0.000885
130 0.000882
131 0.000876
132 0.000871
133 0.000867
134 0.000861
135 0.000860
136 0.000856
137 0.000853
138 0.000850
139 0.000847
140 0.000846
141 0.000846
142 0.000848
143 0.000852
144 0.000853
145 0.000855
146 0.000856
147 0.000860
148 0.000859
149 0.000855
150 0.000853
151 0.000850
152 0.000845
153 0.000836
154 0.000828
155 0.000816
156 0.000810
157 0.000803
158 0.000798
159 0.000790
160 0.000784
161 0.000779
162 0.000781
163 0.000779
164 0.000777
165 0.000776
166 0.000774
167 0.000767
168 0.000764
169 0.000762
170 0.000759
171 0.000753
172 0.000745
173 0.000743
174 0.000737
175 0.000731
176 0.000727
177 0.000725
178 0.000716
179 0.000711
180 0.000710
181 0.000704
182 0.000699
183 0.000692
184 0.000689
185 0.000683
186 0.000677
187 0.000674
188 0.000671
189 0.000670
190 0.000672
191 0.000674
192 0.000677
193 0.000675
194 0.000673
195 0.000669
196 0.000660
197 0.000651
198 0.000645
199 0.000637
200 0.000628
201 0.000624
202 0.000619
203 0.000617
204 0.000608
205 0.000603
206 0.000603
207 0.000606
208 0.000610
209 0.000615
210 0.000615
211 0.000615
212 0.000614
213 0.000617
214 0.000619
215 0.000614
216 0.000613
217 0.000608
218 0.000602
219 0.000596
220 0.000587
221 0.000580
222 0.000578
223 0.000576
224 0.000575
225 0.000576
226 0.000577
227 0.000572
228 0.000568
229 0.000559
230 0.000556
231 0.000555
232 0.000549
233 0.000547
234 0.000547
235 0.000549
236 0.000550
237 0.000552
238 0.000550
239 0.000549
240 0.000553
241 0.000552
242 0.000551
243 0.000547
244 0.000548
245 0.000549
246 0.000550
247 0.000556
248 0.000560
249 0.000566
250 0.000572
251 0.000579
252 0.000586
253 0.000590
254 0.000591
255 0.000588
256 0.000589
257 0.000588
258 0.000591
259 0.000589
260 0.000588
261 0.000590
262 0.000588
263 0.000588
264 0.000585
265 0.000586
266 0.000584
267 0.000582
268 0.000577
269 0.000577
270 0.000576
271 0.000578
272 0.000582
273 0.000581
274 0.000580
275 0.000576
276 0.000573
277 0.000570
278 0.000565
279 0.000558
280 0.000553
281 0.000546
282 0.000545
283 0.000540
284 0.000537
285 0.000534
286 0.000530
287 0.000526
288 0.000523
289 0.000518
290 0.000516
291 0.000514
292 0.000511
293 0.000506
294 0.000504
295 0.000500
296 0.000499
297 0.000499
298 0.000498
299 0.000498
300 0.000496
301 0.000495
302 0.000490
303 0.000488
304 0.000484
305 0.000483
306 0.000480
307 0.000477
308 0.000472
309 0.000469
310 0.000467
311 0.000471
312 0.000479
313 0.000482
314 0.000485
315 0.000484
316 0.000483
317 0.000477
318 0.000472
319 0.000465
320 0.000461
321 0.000458
322 0.000451
323 0.000443
324 0.000433
325 0.000425
326 0.000413
327 0.000406
328 0.000401
329 0.000396
330 0.000392
331 0.000391
332 0.000392
333 0.000392
334 0.000392
335 0.000392
336 0.000391
337 0.000384
338 0.000384
339 0.000383
340 0.000386
341 0.000387
342 0.000389
343 0.000389
344 0.000387
345 0.000386
346 0.000387
347 0.000390
348 0.000391
349 0.000392
350 0.000395
351 0.000397
352 0.000398
353 0.000400
354 0.000399
355 0.000396
356 0.000394
357 0.000397
358 0.000396
359 0.000398
360 0.000400
361 0.000398
362 0.000397
363 0.000393
364 0.000386
365 0.000379
366 0.000375
367 0.000373
368 0.000371
369 0.000372
370 0.000375
371 0.000379
372 0.000378
373 0.000376
374 0.000373
375 0.000373
376 0.000373
377 0.000371
378 0.000366
379 0.000362
380 0.000360
381 0.000353
382 0.000351
383 0.000347
384 0.000342
385 0.000337
386 0.000332
387 0.000336
388 0.000337
389 0.000338
390 0.000334
391 0.000332
392 0.000328
393 0.000328
394 0.000326
395 0.000321
396 0.000320
397 0.000314
398 0.000314
399 0.000312
400 0.000308
401 0.000308
402 0.000307
403 0.000302
404 0.000300
405 0.000300
406 0.000298
407 0.000296
408 0.000292
409 0.000290
410 0.000287
411 0.000282
412 0.000276
413 0.000269
414 0.000266
415 0.000266
416 0.000270
417 0.000271
418 0.000270
419 0.000272
420 0.000273
421 0.000270
422 0.000266
423 0.000264
424 0.000260
425 0.000257
426 0.000252
427 0.000244
428 0.000236
429 0.000230
430 0.000227
431 0.000223
432 0.000214
433 0.000211
434 0.000208
435 0.000201
436 0.000198
437 0.000195
438 0.000200
439 0.000204
440 0.000211
441 0.000214
442 0.000216
443 0.000216
444 0.000216
445 0.000218
446 0.000216
447 0.000222
448 0.000224
449 0.000225
450 0.000225
451 0.000226
452 0.000226
453 0.000228
454 0.000228
455 0.000229
456 0.000230
457 0.000232
458 0.000240
459 0.000246
460 0.000250
461 0.000255
462 0.000260
463 0.000267
464 0.000273
465 0.000280
466 0.000283
467 0.000285
468 0.000286
469 0.000285
470 0.000284
471 0.000282
472 0.000283
473 0.000279
474 0.000274
475 0.000271
476 0.000269
477 0.000270
478 0.000267
479 0.000263
480 0.000266
481 0.000267
482 0.000267
483 0.000267
484 0.000265
485 0.000266
486 0.000265
487 0.000262
488 0.000259
489 0.000256
490 0.000251
491 0.000246
492 0.000242
493 0.000241
494 0.000241
495 0.000240
496 0.000239
497 0.000238
498 0.000238
499 0.000239
500 0.000238
501 0.000235
502 0.000232
503 0.000229
504 0.000234
505 0.000237
506 0.000241
507 0.000248
508 0.000252
509 0.000254
510 0.000257
511 0.000262
512 0.000262
513 0.000263
514 0.000265
515 0.000265
516 0.000262
517 0.000256
518 0.000250
519 0.000247
520 0.000239
521 0.000235
522 0.000232
523 0.000227
524 0.000224
525 0.000218
526 0.000212
527 0.000208
528 0.000209
529 0.000209
530 0.000207
531 0.000205
532 0.000203
533 0.000203
534 0.000206
535 0.000210
536 0.000214
537 0.000215
538 0.000217
539 0.000216
540 0.000215
541 0.000216
542 0.000216
543 0.000219
544 0.000219
545 0.000218
546 0.000217
547 0.000218
548 0.000214
549 0.000212
550 0.000209
551 0.000212
552 0.000215
553 0.000216
554 0.000214
555 0.000212
556 0.000214
557 0.000215
558 0.000215
559 0.000214
560 0.000214
561 0.000213
562 0.000213
563 0.000212
564 0.000210
565 0.000205
566 0.000203
567 0.000204
568 0.000205
569 0.000210
570 0.000212
571 0.000214
572 0.000213
573 0.000214
574 0.000214
575 0.000213
576 0.000209
577 0.000202
578 0.000203
579 0.000203
580 0.000202
581 0.000201
582 0.000202
583 0.000201
584 0.000197
585 0.000197
586 0.000198
587 0.000197
588 0.000196
589 0.000195
590 0.000194
591 0.000194
592 0.000193
593 0.000194
594 0.000195
595 0.000198
596 0.000202
597 0.000207
598 0.000209
599 0.000209
600 0.000208
601 0.000208
602 0.000210
603 0.000212
604 0.000210
605 0.000211
606 0.000211
607 0.000216
608 0.000217
609 0.000218
610 0.000218
611 0.000216
612 0.000215
613 0.000216
614 0.000217
615 0.000216
616 0.000212
617 0.000215
618 0.000218
619 0.000220
620 0.000221
621 0.000220
622 0.000219
623 0.000215
624 0.000217
625 0.000216
626 0.000210
627 0.000206
628 0.000203
629 0.000202
630 0.000201
631 0.000203
632 0.000208
633 0.000213
634 0.000217
635 0.000220
636 0.000219
637 0.000216
638 0.000212
639 0.000211
640 0.000208
641 0.000208
642 0.000208
643 0.000208
644 0.000202
645 0.000196
646 0.000192
647 0.000191
648 0.000187
649 0.000182
650 0.000178
651 0.000169
652 0.000160
653 0.000152
654 0.000152
655 0.000150
656 0.000150
657 0.000155
658 0.000156
659 0.000160
660 0.000160
661 0.000160
662 0.000157
663 0.000153
664 0.000152
665 0.000151
666 0.000149
667 0.000147
668 0.000144
669 0.000143
670 0.000141
671 0.000139
672 0.000136
673 0.000135
674 0.000136
675 0.000134
676 0.000136
677 0.000137
678 0.000138
679 0.000138
680 0.000141
681 0.000144
682 0.000146
683 0.000144
684 0.000145
685 0.000146
686 0.000146
687 0.000145
688 0.000143
689 0.000140
690 0.000135
691 0.000134
692 0.000136
693 0.000134
694 0.000131
695 0.000126
696 0.000121
697 0.000116
698 0.000115
699 0.000118
700 0.000119
701 0.000119
702 0.000120
703 0.000123
704 0.000123
705 0.000125
706 0.000126
707 0.000127
708 0.000128
709 0.000127
710 0.000129
711 0.000131
712 0.000132
713 0.000131
714 0.000132
715 0.000131
716 0.000129
717 0.000132
718 0.000133
719 0.000134
720 0.000135
721 0.000138
722 0.000142
723 0.000146
724 0.000150
725 0.000154
726 0.000154
727 0.000154
728 0.000153
729 0.000154
730 0.000155
731 0.000156
732 0.000155
733 0.000154
734 0.000151
735 0.000145
736 0.000142
737 0.000141
738 0.000141
739 0.000142
740 0.000140
741 0.000134
742 0.000128
743 0.000122
744 0.000120
745 0.000119
746 0.000118
747 0.000116
748 0.000113
749 0.000111
750 0.000109
751 0.000108
752 0.000107
753 0.000104
754 0.000103
755 0.000104
756 0.000103
757 0.000098
758 0.000095
759 0.000093
760 0.000092
761 0.000091
762 0.000091
763 0.000094
764 0.000096
765 0.000096
766 0.000095
767 0.000095
768 0.000095
769 0.000096
770 0.000097
771 0.000100
772 0.000101
773 0.000101
774 0.000099
775 0.000097
776 0.000095
777 0.000095
778 0.000096
779 0.000094
780 0.000093
781 0.000091
782 0.000090
783 0.000090
784 0.000088
785 0.000086
786 0.000085
787 0.000085
788 0.000084
789 0.000082
790 0.000081
791 0.000082
792 0.000081
793 0.000081
794 0.000083
795 0.000082
796 0.000079
797 0.000077
798 0.000076
799 0.000076
800 0.000071
801 0.000068
802 0.000062
803 0.000055
804 0.000051
805 0.000051
806 0.000050
807 0.000051
808 0.000050
809 0.000050
