# i correlation
1 0.001914
2 0.001863
3 0.001826
4 0.001795
5 0.001767
6 0.001739
7 0.001714
8 0.001696
9 0.001679
10 0.001658
11 0.001637
12 0.001620
13 0.001605
14 0.001593
15 0.001579
16 0.001558
17 0.001542
18 0.001528
19 0.001517
20 0.001509
21 0.001500
22 0.001493
23 0.001490
24 0.001488
25 0.001484
26 0.001477
27 0.001468
28 0.001462
29 0.001453
30 0.001446
31 0.001439
32 0.001431
33 0.001429
34 0.001434
35 0.001434
36 0.001432
37 0.001422
38 0.001417
39 0.001412
40 0.001404
41 0.001395
42 0.001384
43 0.001379
44 0.001371
45 0.001361
46 0.001356
47 0.001350
48 0.001350
49 0.001354
50 0.001359
51 0.001362
52 0.001362
53 0.001361
54 0.001360
55 0.001358
56 0.001355
57 0.001348
58 0.001343
59 0.001342
60 0.001340
61 0.001332
62 0.001324
63 0.001318
64 0.001316
65 0.001313
66 0.001312
67 0.001309
68 0.001302
69 0.001301
70 0.001301
71 0.001303
72 0.001310
73 0.001314
74 0.001315
75 0.001314
76 0.001311
77 0.001310
78 0.001301
79 0.001291
80 0.001281
81 0.001275
82 0.001274
83 0.001263
84 0.001260
85 0.001252
86 0.001254
87 0.001252
88 0.001246
89 0.001242
90 0.001243
91 0.001236
92 0.001230
93 0.001219
94 0.001208
95 0.001203
96 0.001197
97 0.001190
98 0.001178
99 0.001166
100 0.001159
101 0.001155
102 0.001148
103 0.001143
104 0.001141
105 0.001141
106 0.001138
107 0.001136
108 0.001130
109 0.001132
110 0.001138
111 0.001141
112 0.001144
113 0.001143
114 0.001144
115 0.001147
116 0.001140
117 0.001132
118 0.001127
119 0.001122
120 0.001119
121 0.001115
122 0.001112
123 0.001110
124 0.001105
125 0.001105
126 0.001107
127 0.001107
128 0.001108
129 0.001110
130 0.001111
131 0.001106
132 0.001099
133 0.001095
134 0.001094
135 0.001095
136 0.001099
137 0.001097
138 0.001092
139 0.001088
140 0.001083
141 0.001079
142 0.001076
143 0.001073
144 0.001065
145 0.001063
146 0.001062
147 0.001052
148 0.001045
149 0.001036
150 0.001027
151 0.001017
152 0.001002
153 0.000992
154 0.000983
155 0.000971
156 0.000966
157 0.000960
158 0.000955
159 0.000950
160 0.000944
161 0.000944
162 0.000939
163 0.000933
164 0.000928
165 0.000928
166 0.000925
167 0.000919
168 0.000920
169 0.000924
170 0.000928
171 0.000931
172 0.000935
173 0.000931
174 0.000923
175 0.000918
176 0.000912
177 0.000907
178 0.000902
179 0.000899
180 0.000891
181 0.000882
182 0.000874
183 0.000864
184 0.000863
185 0.000862
186 0.000859
187 0.000856
188 0.000850
189 0.000845
190 0.000840
191 0.000834
192 0.000831
193 0.000824
194 0.000821
195 0.000823
196 0.000826
197 0.000826
198 0.000826
199 0.000830
200 0.000832
201 0.000837
202 0.000843
203 0.000845
204 0.000845
205 0.000849
206 0.000848
207 0.000847
208 0.000854
209 0.000864
210 0.000867
211 0.000871
212 0.000879
213 0.000881
214 0.000877
215 0.000874
216 0.000874
217 0.000875
218 0.000878
219 0.000886
220 0.000894
221 0.000895
222 0.000894
223 0.000896
224 0.000900
225 0.000904
226 0.000909
227 0.000910
228 0.000905
229 0.000892
230 0.000880
231 0.000869
232 0.000864
233 0.000859
234 0.000849
235 0.000845
236 0.000840
237 0.000830
238 0.000820
239 0.000814
240 0.000805
241 0.000796
242 0.000785
243 0.000779
244 0.000776
245 0.000770
246 0.000767
247 0.000769
248 0.000770
249 0.000771
250 0.000777
251 0.000785
252 0.000791
253 0.000791
254 0.000787
255 0.000786
256 0.000783
257 0.000775
258 0.000770
259 0.000765
260 0.000761
261 0.000761
262 0.000759
263 0.000754
264 0.000745
265 0.000737
266 0.000726
267 0.000712
268 0.000705
269 0.000697
270 0.000685
271 0.000680
272 0.000682
273 0.000682
274 0.000682
275 0.000679
276 0.000685
277 0.000689
278 0.000696
279 0.000703
280 0.000706
281 0.000710
282 0.000714
283 0.000718
284 0.000720
285 0.000724
286 0.000731
287 0.000735
288 0.000735
289 0.000730
290 0.000728
291 0.000734
292 0.000732
293 0.000727
294 0.000719
295 0.000715
296 0.000708
297 0.000700
298 0.000693
299 0.000688
300 0.000685
301 0.000679
302 0.000673
303 0.000665
304 0.000661
305 0.000661
306 0.000663
307 0.000663
308 0.000662
309 0.000661
310 0.000661
311 0.000661
312 0.000663
313 0.000659
314 0.000658
315 0.000662
316 0.000663
317 0.000668
318 0.000669
319 0.000668
320 0.000664
321 0.000663
322 0.000666
323 0.000667
324 0.000667
325 0.000664
326 0.000662
327 0.000660
328 0.000657
329 0.000655
330 0.000654
331 0.000657
332 0.000656
333 0.000652
334 0.000652
335 0.000648
336 0.000644
337 0.000644
338 0.000648
339 0.000644
340 0.000643
341 0.000638
342 0.000636
343 0.000632
344 0.000628
345 0.000624
346 0.000621
347 0.000619
348 0.000619
349 0.000616
350 0.000616
351 0.000619
352 0.000614
353 0.000610
354 0.000608
355 0.000612
356 0.000611
357 0.000612
358 0.000612
359 0.000608
360 0.000606
361 0.000600
362 0.000596
363 0.000594
364 0.000592
365 0.000592
366 0.000593
367 0.000594
368 0.000596
369 0.000595
370 0.000591
371 0.000586
372 0.000581
373 0.000580
374 0.000580
375 0.000580
376 0.000577
377 0.000576
378 0.000576
379 0.000574
380 0.000573
381 0.000578
382 0.000583
383 0.000587
384 0.000590
385 0.000590
386 0.000590
387 0.000589
388 0.000589
389 0.000590
390 0.000584
391 0.000585
392 0.000582
393 0.000579
394 0.000581
395 0.000581
396 0.000584
397 0.000588
398 0.000592
399 0.000590
400 0.000585
401 0.000584
402 0.000579
403 0.000575
404 0.000573
405 0.000570
406 0.000566
407 0.000562
408 0.000564
409 0.000570
410 0.000570
411 0.000567
412 0.000557
413 0.000545
414 0.000538
415 0.000533
416 0.000528
417 0.000524
418 0.000518
419 0.000520
420 0.000523
421 0.000529
422 0.000535
423 0.000543
424 0.000551
425 0.000554
426 0.000552
427 0.000552
428 0.000557
429 0.000562
430 0.000567
431 0.000566
432 0.000568
433 0.000570
434 0.000573
435 0.000575
436 0.000577
437 0.000579
438 0.000579
439 0.000580
440 0.000577
441 0.000572
442 0.000563
443 0.000556
444 0.000555
445 0.000557
446 0.000552
447 0.000548
448 0.000550
449 0.000554
450 0.000553
451 0.000552
452 0.000557
453 0.000564
454 0.000565
455 0.000564
456 0.000563
457 0.000561
458 0.000564
459 0.000567
460 0.000571
461 0.000575
462 0.000575
463 0.000571
464 0.000568
465 0.000563
466 0.000558
467 0.000554
468 0.000554
469 0.000550
470 0.000548
471 0.000546
472 0.000540
473 0.000537
474 0.000535
475 0.000534
476 0.000531
477 0.000531
478 0.000530
479 0.000528
480 0.000526
481 0.000526
482 0.000522
483 0.000523
484 0.000523
485 0.000523
486 0.000518
487 0.000509
488 0.000503
489 0.000494
490 0.000486
491 0.000476
492 0.000469
493 0.000463
494 0.000458
495 0.000456
496 0.000460
497 0.000460
498 0.000455
499 0.000452
500 0.000450
501 0.000454
502 0.000455
503 0.000456
504 0.000463
505 0.000471
506 0.000473
507 0.000472
508 0.000468
509 0.000469
510 0.000474
511 0.000481
512 0.000486
513 0.000492
514 0.000496
515 0.000495
516 0.000498
517 0.000499
518 0.000502
519 0.000506
520 0.000508
521 0.000510
522 0.000506
523 0.000499
524 0.000497
525 0.000494
526 0.000492
527 0.000489
528 0.000485
529 0.000483
530 0.000482
531 0.000481
532 0.000477
533 0.000473
534 0.000474
535 0.000477
536 0.000478
537 0.000479
538 0.000479
539 0.000484
540 0.000488
541 0.000488
542 0.000486
543 0.000485
544 0.000487
545 0.000491
546 0.000493
547 0.000493
548 0.000492
549 0.000489
550 0.000490
551 0.000488
552 0.000486
553 0.000483
554 0.000481
555 0.000479
556 0.000480
557 0.000479
558 0.000478
559 0.000477
560 0.000475
561 0.000470
562 0.000461
563 0.000455
564 0.000449
565 0.000444
566 0.000437
567 0.000430
568 0.000426
569 0.000421
570 0.000421
571 0.000416
572 0.000408
573 0.000405
574 0.000404
575 0.000399
576 0.000392
577 0.000383
578 0.000379
579 0.000372
580 0.000366
581 0.000361
582 0.000355
583 0.000349
584 0.000343
585 0.000336
586 0.000330
587 0.000326
588 0.000323
589 0.000322
590 0.000319
591 0.000317
592 0.000314
593 0.000316
594 0.000318
595 0.000324
596 0.000327
597 0.000330
598 0.000331
599 0.000331
600 0.000332
601 0.000333
602 0.000335
603 0.000335
604 0.000332
605 0.000327
606 0.000328
607 0.000329
608 0.000331
609 0.000335
610 0.000341
611 0.000345
612 0.000344
613 0.000341
614 0.000339
615 0.000332
616 0.000324
617 0.000320
618 0.000315
619 0.000309
620 0.000302
621 0.000295
622 0.000291
623 0.000285
624 0.000281
625 0.000276
626 0.000268
627 0.000259
628 0.000250
629 0.000246
630 0.000242
631 0.000240
632 0.000239
633 0.000237
634 0.000235
635 0.000235
636 0.000237
637 0.000236
638 0.000232
639 0.000227
640 0.000223
641 0.000222
642 0.000220
643 0.000219
644 0.000220
645 0.000218
646 0.000219
647 0.000221
648 0.000226
649 0.000229
650 0.000230
651 0.000230
652 0.000228
653 0.000228
654 0.000226
655 0.000226
656 0.000227
657 0.000231
658 0.000233
659 0.000232
660 0.000233
661 0.000234
662 0.000236
663 0.000236
664 0.000235
665 0.000235
666 0.000234
667 0.000235
668 0.000232
669 0.000233
670 0.000234
671 0.000236
672 0.000237
673 0.000241
674 0.000239
675 0.000243
676 0.000242
677 0.000244
678 0.000244
679 0.000245
680 0.000246
681 0.000247
682 0.000248
683 0.000247
684 0.000247
685 0.000249
686 0.000251
687 0.000252
688 0.000256
689 0.000260
690 0.000263
691 0.000262
692 0.000260
693 0.000255
694 0.000249
695 0.000244
696 0.000240
697 0.000235
698 0.000228
699 0.000219
700 0.000211
701 0.000205
702 0.000195
703 0.000187
704 0.000181
705 0.000175
706 0.000171
707 0.000167
708 0.000161
709 0.000159
710 0.000155
711 0.000150
712 0.000143
713 0.000139
714 0.000132
715 0.000128
716 0.000126
717 0.000125
718 0.000120
719 0.000115
720 0.000110
721 0.000108
722 0.000106
723 0.000102
724 0.000100
725 0.000104
726 0.000106
727 0.000107
728 0.000106
729 0.000108
730 0.000112
731 0.000115
732 0.000120
733 0.000122
734 0.000123
735 0.000125
736 0.000126
737 0.000127
738 0.000125
739 0.000127
740 0.000130
741 0.000131
742 0.000130
743 0.000125
744 0.000122
745 0.000122
746 0.000123
747 0.000125
748 0.000126
749 0.000127
750 0.000125
751 0.000123
752 0.000120
753 0.000117
754 0.000115
755 0.000114
756 0.000111
757 0.000108
758 0.000105
759 0.000105
760 0.000104
761 0.000102
762 0.000099
763 0.000097
764 0.000097
765 0.000097
766 0.000097
767 0.000100
768 0.000104
769 0.000105
770 0.000104
771 0.000102
772 0.000101
773 0.000101
774 0.000100
775 0.000097
776 0.000095
777 0.000092
778 0.000089
779 0.000086
780 0.000081
781 0.000076
782 0.000074
783 0.000074
784 0.000075
785 0.000075
786 0.000072
787 0.000071
788 0.000069
789 0.000067
790 0.000067
791 0.000067
792 0.000070
793 0.000071
794 0.000069
795 0.000066
796 0.000065
797 0.000065
798 0.000063
799 0.000062
800 0.000061
801 0.000058
802 0.000058
803 0.000059
804 0.000059
805 0.000059
806 0.000057
807 0.000058
808 0.000058
809 0.000060
