# i correlation
1 0.002025
2 0.001978
3 0.001937
4 0.001903
5 0.001870
6 0.001845
7 0.001822
8 0.001806
9 0.001793
10 0.001777
11 0.001756
12 0.001735
13 0.001714
14 0.001696
15 0.001682
16 0.001670
17 0.001661
18 0.001652
19 0.001641
20 0.001627
21 0.001618
22 0.001611
23 0.001597
24 0.001586
25 0.001576
26 0.001563
27 0.001552
28 0.001541
29 0.001525
30 0.001515
31 0.001508
32 0.001499
33 0.001486
34 0.001476
35 0.001469
36 0.001462
37 0.001457
38 0.001451
39 0.001446
40 0.001440
41 0.001435
42 0.001429
43 0.001415
44 0.001399
45 0.001381
46 0.001370
47 0.001361
48 0.001354
49 0.001348
50 0.001345
51 0.001338
52 0.001329
53 0.001322
54 0.001318
55 0.001315
56 0.001308
57 0.001304
58 0.001299
59 0.001295
60 0.001296
61 0.001292
62 0.001288
63 0.001288
64 0.001287
65 0.001282
66 0.001279
67 0.001274
68 0.001270
69 0.001267
70 0.001265
71 0.001262
72 0.001260
73 0.001259
74 0.001259
75 0.001256
76 0.001257
77 0.001259
78 0.001260
79 0.001261
80 0.001259
81 0.001263
82 0.001266
83 0.001268
84 0.001262
85 0.001256
86 0.001248
87 0.001243
88 0.001243
89 0.001241
90 0.001240
91 0.001235
92 0.001237
93 0.001233
94 0.001226
95 0.001218
96 0.001210
97 0.001206
98 0.001203
99 0.001206
100 0.001206
101 0.001209
102 0.001213
103 0.001214
104 0.001214
105 0.001214
106 0.001208
107 0.001204
108 0.001200
109 0.001199
110 0.001195
111 0.001194
112 0.001186
113 0.001184
114 0.001178
115 0.001175
116 0.001170
117 0.001163
118 0.001155
119 0.001148
120 0.001143
121 0.001138
122 0.001130
123 0.001126
124 0.001126
125 0.001126
126 0.001126
127 0.001127
128 0.001120
129 0.001117
130 0.001111
131 0.001105
132 0.001103
133 0.001102
134 0.001099
135 0.001095
136 0.001094
137 0.001095
138 0.001099
139 0.001099
140 0.001095
141 0.001090
142 0.001086
143 0.001083
144 0.001076
145 0.001074
146 0.001070
147 0.001071
148 0.001067
149 0.001060
150 0.001046
151 0.001036
152 0.001027
153 0.001014
154 0.001003
155 0.000997
156 0.000988
157 0.000979
158 0.000967
159 0.000960
160 0.000952
161 0.000947
162 0.000946
163 0.000945
164 0.000945
165 0.000947
166 0.000950
167 0.000951
168 0.000945
169 0.000940
170 0.000934
171 0.000933
172 0.000930
173 0.000932
174 0.000936
175 0.000942
176 0.000944
177 0.000945
178 0.000944
179 0.000943
180 0.000943
181 0.000944
182 0.000945
183 0.000941
184 0.000939
185 0.000942
186 0.000943
187 0.000943
188 0.000941
189 0.000940
190 0.000940
191 0.000936
192 0.000931
193 0.000927
194 0.000927
195 0.000926
196 0.000925
197 0.000927
198 0.000930
199 0.000931
200 0.000927
201 0.000927
202 0.000927
203 0.000926
204 0.000926
205 0.000926
206 0.000925
207 0.000922
208 0.000921
209 0.000923
210 0.000921
211 0.000920
212 0.000923
213 0.000927
214 0.000928
215 0.000931
216 0.000931
217 0.000928
218 0.000922
219 0.000918
220 0.000910
221 0.000902
222 0.000894
223 0.000889
224 0.000883
225 0.000882
226 0.000885
227 0.000887
228 0.000889
229 0.000892
230 0.000892
231 0.000889
232 0.000882
233 0.000876
234 0.000866
235 0.000858
236 0.000847
237 0.000839
238 0.000828
239 0.000822
240 0.000817
241 0.000814
242 0.000806
243 0.000798
244 0.000793
245 0.000789
246 0.000779
247 0.000771
248 0.000770
249 0.000765
250 0.000765
251 0.000769
252 0.000773
253 0.000775
254 0.000782
255 0.000785
256 0.000788
257 0.000789
258 0.000790
259 0.000789
260 0.000784
261 0.000778
262 0.000771
263 0.000766
264 0.000761
265 0.000757
266 0.000756
267 0.000754
268 0.000752
269 0.000748
270 0.000746
271 0.000742
272 0.000740
273 0.000737
274 0.000735
275 0.000732
276 0.000734
277 0.000733
278 0.000733
279 0.000730
280 0.000730
281 0.000723
282 0.000715
283 0.000712
284 0.000710
285 0.000707
286 0.000706
287 0.000706
288 0.000708
289 0.000708
290 0.000706
291 0.000702
292 0.000698
293 0.000698
294 0.000697
295 0.000694
296 0.000693
297 0.000689
298 0.000686
299 0.000684
300 0.000679
301 0.000672
302 0.000669
303 0.000666
304 0.000665
305 0.000665
306 0.000660
307 0.000656
308 0.000656
309 0.000657
310 0.000655
311 0.000655
312 0.000654
313 0.000651
314 0.000653
315 0.000656
316 0.000656
317 0.000655
318 0.000656
319 0.000656
320 0.000658
321 0.000658
322 0.000658
323 0.000655
324 0.000654
325 0.000653
326 0.000654
327 0.000653
328 0.000652
329 0.000650
330 0.000650
331 0.000649
332 0.000651
333 0.000651
334 0.000652
335 0.000652
336 0.000656
337 0.000657
338 0.000656
339 0.000651
340 0.000650
341 0.000650
342 0.000653
343 0.000654
344 0.000657
345 0.000659
346 0.000665
347 0.000665
348 0.000665
349 0.000660
350 0.000660
351 0.000662
352 0.000666
353 0.000670
354 0.000675
355 0.000677
356 0.000680
357 0.000681
358 0.000677
359 0.000671
360 0.000670
361 0.000669
362 0.000665
363 0.000662
364 0.000660
365 0.000656
366 0.000650
367 0.000647
368 0.000649
369 0.000650
370 0.000650
371 0.000647
372 0.000645
373 0.000640
374 0.000633
375 0.000629
376 0.000624
377 0.000623
378 0.000626
379 0.000624
380 0.000624
381 0.000624
382 0.000622
383 0.000618
384 0.000614
385 0.000609
386 0.000607
387 0.000604
388 0.000598
389 0.000596
390 0.000594
391 0.000592
392 0.000593
393 0.000595
394 0.000598
395 0.000601
396 0.000602
397 0.000600
398 0.000597
399 0.000594
400 0.000592
401 0.000587
402 0.000583
403 0.000582
404 0.000579
405 0.000579
406 0.000583
407 0.000583
408 0.000582
409 0.000582
410 0.000576
411 0.000570
412 0.000563
413 0.000556
414 0.000556
415 0.000552
416 0.000550
417 0.000549
418 0.000547
419 0.000541
420 0.000536
421 0.000531
422 0.000523
423 0.000521
424 0.000519
425 0.000523
426 0.000529
427 0.000535
428 0.000536
429 0.000536
430 0.000535
431 0.000536
432 0.000534
433 0.000533
434 0.000530
435 0.000528
436 0.000528
437 0.000528
438 0.000524
439 0.000519
440 0.000516
441 0.000515
442 0.000516
443 0.000516
444 0.000516
445 0.000516
446 0.000517
447 0.000517
448 0.000513
449 0.000512
450 0.000506
451 0.000501
452 0.000497
453 0.000495
454 0.000495
455 0.000494
456 0.000494
457 0.000496
458 0.000497
459 0.000496
460 0.000493
461 0.000487
462 0.000481
463 0.000478
464 0.000474
465 0.000468
466 0.000465
467 0.000463
468 0.000464
469 0.000464
470 0.000463
471 0.000460
472 0.000457
473 0.000452
474 0.000448
475 0.000446
476 0.000441
477 0.000438
478 0.000434
479 0.000432
480 0.000428
481 0.000425
482 0.000418
483 0.000415
484 0.000417
485 0.000419
486 0.000419
487 0.000415
488 0.000411
489 0.000409
490 0.000405
491 0.000402
492 0.000393
493 0.000388
494 0.000383
495 0.000381
496 0.000379
497 0.000376
498 0.000372
499 0.000370
500 0.000366
501 0.000361
502 0.000359
503 0.000359
504 0.000355
505 0.000349
506 0.000341
507 0.000336
508 0.000332
509 0.000333
510 0.000332
511 0.000331
512 0.000328
513 0.000328
514 0.000325
515 0.000320
516 0.000315
517 0.000310
518 0.000308
519 0.000309
520 0.000310
521 0.000312
522 0.000313
523 0.000313
524 0.000313
525 0.000312
526 0.000309
527 0.000309
528 0.000310
529 0.000304
530 0.000302
531 0.000298
532 0.000295
533 0.000290
534 0.000288
535 0.000289
536 0.000290
537 0.000289
538 0.000287
539 0.000287
540 0.000285
541 0.000286
542 0.000284
543 0.000281
544 0.000283
545 0.000288
546 0.000294
547 0.000298
548 0.000300
549 0.000300
550 0.000303
551 0.000306
552 0.000310
553 0.000313
554 0.000318
555 0.000321
556 0.000323
557 0.000328
558 0.000332
559 0.000336
560 0.000343
561 0.000343
562 0.000342
563 0.000345
564 0.000345
565 0.000342
566 0.000341
567 0.000343
568 0.000344
569 0.000349
570 0.000350
571 0.000351
572 0.000351
573 0.000354
574 0.000354
575 0.000354
576 0.000357
577 0.000357
578 0.000357
579 0.000357
580 0.000354
581 0.000350
582 0.000346
583 0.000342
584 0.000338
585 0.000337
586 0.000333
587 0.000329
588 0.000327
589 0.000321
590 0.000314
591 0.000310
592 0.000307
593 0.000303
594 0.000297
595 0.000292
596 0.000290
597 0.000284
598 0.000279
599 0.000273
600 0.000270
601 0.000266
602 0.000266
603 0.000261
604 0.000258
605 0.000252
606 0.000252
607 0.000250
608 0.000251
609 0.000249
610 0.000248
611 0.000247
612 0.000247
613 0.000249
614 0.000249
615 0.000249
616 0.000246
617 0.000244
618 0.000241
619 0.000239
620 0.000239
621 0.000237
622 0.000238
623 0.000241
624 0.000246
625 0.000248
626 0.000250
627 0.000250
628 0.000251
629 0.000253
630 0.000254
631 0.000252
632 0.000251
633 0.000248
634 0.000248
635 0.000247
636 0.000245
637 0.000242
638 0.000238
639 0.000233
640 0.000232
641 0.000230
642 0.000231
643 0.000234
644 0.000239
645 0.000243
646 0.000246
647 0.000247
648 0.000248
649 0.000249
650 0.000254
651 0.000257
652 0.000262
653 0.000267
654 0.000270
655 0.000272
656 0.000276
657 0.000282
658 0.000284
659 0.000288
660 0.000292
661 0.000300
662 0.000309
663 0.000314
664 0.000314
665 0.000317
666 0.000321
667 0.000322
668 0.000323
669 0.000323
670 0.000324
671 0.000324
672 0.000322
673 0.000320
674 0.000319
675 0.000319
676 0.000317
677 0.000312
678 0.000309
679 0.000305
680 0.000304
681 0.000299
682 0.000296
683 0.000297
684 0.000303
685 0.000310
686 0.000318
687 0.000325
688 0.000328
689 0.000330
690 0.000332
691 0.000329
692 0.000329
693 0.000328
694 0.000326
695 0.000324
696 0.000323
697 0.000319
698 0.000317
699 0.000314
700 0.000310
701 0.000307
702 0.000303
703 0.000301
704 0.000298
705 0.000297
706 0.000295
707 0.000292
708 0.000289
709 0.000282
710 0.000274
711 0.000269
712 0.000265
713 0.000261
714 0.000256
715 0.000249
716 0.000243
717 0.000238
718 0.000230
719 0.000217
720 0.000206
721 0.000195
722 0.000185
723 0.000178
724 0.000172
725 0.000168
726 0.000170
727 0.000170
728 0.000166
729 0.000162
730 0.000157
731 0.000151
732 0.000146
733 0.000143
734 0.000142
735 0.000143
736 0.000143
737 0.000141
738 0.000138
739 0.000135
740 0.000132
741 0.000127
742 0.000123
743 0.000120
744 0.000119
745 0.000119
746 0.000116
747 0.000115
748 0.000113
749 0.000114
750 0.000113
751 0.000114
752 0.000113
753 0.000116
754 0.000122
755 0.000127
756 0.000130
757 0.000133
758 0.000134
759 0.000134
760 0.000132
761 0.000133
762 0.000135
763 0.000139
764 0.000143
765 0.000144
766 0.000144
767 0.000146
768 0.000148
769 0.000153
770 0.000156
771 0.000158
772 0.000156
773 0.000155
774 0.000154
775 0.000154
776 0.000152
777 0.000151
778 0.000152
779 0.000154
780 0.000155
781 0.000152
782 0.000148
783 0.000143
784 0.000139
785 0.000133
786 0.000130
787 0.000130
788 0.000131
789 0.000136
790 0.000140
791 0.000143
792 0.000146
793 0.000147
794 0.000147
795 0.000149
796 0.000147
797 0.000146
798 0.000145
799 0.000143
800 0.000145
801 0.000147
802 0.000145
803 0.000140
804 0.000139
805 0.000139
806 0.000137
807 0.000131
808 0.000126
809 0.000123
