# i correlation
1 0.001648
2 0.001603
3 0.001559
4 0.001524
5 0.001496
6 0.001468
7 0.001446
8 0.001424
9 0.001404
10 0.001389
11 0.001370
12 0.001353
13 0.001340
14 0.001333
15 0.001324
16 0.001309
17 0.001296
18 0.001279
19 0.001262
20 0.001247
21 0.001233
22 0.001220
23 0.001208
24 0.001204
25 0.001200
26 0.001194
27 0.001190
28 0.001187
29 0.001180
30 0.001177
31 0.001176
32 0.001177
33 0.001180
34 0.001184
35 0.001184
36 0.001182
37 0.001174
38 0.001166
39 0.001157
40 0.001150
41 0.001155
42 0.001155
43 0.001156
44 0.001157
45 0.001157
46 0.001157
47 0.001155
48 0.001156
49 0.001160
50 0.001159
51 0.001162
52 0.001155
53 0.001145
54 0.001135
55 0.001124
56 0.001115
57 0.001102
58 0.001094
59 0.001088
60 0.001081
61 0.001079
62 0.001077
63 0.001071
64 0.001066
65 0.001066
66 0.001068
67 0.001070
68 0.001069
69 0.001070
70 0.001066
71 0.001066
72 0.001066
73 0.001066
74 0.001068
75 0.001072
76 0.001078
77 0.001082
78 0.001081
79 0.001081
80 0.001084
81 0.001088
82 0.001089
83 0.001085
84 0.001084
85 0.001077
86 0.001077
87 0.001075
88 0.001069
89 0.001060
90 0.001053
91 0.001050
92 0.001045
93 0.001039
94 0.001037
95 0.001032
96 0.001025
97 0.001015
98 0.001002
99 0.000991
100 0.000984
101 0.000978
102 0.000971
103 0.000969
104 0.000961
105 0.000955
106 0.000947
107 0.000936
108 0.000936
109 0.000931
110 0.000928
111 0.000924
112 0.000920
113 0.000919
114 0.000918
115 0.000919
116 0.000915
117 0.000913
118 0.000913
119 0.000909
120 0.000909
121 0.000903
122 0.000899
123 0.000899
124 0.000898
125 0.000902
126 0.000902
127 0.000906
128 0.000905
129 0.000910
130 0.000915
131 0.000914
132 0.000909
133 0.000908
134 0.000906
135 0.000906
136 0.000901
137 0.000899
138 0.000897
139 0.000895
140 0.000894
141 0.000894
142 0.000892
143 0.000891
144 0.000882
145 0.000875
146 0.000872
147 0.000873
148 0.000871
149 0.000869
150 0.000863
151 0.000862
152 0.000862
153 0.000861
154 0.000859
155 0.000853
156 0.000852
157 0.000855
158 0.000857
159 0.000857
160 0.000853
161 0.000847
162 0.000843
163 0.000842
164 0.000842
165 0.000842
166 0.000836
167 0.000833
168 0.000832
169 0.000831
170 0.000831
171 0.000828
172 0.000823
173 0.000819
174 0.000814
175 0.000813
176 0.000808
177 0.000799
178 0.000798
179 0.000796
180 0.000795
181 0.000796
182 0.000798
183 0.000798
184 0.000801
185 0.000806
186 0.000808
187 0.000810
188 0.000811
189 0.000816
190 0.000818
191 0.000815
192 0.000815
193 0.000811
194 0.000806
195 0.000803
196 0.000802
197 0.000801
198 0.000799
199 0.000800
200 0.000801
201 0.000803
202 0.000804
203 0.000799
204 0.000794
205 0.000793
206 0.000792
207 0.000795
208 0.000794
209 0.000792
210 0.000789
211 0.000788
212 0.000778
213 0.000769
214 0.000764
215 0.000757
216 0.000755
217 0.000750
218 0.000744
219 0.000739
220 0.000736
221 0.000734
222 0.000731
223 0.000729
224 0.000726
225 0.000719
226 0.000718
227 0.000711
228 0.000705
229 0.000702
230 0.000704
231 0.000706
232 0.000704
233 0.000709
234 0.000711
235 0.000712
236 0.000713
237 0.000713
238 0.000717
239 0.000717
240 0.000719
241 0.000722
242 0.000721
243 0.000721
244 0.000721
245 0.000723
246 0.000718
247 0.000712
248 0.000707
249 0.000700
250 0.000693
251 0.000692
252 0.000692
253 0.000683
254 0.000674
255 0.000666
256 0.000658
257 0.000655
258 0.000649
259 0.000643
260 0.000636
261 0.000627
262 0.000619
263 0.000613
264 0.000605
265 0.000599
266 0.000596
267 0.000593
268 0.000593
269 0.000591
270 0.000589
271 0.000590
272 0.000594
273 0.000602
274 0.000601
275 0.000598
276 0.000597
277 0.000597
278 0.000603
279 0.000606
280 0.000607
281 0.000608
282 0.000613
283 0.000613
284 0.000615
285 0.000614
286 0.000613
287 0.000614
288 0.000616
289 0.000617
290 0.000617
291 0.000614
292 0.000609
293 0.000606
294 0.000597
295 0.000589
296 0.000580
297 0.000569
298 0.000564
299 0.000559
300 0.000558
301 0.000560
302 0.000560
303 0.000558
304 0.000552
305 0.000549
306 0.000547
307 0.000544
308 0.000543
309 0.000539
310 0.000536
311 0.000531
312 0.000523
313 0.000521
314 0.000525
315 0.000531
316 0.000536
317 0.000542
318 0.000542
319 0.000543
320 0.000543
321 0.000544
322 0.000545
323 0.000546
324 0.000550
325 0.000553
326 0.000559
327 0.000565
328 0.000565
329 0.000564
330 0.000559
331 0.000555
332 0.000557
333 0.000553
334 0.000551
335 0.000545
336 0.000543
337 0.000535
338 0.000531
339 0.000526
340 0.000522
341 0.000520
342 0.000520
343 0.000520
344 0.000520
345 0.000518
346 0.000514
347 0.000510
348 0.000510
349 0.000511
350 0.000511
351 0.000509
352 0.000507
353 0.000504
354 0.000500
355 0.000495
356 0.000490
357 0.000489
358 0.000489
359 0.000492
360 0.000498
361 0.000502
362 0.000504
363 0.000505
364 0.000502
365 0.000503
366 0.000504
367 0.000508
368 0.000514
369 0.000517
370 0.000518
371 0.000514
372 0.000510
373 0.000509
374 0.000505
375 0.000504
376 0.000502
377 0.000501
378 0.000497
379 0.000490
380 0.000487
381 0.000487
382 0.000490
383 0.000495
384 0.000495
385 0.000493
386 0.000495
387 0.000497
388 0.000496
389 0.000492
390 0.000488
391 0.000483
392 0.000482
393 0.000481
394 0.000483
395 0.000487
396 0.000491
397 0.000495
398 0.000496
399 0.000495
400 0.000491
401 0.000490
402 0.000487
403 0.000488
404 0.000487
405 0.000486
406 0.000485
407 0.000482
408 0.000480
409 0.000479
410 0.000478
411 0.000482
412 0.000483
413 0.000484
414 0.000482
415 0.000480
416 0.000481
417 0.000481
418 0.000477
419 0.000479
420 0.000479
421 0.000477
422 0.000477
423 0.000473
424 0.000468
425 0.000461
426 0.000455
427 0.000451
428 0.000448
429 0.000446
430 0.000450
431 0.000453
432 0.000454
433 0.000450
434 0.000445
435 0.000440
436 0.000435
437 0.000433
438 0.000431
439 0.000429
440 0.000429
441 0.000432
442 0.000436
443 0.000439
444 0.000446
445 0.000449
446 0.000447
447 0.000447
448 0.000448
449 0.000451
450 0.000449
451 0.000446
452 0.000443
453 0.000439
454 0.000433
455 0.000428
456 0.000426
457 0.000426
458 0.000427
459 0.000429
460 0.000425
461 0.000423
462 0.000422
463 0.000424
464 0.000422
465 0.000421
466 0.000421
467 0.000418
468 0.000417
469 0.000416
470 0.000410
471 0.000404
472 0.000398
473 0.000399
474 0.000402
475 0.000404
476 0.000402
477 0.000398
478 0.000399
479 0.000399
480 0.000398
481 0.000398
482 0.000392
483 0.000393
484 0.000393
485 0.000390
486 0.000387
487 0.000380
488 0.000370
489 0.000365
490 0.000360
491 0.000360
492 0.000360
493 0.000363
494 0.000361
495 0.000364
496 0.000359
497 0.000356
498 0.000351
499 0.000348
500 0.000345
501 0.000339
502 0.000332
503 0.000328
504 0.000325
505 0.000319
506 0.000317
507 0.000314
508 0.000313
509 0.000312
510 0.000313
511 0.000314
512 0.000315
513 0.000315
514 0.000318
515 0.000321
516 0.000324
517 0.000331
518 0.000332
519 0.000333
520 0.000333
521 0.000330
522 0.000330
523 0.000329
524 0.000333
525 0.000338
526 0.000342
527 0.000345
528 0.000345
529 0.000343
530 0.000344
531 0.000347
532 0.000348
533 0.000349
534 0.000351
535 0.000354
536 0.000356
537 0.000356
538 0.000355
539 0.000355
540 0.000353
541 0.000353
542 0.000350
543 0.000344
544 0.000341
545 0.000338
546 0.000337
547 0.000334
548 0.000330
549 0.000327
550 0.000329
551 0.000328
552 0.000331
553 0.000333
554 0.000334
555 0.000337
556 0.000338
557 0.000339
558 0.000340
559 0.000340
560 0.000343
561 0.000345
562 0.000351
563 0.000351
564 0.000348
565 0.000345
566 0.000342
567 0.000338
568 0.000336
569 0.000340
570 0.000343
571 0.000345
572 0.000345
573 0.000347
574 0.000346
575 0.000344
576 0.000342
577 0.000338
578 0.000335
579 0.000330
580 0.000324
581 0.000318
582 0.000311
583 0.000307
584 0.000304
585 0.000297
586 0.000292
587 0.000289
588 0.000285
589 0.000282
590 0.000280
591 0.000277
592 0.000273
593 0.000270
594 0.000268
595 0.000265
596 0.000261
597 0.000259
598 0.000255
599 0.000252
600 0.000251
601 0.000254
602 0.000251
603 0.000253
604 0.000257
605 0.000258
606 0.000263
607 0.000266
608 0.000272
609 0.000276
610 0.000281
611 0.000286
612 0.000288
613 0.000289
614 0.000292
615 0.000291
616 0.000289
617 0.000287
618 0.000288
619 0.000289
620 0.000291
621 0.000291
622 0.000294
623 0.000295
624 0.000297
625 0.000297
626 0.000298
627 0.000299
628 0.000299
629 0.000300
630 0.000300
631 0.000299
632 0.000299
633 0.000300
634 0.000302
635 0.000303
636 0.000302
637 0.000301
638 0.000302
639 0.000303
640 0.000301
641 0.000299
642 0.000299
643 0.000300
644 0.000301
645 0.000299
646 0.000300
647 0.000299
648 0.000295
649 0.000293
650 0.000289
651 0.000286
652 0.000284
653 0.000282
654 0.000278
655 0.000275
656 0.000272
657 0.000270
658 0.000270
659 0.000269
660 0.000270
661 0.000270
662 0.000270
663 0.000268
664 0.000269
665 0.000271
666 0.000271
667 0.000269
668 0.000269
669 0.000266
670 0.000266
671 0.000264
672 0.000260
673 0.000255
674 0.000255
675 0.000258
676 0.000262
677 0.000262
678 0.000260
679 0.000258
680 0.000254
681 0.000250
682 0.000245
683 0.000241
684 0.000241
685 0.000243
686 0.000242
687 0.000241
688 0.000242
689 0.000242
690 0.000244
691 0.000246
692 0.000249
693 0.000250
694 0.000250
695 0.000253
696 0.000254
697 0.000252
698 0.000250
699 0.000247
700 0.000246
701 0.000243
702 0.000244
703 0.000242
704 0.000242
705 0.000241
706 0.000240
707 0.000238
708 0.000234
709 0.000232
710 0.000231
711 0.000230
712 0.000230
713 0.000228
714 0.000228
715 0.000228
716 0.000228
717 0.000228
718 0.000226
719 0.000227
720 0.000229
721 0.000230
722 0.000230
723 0.000228
724 0.000228
725 0.000227
726 0.000227
727 0.000226
728 0.000224
729 0.000223
730 0.000223
731 0.000223
732 0.000221
733 0.000222
734 0.000224
735 0.000224
736 0.000224
737 0.000224
738 0.000222
739 0.000219
740 0.000216
741 0.000213
742 0.000208
743 0.000206
744 0.000204
745 0.000201
746 0.000198
747 0.000197
748 0.000196
749 0.000197
750 0.000195
751 0.000197
752 0.000198
753 0.000201
754 0.000202
755 0.000205
756 0.000208
757 0.000213
758 0.000217
759 0.000221
760 0.000222
761 0.000226
762 0.000229
763 0.000230
764 0.000232
765 0.000236
766 0.000241
767 0.000244
768 0.000247
769 0.000251
770 0.000255
771 0.000259
772 0.000264
773 0.000267
774 0.000264
775 0.000262
776 0.000261
777 0.000260
778 0.000256
779 0.000256
780 0.000254
781 0.000253
782 0.000251
783 0.000248
784 0.000246
785 0.000244
786 0.000242
787 0.000238
788 0.000233
789 0.000230
790 0.000227
791 0.000222
792 0.000218
793 0.000215
794 0.000213
795 0.000211
796 0.000207
797 0.000204
798 0.000200
799 0.000197
800 0.000194
801 0.000191
802 0.000191
803 0.000189
804 0.000186
805 0.000184
806 0.000183
807 0.000183
808 0.000182
809 0.000180
