# i correlation
1 0.001485
2 0.001431
3 0.001394
4 0.001368
5 0.001344
6 0.001317
7 0.001296
8 0.001277
9 0.001256
10 0.001244
11 0.001236
12 0.001220
13 0.001204
14 0.001197
15 0.001194
16 0.001196
17 0.001191
18 0.001185
19 0.001179
20 0.001168
21 0.001165
22 0.001155
23 0.001145
24 0.001142
25 0.001135
26 0.001126
27 0.001115
28 0.001106
29 0.001097
30 0.001091
31 0.001086
32 0.001086
33 0.001085
34 0.001079
35 0.001071
36 0.001063
37 0.001057
38 0.001049
39 0.001036
40 0.001020
41 0.001007
42 0.000996
43 0.000985
44 0.000980
45 0.000978
46 0.000971
47 0.000965
48 0.000966
49 0.000964
50 0.000956
51 0.000954
52 0.000952
53 0.000946
54 0.000941
55 0.000936
56 0.000931
57 0.000926
58 0.000924
59 0.000924
60 0.000926
61 0.000921
62 0.000916
63 0.000913
64 0.000909
65 0.000908
66 0.000905
67 0.000897
68 0.000885
69 0.000880
70 0.000880
71 0.000879
72 0.000878
73 0.000876
74 0.000870
75 0.000866
76 0.000862
77 0.000854
78 0.000847
79 0.000835
80 0.000829
81 0.000827
82 0.000829
83 0.000829
84 0.000825
85 0.000816
86 0.000811
87 0.000807
88 0.000805
89 0.000802
90 0.000804
91 0.000806
92 0.000807
93 0.000809
94 0.000809
95 0.000808
96 0.000807
97 0.000809
98 0.000809
99 0.000806
100 0.000801
101 0.000796
102 0.000792
103 0.000787
104 0.000786
105 0.000783
106 0.000781
107 0.000779
108 0.000784
109 0.000787
110 0.000786
111 0.000784
112 0.000781
113 0.000779
114 0.000780
115 0.000777
116 0.000777
117 0.000775
118 0.000776
119 0.000779
120 0.000778
121 0.000779
122 0.000772
123 0.000774
124 0.000777
125 0.000780
126 0.000779
127 0.000778
128 0.000772
129 0.000765
130 0.000762
131 0.000761
132 0.000760
133 0.000759
134 0.000754
135 0.000751
136 0.000745
137 0.000741
138 0.000737
139 0.000730
140 0.000723
141 0.000718
142 0.000722
143 0.000722
144 0.000723
145 0.000721
146 0.000715
147 0.000710
148 0.000702
149 0.000702
150 0.000701
151 0.000700
152 0.000699
153 0.000703
154 0.000702
155 0.000700
156 0.000698
157 0.000692
158 0.000688
159 0.000685
160 0.000683
161 0.000682
162 0.000681
163 0.000681
164 0.000681
165 0.000684
166 0.000685
167 0.000679
168 0.000676
169 0.000679
170 0.000685
171 0.000690
172 0.000686
173 0.000682
174 0.000678
175 0.000679
176 0.000679
177 0.000673
178 0.000662
179 0.000655
180 0.000652
181 0.000654
182 0.000651
183 0.000643
184 0.000639
185 0.000638
186 0.000642
187 0.000642
188 0.000640
189 0.000641
190 0.000643
191 0.000641
192 0.000640
193 0.000642
194 0.000642
195 0.000642
196 0.000640
197 0.000639
198 0.000633
199 0.000623
200 0.000610
201 0.000605
202 0.000604
203 0.000600
204 0.000598
205 0.000596
206 0.000593
207 0.000592
208 0.000591
209 0.000594
210 0.000595
211 0.000597
212 0.000598
213 0.000600
214 0.000606
215 0.000610
216 0.000611
217 0.000613
218 0.000615
219 0.000617
220 0.000621
221 0.000624
222 0.000626
223 0.000625
224 0.000623
225 0.000618
226 0.000619
227 0.000617
228 0.000611
229 0.000608
230 0.000606
231 0.000607
232 0.000605
233 0.000602
234 0.000601
235 0.000602
236 0.000601
237 0.000605
238 0.000606
239 0.000602
240 0.000597
241 0.000601
242 0.000604
243 0.000603
244 0.000599
245 0.000599
246 0.000602
247 0.000602
248 0.000603
249 0.000601
250 0.000596
251 0.000593
252 0.000587
253 0.000587
254 0.000582
255 0.000574
256 0.000572
257 0.000572
258 0.000577
259 0.000578
260 0.000573
261 0.000565
262 0.000563
263 0.000566
264 0.000570
265 0.000572
266 0.000571
267 0.000572
268 0.000572
269 0.000569
270 0.000565
271 0.000560
272 0.000556
273 0.000545
274 0.000540
275 0.000536
276 0.000530
277 0.000521
278 0.000511
279 0.000507
280 0.000505
281 0.000503
282 0.000504
283 0.000505
284 0.000505
285 0.000504
286 0.000507
287 0.000507
288 0.000505
289 0.000502
290 0.000497
291 0.000489
292 0.000480
293 0.000472
294 0.000465
295 0.000455
296 0.000449
297 0.000448
298 0.000445
299 0.000439
300 0.000438
301 0.000438
302 0.000439
303 0.000439
304 0.000443
305 0.000446
306 0.000443
307 0.000443
308 0.000445
309 0.000448
310 0.000443
311 0.000436
312 0.000430
313 0.000428
314 0.000423
315 0.000418
316 0.000418
317 0.000417
318 0.000416
319 0.000417
320 0.000422
321 0.000423
322 0.000422
323 0.000419
324 0.000414
325 0.000410
326 0.000402
327 0.000395
328 0.000393
329 0.000391
330 0.000389
331 0.000386
332 0.000384
333 0.000381
334 0.000375
335 0.000369
336 0.000366
337 0.000364
338 0.000360
339 0.000358
340 0.000356
341 0.000360
342 0.000363
343 0.000361
344 0.000357
345 0.000355
346 0.000356
347 0.000360
348 0.000360
349 0.000363
350 0.000364
351 0.000367
352 0.000367
353 0.000364
354 0.000362
355 0.000364
356 0.000369
357 0.000378
358 0.000382
359 0.000382
360 0.000381
361 0.000381
362 0.000385
363 0.000384
364 0.000379
365 0.000375
366 0.000374
367 0.000375
368 0.000377
369 0.000373
370 0.000365
371 0.000358
372 0.000356
373 0.000355
374 0.000353
375 0.000347
376 0.000344
377 0.000341
378 0.000339
379 0.000340
380 0.000342
381 0.000347
382 0.000351
383 0.000359
384 0.000369
385 0.000378
386 0.000385
387 0.000387
388 0.000387
389 0.000383
390 0.000382
391 0.000383
392 0.000385
393 0.000385
394 0.000380
395 0.000377
396 0.000372
397 0.000367
398 0.000362
399 0.000355
400 0.000350
401 0.000347
402 0.000347
403 0.000347
404 0.000346
405 0.000343
406 0.000344
407 0.000345
408 0.000339
409 0.000338
410 0.000339
411 0.000340
412 0.000339
413 0.000338
414 0.000338
415 0.000335
416 0.000332
417 0.000331
418 0.000332
419 0.000334
420 0.000336
421 0.000336
422 0.000333
423 0.000331
424 0.000327
425 0.000324
426 0.000322
427 0.000322
428 0.000324
429 0.000323
430 0.000319
431 0.000315
432 0.000307
433 0.000300
434 0.000295
435 0.000293
436 0.000290
437 0.000284
438 0.000283
439 0.000287
440 0.000289
441 0.000287
442 0.000285
443 0.000282
444 0.000281
445 0.000279
446 0.000277
447 0.000273
448 0.000264
449 0.000255
450 0.000250
451 0.000247
452 0.000246
453 0.000244
454 0.000239
455 0.000241
456 0.000243
457 0.000247
458 0.000250
459 0.000250
460 0.000250
461 0.000251
462 0.000249
463 0.000244
464 0.000237
465 0.000230
466 0.000223
467 0.000213
468 0.000206
469 0.000197
470 0.000191
471 0.000186
472 0.000184
473 0.000182
474 0.000185
475 0.000189
476 0.000193
477 0.000198
478 0.000203
479 0.000211
480 0.000217
481 0.000222
482 0.000228
483 0.000230
484 0.000234
485 0.000239
486 0.000241
487 0.000240
488 0.000240
489 0.000238
490 0.000238
491 0.000241
492 0.000242
493 0.000239
494 0.000239
495 0.000240
496 0.000240
497 0.000234
498 0.000233
499 0.000233
500 0.000235
501 0.000239
502 0.000244
503 0.000249
504 0.000251
505 0.000251
506 0.000255
507 0.000257
508 0.000256
509 0.000258
510 0.000260
511 0.000263
512 0.000270
513 0.000276
514 0.000275
515 0.000268
516 0.000265
517 0.000267
518 0.000269
519 0.000273
520 0.000273
521 0.000271
522 0.000271
523 0.000273
524 0.000273
525 0.000269
526 0.000264
527 0.000264
528 0.000267
529 0.000266
530 0.000268
531 0.000269
532 0.000270
533 0.000270
534 0.000270
535 0.000271
536 0.000268
537 0.000270
538 0.000274
539 0.000282
540 0.000286
541 0.000283
542 0.000277
543 0.000274
544 0.000272
545 0.000268
546 0.000265
547 0.000262
548 0.000260
549 0.000256
550 0.000251
551 0.000251
552 0.000250
553 0.000248
554 0.000249
555 0.000249
556 0.000249
557 0.000249
558 0.000246
559 0.000241
560 0.000232
561 0.000227
562 0.000223
563 0.000220
564 0.000216
565 0.000216
566 0.000215
567 0.000212
568 0.000210
569 0.000209
570 0.000205
571 0.000201
572 0.000197
573 0.000193
574 0.000185
575 0.000177
576 0.000171
577 0.000164
578 0.000156
579 0.000152
580 0.000150
581 0.000145
582 0.000143
583 0.000142
584 0.000141
585 0.000139
586 0.000138
587 0.000137
588 0.000136
589 0.000136
590 0.000136
591 0.000135
592 0.000135
593 0.000133
594 0.000130
595 0.000129
596 0.000127
597 0.000122
598 0.000112
599 0.000106
600 0.000106
601 0.000104
602 0.000101
603 0.000098
604 0.000098
605 0.000102
606 0.000105
607 0.000104
608 0.000102
609 0.000100
610 0.000100
611 0.000100
612 0.000096
613 0.000096
614 0.000097
615 0.000101
616 0.000102
617 0.000104
618 0.000105
619 0.000105
620 0.000103
621 0.000104
622 0.000103
623 0.000099
624 0.000096
625 0.000094
626 0.000094
627 0.000097
628 0.000097
629 0.000094
630 0.000091
631 0.000090
632 0.000094
633 0.000096
634 0.000095
635 0.000093
636 0.000088
637 0.000087
638 0.000088
639 0.000085
640 0.000080
641 0.000079
642 0.000077
643 0.000078
644 0.000078
645 0.000074
646 0.000070
647 0.000067
648 0.000067
649 0.000069
650 0.000073
651 0.000078
652 0.000081
653 0.000082
654 0.000085
655 0.000088
656 0.000092
657 0.000092
658 0.000093
659 0.000094
660 0.000094
661 0.000088
662 0.000084
663 0.000080
664 0.000078
665 0.000080
666 0.000085
667 0.000089
668 0.000087
669 0.000086
670 0.000087
671 0.000089
672 0.000095
673 0.000099
674 0.000100
675 0.000098
676 0.000100
677 0.000106
678 0.000108
679 0.000108
680 0.000109
681 0.000108
682 0.000106
683 0.000104
684 0.000102
685 0.000097
686 0.000089
687 0.000082
688 0.000079
689 0.000077
690 0.000078
691 0.000074
692 0.000072
693 0.000072
694 0.000068
695 0.000065
696 0.000065
697 0.000065
698 0.000067
699 0.000068
700 0.000067
701 0.000068
702 0.000065
703 0.000066
704 0.000070
705 0.000070
706 0.000071
707 0.000071
708 0.000073
709 0.000075
710 0.000078
711 0.000078
712 0.000077
713 0.000073
714 0.000073
715 0.000075
716 0.000075
717 0.000077
718 0.000077
719 0.000075
720 0.000071
721 0.000064
722 0.000060
723 0.000057
724 0.000056
725 0.000057
726 0.000055
727 0.000054
728 0.000051
729 0.000052
730 0.000053
731 0.000052
732 0.000053
733 0.000055
734 0.000055
735 0.000053
736 0.000052
737 0.000049
738 0.000048
739 0.000045
740 0.000046
741 0.000045
742 0.000045
743 0.000047
744 0.000049
745 0.000049
746 0.000050
747 0.000049
748 0.000052
749 0.000055
750 0.000058
751 0.000057
752 0.000056
753 0.000053
754 0.000050
755 0.000047
756 0.000044
757 0.000040
758 0.000034
759 0.000031
760 0.000030
761 0.000029
762 0.000030
763 0.000030
764 0.000031
765 0.000032
766 0.000035
767 0.000038
768 0.000042
769 0.000043
770 0.000045
771 0.000047
772 0.000048
773 0.000048
774 0.000050
775 0.000053
776 0.000057
777 0.000060
778 0.000064
779 0.000067
780 0.000069
781 0.000072
782 0.000073
783 0.000072
784 0.000071
785 0.000073
786 0.000076
787 0.000077
788 0.000077
789 0.000076
790 0.000078
791 0.000078
792 0.000075
793 0.000071
794 0.000066
795 0.000061
796 0.000059
797 0.000058
798 0.000057
799 0.000054
800 0.000052
801 0.000050
802 0.000049
803 0.000047
804 0.000047
805 0.000045
806 0.000042
807 0.000044
808 0.000047
809 0.000049
