# i correlation
1 0.001718
2 0.001671
3 0.001625
4 0.001585
5 0.001549
6 0.001519
7 0.001492
8 0.001469
9 0.001449
10 0.001424
11 0.001402
12 0.001385
13 0.001368
14 0.001354
15 0.001340
16 0.001324
17 0.001312
18 0.001306
19 0.001303
20 0.001302
21 0.001299
22 0.001297
23 0.001295
24 0.001293
25 0.001289
26 0.001288
27 0.001286
28 0.001281
29 0.001279
30 0.001269
31 0.001262
32 0.001259
33 0.001255
34 0.001249
35 0.001241
36 0.001236
37 0.001226
38 0.001217
39 0.001208
40 0.001198
41 0.001189
42 0.001175
43 0.001165
44 0.001158
45 0.001149
46 0.001139
47 0.001136
48 0.001135
49 0.001132
50 0.001125
51 0.001120
52 0.001113
53 0.001109
54 0.001101
55 0.001094
56 0.001088
57 0.001082
58 0.001076
59 0.001072
60 0.001071
61 0.001068
62 0.001069
63 0.001064
64 0.001059
65 0.001058
66 0.001058
67 0.001058
68 0.001055
69 0.001049
70 0.001044
71 0.001043
72 0.001041
73 0.001039
74 0.001033
75 0.001029
76 0.001023
77 0.001022
78 0.001017
79 0.001013
80 0.001017
81 0.001020
82 0.001022
83 0.001020
84 0.001024
85 0.001031
86 0.001032
87 0.001031
88 0.001027
89 0.001025
90 0.001021
91 0.001017
92 0.001011
93 0.001007
94 0.000995
95 0.000986
96 0.000976
97 0.000969
98 0.000965
99 0.000960
100 0.000959
101 0.000953
102 0.000947
103 0.000947
104 0.000944
105 0.000945
106 0.000947
107 0.000951
108 0.000949
109 0.000945
110 0.000939
111 0.000937
112 0.000932
113 0.000928
114 0.000923
115 0.000919
116 0.000910
117 0.000901
118 0.000891
119 0.000880
120 0.000874
121 0.000867
122 0.000865
123 0.000859
124 0.000857
125 0.000854
126 0.000853
127 0.000849
128 0.000839
129 0.000832
130 0.000827
131 0.000819
132 0.000814
133 0.000810
134 0.000805
135 0.000804
136 0.000802
137 0.000799
138 0.000790
139 0.000787
140 0.000784
141 0.000781
142 0.000779
143 0.000775
144 0.000776
145 0.000775
146 0.000771
147 0.000770
148 0.000765
149 0.000758
150 0.000753
151 0.000749
152 0.000743
153 0.000740
154 0.000735
155 0.000735
156 0.000735
157 0.000738
158 0.000741
159 0.000750
160 0.000754
161 0.000759
162 0.000763
163 0.000767
164 0.000772
165 0.000775
166 0.000775
167 0.000771
168 0.000764
169 0.000758
170 0.000753
171 0.000755
172 0.000752
173 0.000752
174 0.000750
175 0.000746
176 0.000738
177 0.000732
178 0.000726
179 0.000719
180 0.000716
181 0.000713
182 0.000711
183 0.000707
184 0.000706
185 0.000703
186 0.000703
187 0.000703
188 0.000705
189 0.000704
190 0.000701
191 0.000703
192 0.000706
193 0.000708
194 0.000711
195 0.000711
196 0.000706
197 0.000705
198 0.000704
199 0.000697
200 0.000693
201 0.000683
202 0.000675
203 0.000664
204 0.000651
205 0.000637
206 0.000627
207 0.000626
208 0.000623
209 0.000615
210 0.000610
211 0.000604
212 0.000602
213 0.000602
214 0.000603
215 0.000604
216 0.000607
217 0.000611
218 0.000612
219 0.000611
220 0.000609
221 0.000604
222 0.000601
223 0.000598
224 0.000595
225 0.000590
226 0.000585
227 0.000584
228 0.000579
229 0.000578
230 0.000577
231 0.000578
232 0.000585
233 0.000592
234 0.000594
235 0.000597
236 0.000595
237 0.000594
238 0.000591
239 0.000586
240 0.000581
241 0.000575
242 0.000572
243 0.000572
244 0.000572
245 0.000571
246 0.000570
247 0.000565
248 0.000564
249 0.000563
250 0.000560
251 0.000559
252 0.000559
253 0.000560
254 0.000558
255 0.000556
256 0.000554
257 0.000551
258 0.000551
259 0.000552
260 0.000554
261 0.000559
262 0.000562
263 0.000564
264 0.000563
265 0.000565
266 0.000567
267 0.000569
268 0.000575
269 0.000580
270 0.000586
271 0.000593
272 0.000599
273 0.000605
274 0.000614
275 0.000620
276 0.000621
277 0.000621
278 0.000618
279 0.000617
280 0.000622
281 0.000625
282 0.000631
283 0.000632
284 0.000628
285 0.000623
286 0.000617
287 0.000615
288 0.000615
289 0.000620
290 0.000621
291 0.000619
292 0.000620
293 0.000622
294 0.000619
295 0.000623
296 0.000619
297 0.000622
298 0.000624
299 0.000625
300 0.000627
301 0.000629
302 0.000634
303 0.000638
304 0.000640
305 0.000644
306 0.000645
307 0.000642
308 0.000640
309 0.000636
310 0.000628
311 0.000620
312 0.000614
313 0.000611
314 0.000614
315 0.000610
316 0.000609
317 0.000605
318 0.000603
319 0.000597
320 0.000591
321 0.000585
322 0.000583
323 0.000584
324 0.000584
325 0.000585
326 0.000584
327 0.000582
328 0.000581
329 0.000581
330 0.000580
331 0.000580
332 0.000578
333 0.000575
334 0.000575
335 0.000573
336 0.000570
337 0.000568
338 0.000571
339 0.000575
340 0.000578
341 0.000583
342 0.000586
343 0.000588
344 0.000583
345 0.000582
346 0.000580
347 0.000580
348 0.000578
349 0.000579
350 0.000578
351 0.000576
352 0.000575
353 0.000572
354 0.000570
355 0.000571
356 0.000569
357 0.000566
358 0.000563
359 0.000565
360 0.000565
361 0.000567
362 0.000567
363 0.000566
364 0.000565
365 0.000565
366 0.000564
367 0.000567
368 0.000570
369 0.000567
370 0.000563
371 0.000555
372 0.000548
373 0.000540
374 0.000538
375 0.000537
376 0.000536
377 0.000533
378 0.000531
379 0.000535
380 0.000545
381 0.000553
382 0.000561
383 0.000567
384 0.000563
385 0.000562
386 0.000558
387 0.000553
388 0.000553
389 0.000552
390 0.000555
391 0.000557
392 0.000558
393 0.000557
394 0.000556
395 0.000559
396 0.000558
397 0.000555
398 0.000553
399 0.000551
400 0.000549
401 0.000546
402 0.000545
403 0.000538
404 0.000533
405 0.000525
406 0.000516
407 0.000510
408 0.000506
409 0.000503
410 0.000499
411 0.000495
412 0.000489
413 0.000483
414 0.000479
415 0.000480
416 0.000479
417 0.000477
418 0.000470
419 0.000463
420 0.000457
421 0.000455
422 0.000454
423 0.000455
424 0.000458
425 0.000461
426 0.000466
427 0.000474
428 0.000479
429 0.000485
430 0.000493
431 0.000494
432 0.000498
433 0.000501
434 0.000506
435 0.000507
436 0.000506
437 0.000502
438 0.000492
439 0.000486
440 0.000478
441 0.000466
442 0.000454
443 0.000442
444 0.000428
445 0.000417
446 0.000405
447 0.000393
448 0.000389
449 0.000388
450 0.000387
451 0.000383
452 0.000384
453 0.000386
454 0.000392
455 0.000394
456 0.000402
457 0.000408
458 0.000413
459 0.000414
460 0.000417
461 0.000419
462 0.000426
463 0.000429
464 0.000430
465 0.000430
466 0.000433
467 0.000435
468 0.000439
469 0.000441
470 0.000439
471 0.000437
472 0.000430
473 0.000424
474 0.000417
475 0.000411
476 0.000409
477 0.000407
478 0.000405
479 0.000400
480 0.000396
481 0.000394
482 0.000395
483 0.000396
484 0.000395
485 0.000392
486 0.000389
487 0.000385
488 0.000386
489 0.000387
490 0.000391
491 0.000394
492 0.000397
493 0.000401
494 0.000404
495 0.000406
496 0.000407
497 0.000409
498 0.000405
499 0.000398
500 0.000395
501 0.000384
502 0.000375
503 0.000366
504 0.000357
505 0.000355
506 0.000352
507 0.000354
508 0.000350
509 0.000346
510 0.000341
511 0.000336
512 0.000335
513 0.000332
514 0.000331
515 0.000334
516 0.000338
517 0.000340
518 0.000340
519 0.000340
520 0.000344
521 0.000346
522 0.000349
523 0.000348
524 0.000347
525 0.000345
526 0.000347
527 0.000345
528 0.000341
529 0.000339
530 0.000334
531 0.000326
532 0.000318
533 0.000312
534 0.000306
535 0.000302
536 0.000297
537 0.000290
538 0.000289
539 0.000284
540 0.000280
541 0.000283
542 0.000284
543 0.000287
544 0.000289
545 0.000290
546 0.000288
547 0.000286
548 0.000285
549 0.000285
550 0.000283
551 0.000280
552 0.000277
553 0.000278
554 0.000277
555 0.000277
556 0.000279
557 0.000281
558 0.000281
559 0.000280
560 0.000279
561 0.000278
562 0.000281
563 0.000285
564 0.000283
565 0.000281
566 0.000275
567 0.000272
568 0.000267
569 0.000265
570 0.000263
571 0.000260
572 0.000257
573 0.000254
574 0.000255
575 0.000257
576 0.000257
577 0.000260
578 0.000258
579 0.000257
580 0.000256
581 0.000253
582 0.000251
583 0.000248
584 0.000246
585 0.000246
586 0.000243
587 0.000239
588 0.000237
589 0.000236
590 0.000234
591 0.000233
592 0.000233
593 0.000233
594 0.000233
595 0.000232
596 0.000231
597 0.000233
598 0.000235
599 0.000239
600 0.000244
601 0.000248
602 0.000250
603 0.000253
604 0.000254
605 0.000256
606 0.000258
607 0.000260
608 0.000260
609 0.000261
610 0.000261
611 0.000262
612 0.000264
613 0.000265
614 0.000264
615 0.000266
616 0.000264
617 0.000262
618 0.000265
619 0.000263
620 0.000265
621 0.000268
622 0.000269
623 0.000274
624 0.000279
625 0.000283
626 0.000284
627 0.000288
628 0.000288
629 0.000291
630 0.000293
631 0.000295
632 0.000299
633 0.000304
634 0.000307
635 0.000306
636 0.000304
637 0.000301
638 0.000295
639 0.000286
640 0.000277
641 0.000271
642 0.000269
643 0.000265
644 0.000265
645 0.000265
646 0.000261
647 0.000260
648 0.000259
649 0.000254
650 0.000249
651 0.000246
652 0.000245
653 0.000243
654 0.000244
655 0.000246
656 0.000252
657 0.000258
658 0.000261
659 0.000264
660 0.000268
661 0.000271
662 0.000273
663 0.000275
664 0.000273
665 0.000272
666 0.000271
667 0.000268
668 0.000264
669 0.000261
670 0.000259
671 0.000258
672 0.000256
673 0.000254
674 0.000252
675 0.000250
676 0.000246
677 0.000244
678 0.000242
679 0.000237
680 0.000235
681 0.000234
682 0.000232
683 0.000231
684 0.000231
685 0.000234
686 0.000237
687 0.000238
688 0.000239
689 0.000242
690 0.000244
691 0.000247
692 0.000249
693 0.000251
694 0.000254
695 0.000256
696 0.000256
697 0.000257
698 0.000258
699 0.000258
700 0.000259
701 0.000257
702 0.000255
703 0.000251
704 0.000252
705 0.000252
706 0.000255
707 0.000258
708 0.000261
709 0.000263
710 0.000265
711 0.000266
712 0.000263
713 0.000263
714 0.000262
715 0.000264
716 0.000266
717 0.000267
718 0.000267
719 0.000268
720 0.000269
721 0.000268
722 0.000268
723 0.000266
724 0.000266
725 0.000265
726 0.000264
727 0.000264
728 0.000266
729 0.000270
730 0.000273
731 0.000273
732 0.000274
733 0.000276
734 0.000278
735 0.000279
736 0.000280
737 0.000280
738 0.000280
739 0.000278
740 0.000278
741 0.000277
742 0.000278
743 0.000275
744 0.000273
745 0.000270
746 0.000265
747 0.000261
748 0.000257
749 0.000252
750 0.000247
751 0.000243
752 0.000235
753 0.000228
754 0.000219
755 0.000210
756 0.000203
757 0.000197
758 0.000191
759 0.000188
760 0.000185
761 0.000181
762 0.000178
763 0.000176
764 0.000174
765 0.000174
766 0.000177
767 0.000178
768 0.000181
769 0.000183
770 0.000185
771 0.000187
772 0.000187
773 0.000187
774 0.000188
775 0.000189
776 0.000189
777 0.000191
778 0.000194
779 0.000194
780 0.000194
781 0.000194
782 0.000195
783 0.000196
784 0.000196
785 0.000193
786 0.000189
787 0.000184
788 0.000180
789 0.000179
790 0.000176
791 0.000172
792 0.000169
793 0.000163
794 0.000156
795 0.000151
796 0.000149
797 0.000153
798 0.000157
799 0.000157
800 0.000155
801 0.000151
802 0.000147
803 0.000142
804 0.000140
805 0.000137
806 0.000136
807 0.000136
808 0.000134
809 0.000134
