# i correlation
1 0.001610
2 0.001558
3 0.001515
4 0.001476
5 0.001444
6 0.001410
7 0.001383
8 0.001361
9 0.001346
10 0.001327
11 0.001310
12 0.001290
13 0.001267
14 0.001246
15 0.001228
16 0.001212
17 0.001202
18 0.001189
19 0.001180
20 0.001177
21 0.001169
22 0.001157
23 0.001146
24 0.001131
25 0.001118
26 0.001106
27 0.001090
28 0.001078
29 0.001071
30 0.001060
31 0.001052
32 0.001043
33 0.001036
34 0.001031
35 0.001022
36 0.001010
37 0.000997
38 0.000987
39 0.000978
40 0.000973
41 0.000973
42 0.000970
43 0.000972
44 0.000974
45 0.000977
46 0.000972
47 0.000966
48 0.000961
49 0.000949
50 0.000935
51 0.000921
52 0.000910
53 0.000904
54 0.000899
55 0.000896
56 0.000897
57 0.000895
58 0.000896
59 0.000891
60 0.000883
61 0.000877
62 0.000870
63 0.000867
64 0.000870
65 0.000877
66 0.000878
67 0.000877
68 0.000882
69 0.000883
70 0.000886
71 0.000886
72 0.000883
73 0.000882
74 0.000884
75 0.000882
76 0.000881
77 0.000876
78 0.000874
79 0.000879
80 0.000881
81 0.000878
82 0.000874
83 0.000868
84 0.000866
85 0.000864
86 0.000857
87 0.000852
88 0.000853
89 0.000851
90 0.000848
91 0.000851
92 0.000850
93 0.000849
94 0.000846
95 0.000835
96 0.000824
97 0.000814
98 0.000807
99 0.000806
100 0.000807
101 0.000806
102 0.000800
103 0.000797
104 0.000797
105 0.000796
106 0.000795
107 0.000791
108 0.000796
109 0.000795
110 0.000791
111 0.000790
112 0.000783
113 0.000782
114 0.000780
115 0.000780
116 0.000777
117 0.000774
118 0.000777
119 0.000782
120 0.000783
121 0.000783
122 0.000779
123 0.000776
124 0.000771
125 0.000762
126 0.000753
127 0.000744
128 0.000742
129 0.000740
130 0.000732
131 0.000724
132 0.000720
133 0.000714
134 0.000710
135 0.000707
136 0.000706
137 0.000704
138 0.000704
139 0.000703
140 0.000696
141 0.000690
142 0.000683
143 0.000675
144 0.000671
145 0.000667
146 0.000661
147 0.000648
148 0.000631
149 0.000618
150 0.000609
151 0.000595
152 0.000588
153 0.000580
154 0.000575
155 0.000575
156 0.000575
157 0.000573
158 0.000570
159 0.000570
160 0.000570
161 0.000570
162 0.000569
163 0.000569
164 0.000578
165 0.000586
166 0.000590
167 0.000592
168 0.000592
169 0.000596
170 0.000594
171 0.000592
172 0.000592
173 0.000592
174 0.000594
175 0.000596
176 0.000599
177 0.000604
178 0.000610
179 0.000618
180 0.000624
181 0.000624
182 0.000621
183 0.000615
184 0.000613
185 0.000610
186 0.000609
187 0.000605
188 0.000602
189 0.000600
190 0.000592
191 0.000587
192 0.000585
193 0.000577
194 0.000568
195 0.000562
196 0.000553
197 0.000543
198 0.000536
199 0.000532
200 0.000530
201 0.000528
202 0.000526
203 0.000531
204 0.000534
205 0.000533
206 0.000530
207 0.000528
208 0.000526
209 0.000524
210 0.000525
211 0.000524
212 0.000525
213 0.000526
214 0.000525
215 0.000520
216 0.000509
217 0.000499
218 0.000487
219 0.000475
220 0.000471
221 0.000465
222 0.000461
223 0.000459
224 0.000455
225 0.000455
226 0.000452
227 0.000449
228 0.000445
229 0.000448
230 0.000452
231 0.000450
232 0.000450
233 0.000447
234 0.000453
235 0.000456
236 0.000459
237 0.000463
238 0.000466
239 0.000464
240 0.000464
241 0.000462
242 0.000459
243 0.000457
244 0.000454
245 0.000455
246 0.000458
247 0.000464
248 0.000467
249 0.000471
250 0.000475
251 0.000481
252 0.000485
253 0.000488
254 0.000488
255 0.000489
256 0.000488
257 0.000490
258 0.000491
259 0.000489
260 0.000491
261 0.000493
262 0.000490
263 0.000492
264 0.000488
265 0.000485
266 0.000477
267 0.000473
268 0.000473
269 0.000472
270 0.000472
271 0.000469
272 0.000469
273 0.000470
274 0.000469
275 0.000470
276 0.000465
277 0.000463
278 0.000464
279 0.000467
280 0.000471
281 0.000470
282 0.000470
283 0.000476
284 0.000483
285 0.000485
286 0.000480
287 0.000477
288 0.000478
289 0.000479
290 0.000476
291 0.000471
292 0.000467
293 0.000465
294 0.000462
295 0.000458
296 0.000455
297 0.000451
298 0.000449
299 0.000448
300 0.000446
301 0.000447
302 0.000444
303 0.000444
304 0.000444
305 0.000436
306 0.000434
307 0.000429
308 0.000426
309 0.000425
310 0.000424
311 0.000422
312 0.000414
313 0.000410
314 0.000412
315 0.000413
316 0.000416
317 0.000419
318 0.000421
319 0.000420
320 0.000419
321 0.000419
322 0.000416
323 0.000411
324 0.000405
325 0.000402
326 0.000398
327 0.000395
328 0.000393
329 0.000390
330 0.000386
331 0.000384
332 0.000381
333 0.000378
334 0.000374
335 0.000367
336 0.000364
337 0.000360
338 0.000358
339 0.000356
340 0.000352
341 0.000350
342 0.000351
343 0.000351
344 0.000351
345 0.000348
346 0.000349
347 0.000347
348 0.000343
349 0.000340
350 0.000336
351 0.000333
352 0.000332
353 0.000329
354 0.000325
355 0.000324
356 0.000319
357 0.000319
358 0.000320
359 0.000325
360 0.000330
361 0.000331
362 0.000331
363 0.000329
364 0.000330
365 0.000329
366 0.000326
367 0.000327
368 0.000331
369 0.000336
370 0.000340
371 0.000342
372 0.000347
373 0.000346
374 0.000346
375 0.000348
376 0.000346
377 0.000342
378 0.000338
379 0.000333
380 0.000335
381 0.000340
382 0.000341
383 0.000343
384 0.000348
385 0.000348
386 0.000345
387 0.000342
388 0.000341
389 0.000341
390 0.000340
391 0.000342
392 0.000346
393 0.000349
394 0.000350
395 0.000351
396 0.000350
397 0.000349
398 0.000349
399 0.000347
400 0.000345
401 0.000346
402 0.000351
403 0.000358
404 0.000360
405 0.000358
406 0.000356
407 0.000357
408 0.000352
409 0.000347
410 0.000342
411 0.000338
412 0.000339
413 0.000340
414 0.000340
415 0.000339
416 0.000339
417 0.000338
418 0.000336
419 0.000333
420 0.000324
421 0.000316
422 0.000312
423 0.000306
424 0.000299
425 0.000292
426 0.000285
427 0.000282
428 0.000278
429 0.000275
430 0.000272
431 0.000262
432 0.000252
433 0.000243
434 0.000233
435 0.000223
436 0.000214
437 0.000211
438 0.000208
439 0.000208
440 0.000211
441 0.000211
442 0.000214
443 0.000214
444 0.000216
445 0.000217
446 0.000215
447 0.000213
448 0.000207
449 0.000206
450 0.000205
451 0.000202
452 0.000199
453 0.000192
454 0.000185
455 0.000171
456 0.000159
457 0.000147
458 0.000137
459 0.000137
460 0.000139
461 0.000143
462 0.000147
463 0.000156
464 0.000163
465 0.000167
466 0.000167
467 0.000164
468 0.000164
469 0.000160
470 0.000159
471 0.000161
472 0.000166
473 0.000171
474 0.000172
475 0.000176
476 0.000180
477 0.000177
478 0.000173
479 0.000165
480 0.000161
481 0.000159
482 0.000160
483 0.000166
484 0.000169
485 0.000175
486 0.000177
487 0.000177
488 0.000180
489 0.000180
490 0.000181
491 0.000182
492 0.000186
493 0.000192
494 0.000195
495 0.000200
496 0.000201
497 0.000203
498 0.000203
499 0.000201
500 0.000196
501 0.000192
502 0.000191
503 0.000190
504 0.000193
505 0.000193
506 0.000194
507 0.000197
508 0.000201
509 0.000201
510 0.000201
511 0.000199
512 0.000198
513 0.000195
514 0.000193
515 0.000187
516 0.000184
517 0.000183
518 0.000183
519 0.000184
520 0.000187
521 0.000190
522 0.000190
523 0.000189
524 0.000188
525 0.000189
526 0.000188
527 0.000186
528 0.000187
529 0.000187
530 0.000186
531 0.000191
532 0.000192
533 0.000196
534 0.000199
535 0.000200
536 0.000202
537 0.000203
538 0.000205
539 0.000208
540 0.000209
541 0.000207
542 0.000204
543 0.000194
544 0.000186
545 0.000179
546 0.000169
547 0.000161
548 0.000156
549 0.000148
550 0.000145
551 0.000141
552 0.000140
553 0.000140
554 0.000138
555 0.000128
556 0.000120
557 0.000114
558 0.000107
559 0.000104
560 0.000099
561 0.000089
562 0.000084
563 0.000078
564 0.000072
565 0.000068
566 0.000063
567 0.000059
568 0.000057
569 0.000057
570 0.000058
571 0.000053
572 0.000054
573 0.000055
574 0.000057
575 0.000056
576 0.000058
577 0.000059
578 0.000060
579 0.000063
580 0.000066
581 0.000069
582 0.000070
583 0.000073
584 0.000078
585 0.000082
586 0.000089
587 0.000097
588 0.000105
589 0.000111
590 0.000114
591 0.000116
592 0.000118
593 0.000118
594 0.000119
595 0.000120
596 0.000125
597 0.000127
598 0.000131
599 0.000136
600 0.000137
601 0.000138
602 0.000136
603 0.000132
604 0.000129
605 0.000128
606 0.000128
607 0.000130
608 0.000131
609 0.000131
610 0.000137
611 0.000139
612 0.000141
613 0.000145
614 0.000148
615 0.000151
616 0.000156
617 0.000161
618 0.000168
619 0.000172
620 0.000173
621 0.000174
622 0.000177
623 0.000176
624 0.000179
625 0.000180
626 0.000178
627 0.000177
628 0.000175
629 0.000176
630 0.000176
631 0.000176
632 0.000177
633 0.000180
634 0.000177
635 0.000173
636 0.000168
637 0.000161
638 0.000151
639 0.000143
640 0.000135
641 0.000128
642 0.000125
643 0.000121
644 0.000124
645 0.000127
646 0.000125
647 0.000124
648 0.000123
649 0.000121
650 0.000122
651 0.000120
652 0.000120
653 0.000126
654 0.000132
655 0.000136
656 0.000139
657 0.000141
658 0.000143
659 0.000145
660 0.000147
661 0.000148
662 0.000149
663 0.000148
664 0.000151
665 0.000154
666 0.000156
667 0.000158
668 0.000159
669 0.000160
670 0.000160
671 0.000162
672 0.000164
673 0.000165
674 0.000166
675 0.000166
676 0.000170
677 0.000172
678 0.000175
679 0.000178
680 0.000180
681 0.000184
682 0.000184
683 0.000181
684 0.000178
685 0.000175
686 0.000171
687 0.000166
688 0.000163
689 0.000163
690 0.000165
691 0.000164
692 0.000165
693 0.000163
694 0.000162
695 0.000160
696 0.000158
697 0.000158
698 0.000162
699 0.000164
700 0.000165
701 0.000168
702 0.000170
703 0.000171
704 0.000172
705 0.000174
706 0.000179
707 0.000183
708 0.000182
709 0.000182
710 0.000183
711 0.000182
712 0.000181
713 0.000181
714 0.000179
715 0.000181
716 0.000180
717 0.000181
718 0.000183
719 0.000183
720 0.000182
721 0.000178
722 0.000174
723 0.000170
724 0.000167
725 0.000164
726 0.000162
727 0.000161
728 0.000159
729 0.000157
730 0.000155
731 0.000150
732 0.000146
733 0.000146
734 0.000147
735 0.000147
736 0.000146
737 0.000143
738 0.000143
739 0.000142
740 0.000142
741 0.000136
742 0.000130
743 0.000125
744 0.000121
745 0.000121
746 0.000121
747 0.000115
748 0.000112
749 0.000108
750 0.000105
751 0.000105
752 0.000104
753 0.000105
754 0.000105
755 0.000109
756 0.000112
757 0.000115
758 0.000118
759 0.000119
760 0.000121
761 0.000123
762 0.000125
763 0.000131
764 0.000134
765 0.000142
766 0.000146
767 0.000145
768 0.000145
769 0.000143
770 0.000143
771 0.000142
772 0.000141
773 0.000142
774 0.000147
775 0.000152
776 0.000155
777 0.000160
778 0.000159
779 0.000161
780 0.000161
781 0.000162
782 0.000166
783 0.000170
784 0.000172
785 0.000174
786 0.000178
787 0.000181
788 0.000182
789 0.000182
790 0.000184
791 0.000186
792 0.000191
793 0.000197
794 0.000202
795 0.000204
796 0.000204
797 0.000203
798 0.000204
799 0.000206
800 0.000207
801 0.000205
802 0.000203
803 0.000202
804 0.000201
805 0.000202
806 0.000201
807 0.000198
808 0.000195
809 0.000191
