# i correlation
1 0.001597
2 0.001547
3 0.001500
4 0.001465
5 0.001426
6 0.001399
7 0.001377
8 0.001366
9 0.001357
10 0.001347
11 0.001330
12 0.001318
13 0.001306
14 0.001297
15 0.001290
16 0.001282
17 0.001272
18 0.001267
19 0.001257
20 0.001244
21 0.001227
22 0.001210
23 0.001197
24 0.001183
25 0.001178
26 0.001171
27 0.001168
28 0.001162
29 0.001158
30 0.001151
31 0.001148
32 0.001144
33 0.001140
34 0.001131
35 0.001125
36 0.001120
37 0.001111
38 0.001097
39 0.001080
40 0.001065
41 0.001055
42 0.001045
43 0.001038
44 0.001031
45 0.001024
46 0.001015
47 0.001006
48 0.000995
49 0.000988
50 0.000985
51 0.000986
52 0.000986
53 0.000980
54 0.000971
55 0.000964
56 0.000950
57 0.000942
58 0.000939
59 0.000935
60 0.000932
61 0.000937
62 0.000942
63 0.000942
64 0.000940
65 0.000938
66 0.000935
67 0.000933
68 0.000928
69 0.000924
70 0.000917
71 0.000906
72 0.000892
73 0.000880
74 0.000865
75 0.000854
76 0.000848
77 0.000852
78 0.000855
79 0.000857
80 0.000863
81 0.000869
82 0.000872
83 0.000873
84 0.000872
85 0.000873
86 0.000872
87 0.000872
88 0.000872
89 0.000866
90 0.000863
91 0.000858
92 0.000854
93 0.000848
94 0.000843
95 0.000848
96 0.000851
97 0.000855
98 0.000858
99 0.000860
100 0.000860
101 0.000856
102 0.000854
103 0.000855
104 0.000855
105 0.000864
106 0.000867
107 0.000868
108 0.000864
109 0.000854
110 0.000845
111 0.000839
112 0.000831
113 0.000833
114 0.000837
115 0.000849
116 0.000858
117 0.000869
118 0.000875
119 0.000877
120 0.000877
121 0.000874
122 0.000871
123 0.000864
124 0.000858
125 0.000851
126 0.000846
127 0.000842
128 0.000838
129 0.000832
130 0.000822
131 0.000817
132 0.000818
133 0.000818
134 0.000818
135 0.000820
136 0.000822
137 0.000822
138 0.000821
139 0.000816
140 0.000813
141 0.000804
142 0.000805
143 0.000800
144 0.000797
145 0.000795
146 0.000799
147 0.000804
148 0.000808
149 0.000810
150 0.000813
151 0.000812
152 0.000811
153 0.000809
154 0.000810
155 0.000804
156 0.000799
157 0.000794
158 0.000793
159 0.000787
160 0.000785
161 0.000783
162 0.000783
163 0.000783
164 0.000784
165 0.000784
166 0.000784
167 0.000782
168 0.000779
169 0.000780
170 0.000779
171 0.000775
172 0.000770
173 0.000767
174 0.000757
175 0.000747
176 0.000744
177 0.000738
178 0.000732
179 0.000725
180 0.000722
181 0.000717
182 0.000713
183 0.000711
184 0.000708
185 0.000702
186 0.000696
187 0.000689
188 0.000685
189 0.000680
190 0.000672
191 0.000662
192 0.000653
193 0.000644
194 0.000638
195 0.000634
196 0.000634
197 0.000637
198 0.000646
199 0.000651
200 0.000654
201 0.000657
202 0.000660
203 0.000667
204 0.000669
205 0.000672
206 0.000674
207 0.000671
208 0.000670
209 0.000666
210 0.000660
211 0.000652
212 0.000644
213 0.000640
214 0.000635
215 0.000638
216 0.000638
217 0.000638
218 0.000635
219 0.000634
220 0.000631
221 0.000628
222 0.000626
223 0.000623
224 0.000624
225 0.000627
226 0.000626
227 0.000625
228 0.000624
229 0.000617
230 0.000616
231 0.000615
232 0.000615
233 0.000613
234 0.000616
235 0.000621
236 0.000618
237 0.000615
238 0.000610
239 0.000606
240 0.000606
241 0.000601
242 0.000600
243 0.000600
244 0.000600
245 0.000596
246 0.000593
247 0.000587
248 0.000584
249 0.000580
250 0.000581
251 0.000586
252 0.000586
253 0.000583
254 0.000579
255 0.000577
256 0.000570
257 0.000562
258 0.000556
259 0.000550
260 0.000548
261 0.000550
262 0.000550
263 0.000551
264 0.000554
265 0.000560
266 0.000562
267 0.000559
268 0.000561
269 0.000566
270 0.000572
271 0.000576
272 0.000575
273 0.000573
274 0.000571
275 0.000570
276 0.000569
277 0.000570
278 0.000569
279 0.000565
280 0.000563
281 0.000565
282 0.000565
283 0.000563
284 0.000564
285 0.000571
286 0.000581
287 0.000588
288 0.000592
289 0.000592
290 0.000594
291 0.000589
292 0.000581
293 0.000575
294 0.000569
295 0.000563
296 0.000557
297 0.000551
298 0.000548
299 0.000540
300 0.000533
301 0.000532
302 0.000534
303 0.000537
304 0.000540
305 0.000542
306 0.000546
307 0.000544
308 0.000540
309 0.000533
310 0.000525
311 0.000515
312 0.000508
313 0.000504
314 0.000497
315 0.000490
316 0.000485
317 0.000482
318 0.000483
319 0.000482
320 0.000483
321 0.000488
322 0.000495
323 0.000502
324 0.000506
325 0.000507
326 0.000504
327 0.000501
328 0.000495
329 0.000487
330 0.000485
331 0.000483
332 0.000484
333 0.000486
334 0.000486
335 0.000484
336 0.000483
337 0.000480
338 0.000481
339 0.000480
340 0.000481
341 0.000483
342 0.000486
343 0.000488
344 0.000484
345 0.000482
346 0.000477
347 0.000471
348 0.000468
349 0.000470
350 0.000472
351 0.000473
352 0.000475
353 0.000479
354 0.000478
355 0.000473
356 0.000469
357 0.000467
358 0.000464
359 0.000461
360 0.000456
361 0.000453
362 0.000451
363 0.000451
364 0.000448
365 0.000444
366 0.000439
367 0.000434
368 0.000433
369 0.000435
370 0.000436
371 0.000439
372 0.000440
373 0.000440
374 0.000437
375 0.000435
376 0.000433
377 0.000431
378 0.000428
379 0.000425
380 0.000426
381 0.000426
382 0.000428
383 0.000429
384 0.000431
385 0.000432
386 0.000434
387 0.000432
388 0.000431
389 0.000430
390 0.000431
391 0.000430
392 0.000428
393 0.000428
394 0.000428
395 0.000426
396 0.000418
397 0.000412
398 0.000406
399 0.000396
400 0.000387
401 0.000381
402 0.000377
403 0.000374
404 0.000369
405 0.000361
406 0.000353
407 0.000350
408 0.000349
409 0.000350
410 0.000351
411 0.000355
412 0.000354
413 0.000354
414 0.000351
415 0.000348
416 0.000341
417 0.000332
418 0.000324
419 0.000318
420 0.000313
421 0.000313
422 0.000315
423 0.000319
424 0.000322
425 0.000323
426 0.000327
427 0.000334
428 0.000340
429 0.000344
430 0.000349
431 0.000353
432 0.000352
433 0.000346
434 0.000339
435 0.000333
436 0.000328
437 0.000321
438 0.000316
439 0.000312
440 0.000314
441 0.000321
442 0.000327
443 0.000328
444 0.000330
445 0.000333
446 0.000335
447 0.000334
448 0.000334
449 0.000333
450 0.000334
451 0.000334
452 0.000334
453 0.000335
454 0.000338
455 0.000341
456 0.000341
457 0.000341
458 0.000342
459 0.000346
460 0.000349
461 0.000350
462 0.000349
463 0.000350
464 0.000349
465 0.000348
466 0.000345
467 0.000345
468 0.000345
469 0.000343
470 0.000338
471 0.000333
472 0.000331
473 0.000328
474 0.000326
475 0.000322
476 0.000320
477 0.000318
478 0.000320
479 0.000322
480 0.000326
481 0.000328
482 0.000327
483 0.000325
484 0.000321
485 0.000319
486 0.000316
487 0.000313
488 0.000311
489 0.000310
490 0.000311
491 0.000314
492 0.000317
493 0.000320
494 0.000322
495 0.000324
496 0.000324
497 0.000322
498 0.000314
499 0.000307
500 0.000303
501 0.000297
502 0.000288
503 0.000281
504 0.000275
505 0.000270
506 0.000268
507 0.000267
508 0.000265
509 0.000268
510 0.000273
511 0.000278
512 0.000280
513 0.000280
514 0.000281
515 0.000280
516 0.000280
517 0.000277
518 0.000276
519 0.000273
520 0.000271
521 0.000267
522 0.000267
523 0.000263
524 0.000258
525 0.000253
526 0.000254
527 0.000252
528 0.000252
529 0.000255
530 0.000261
531 0.000265
532 0.000270
533 0.000272
534 0.000271
535 0.000269
536 0.000264
537 0.000263
538 0.000261
539 0.000261
540 0.000263
541 0.000264
542 0.000264
543 0.000262
544 0.000258
545 0.000256
546 0.000256
547 0.000260
548 0.000261
549 0.000263
550 0.000262
551 0.000263
552 0.000261
553 0.000259
554 0.000253
555 0.000250
556 0.000245
557 0.000239
558 0.000238
559 0.000237
560 0.000233
561 0.000228
562 0.000220
563 0.000213
564 0.000205
565 0.000198
566 0.000187
567 0.000181
568 0.000174
569 0.000169
570 0.000161
571 0.000158
572 0.000151
573 0.000150
574 0.000151
575 0.000152
576 0.000151
577 0.000152
578 0.000157
579 0.000161
580 0.000165
581 0.000168
582 0.000164
583 0.000163
584 0.000164
585 0.000162
586 0.000155
587 0.000150
588 0.000146
589 0.000144
590 0.000138
591 0.000135
592 0.000136
593 0.000139
594 0.000143
595 0.000146
596 0.000153
597 0.000156
598 0.000153
599 0.000152
600 0.000151
601 0.000150
602 0.000148
603 0.000148
604 0.000146
605 0.000145
606 0.000143
607 0.000142
608 0.000143
609 0.000143
610 0.000143
611 0.000143
612 0.000143
613 0.000143
614 0.000146
615 0.000148
616 0.000150
617 0.000151
618 0.000151
619 0.000150
620 0.000149
621 0.000144
622 0.000142
623 0.000136
624 0.000133
625 0.000129
626 0.000129
627 0.000128
628 0.000133
629 0.000135
630 0.000139
631 0.000140
632 0.000142
633 0.000144
634 0.000145
635 0.000146
636 0.000145
637 0.000144
638 0.000141
639 0.000140
640 0.000138
641 0.000135
642 0.000132
643 0.000131
644 0.000128
645 0.000127
646 0.000128
647 0.000130
648 0.000131
649 0.000130
650 0.000129
651 0.000129
652 0.000125
653 0.000120
654 0.000113
655 0.000110
656 0.000106
657 0.000103
658 0.000106
659 0.000107
660 0.000109
661 0.000115
662 0.000121
663 0.000128
664 0.000133
665 0.000134
666 0.000138
667 0.000142
668 0.000145
669 0.000143
670 0.000140
671 0.000134
672 0.000131
673 0.000130
674 0.000130
675 0.000128
676 0.000131
677 0.000132
678 0.000134
679 0.000133
680 0.000136
681 0.000134
682 0.000133
683 0.000131
684 0.000129
685 0.000126
686 0.000126
687 0.000128
688 0.000127
689 0.000127
690 0.000124
691 0.000121
692 0.000120
693 0.000119
694 0.000118
695 0.000118
696 0.000122
697 0.000124
698 0.000126
699 0.000129
700 0.000132
701 0.000134
702 0.000133
703 0.000130
704 0.000124
705 0.000121
706 0.000118
707 0.000115
708 0.000109
709 0.000105
710 0.000102
711 0.000099
712 0.000095
713 0.000095
714 0.000098
715 0.000102
716 0.000106
717 0.000107
718 0.000107
719 0.000106
720 0.000106
721 0.000106
722 0.000104
723 0.000101
724 0.000096
725 0.000094
726 0.000085
727 0.000079
728 0.000074
729 0.000074
730 0.000071
731 0.000074
732 0.000076
733 0.000077
734 0.000075
735 0.000075
736 0.000073
737 0.000072
738 0.000068
739 0.000065
740 0.000056
741 0.000050
742 0.000043
743 0.000041
744 0.000039
745 0.000039
746 0.000039
747 0.000039
748 0.000040
749 0.000042
750 0.000045
751 0.000047
752 0.000049
753 0.000051
754 0.000054
755 0.000054
756 0.000053
757 0.000055
758 0.000058
759 0.000059
760 0.000056
761 0.000053
762 0.000050
763 0.000044
764 0.000043
765 0.000043
766 0.000045
767 0.000046
768 0.000048
769 0.000047
770 0.000044
771 0.000036
772 0.000030
773 0.000026
774 0.000022
775 0.000017
776 0.000014
777 0.000013
778 0.000014
779 0.000016
780 0.000019
781 0.000025
782 0.000032
783 0.000039
784 0.000046
785 0.000052
786 0.000057
787 0.000062
788 0.000062
789 0.000060
790 0.000058
791 0.000059
792 0.000057
793 0.000056
794 0.000054
795 0.000055
796 0.000054
797 0.000054
798 0.000054
799 0.000052
800 0.000052
801 0.000052
802 0.000051
803 0.000048
804 0.000047
805 0.000046
806 0.000047
807 0.000046
808 0.000045
809 0.000043
