# i correlation
1 0.001899
2 0.001845
3 0.001800
4 0.001764
5 0.001730
6 0.001694
7 0.001662
8 0.001632
9 0.001607
10 0.001583
11 0.001560
12 0.001537
13 0.001523
14 0.001514
15 0.001503
16 0.001494
17 0.001492
18 0.001488
19 0.001481
20 0.001468
21 0.001453
22 0.001441
23 0.001427
24 0.001415
25 0.001406
26 0.001399
27 0.001394
28 0.001394
29 0.001390
30 0.001382
31 0.001377
32 0.001370
33 0.001359
34 0.001348
35 0.001338
36 0.001327
37 0.001321
38 0.001306
39 0.001298
40 0.001286
41 0.001276
42 0.001258
43 0.001242
44 0.001228
45 0.001217
46 0.001208
47 0.001197
48 0.001190
49 0.001188
50 0.001184
51 0.001177
52 0.001168
53 0.001156
54 0.001147
55 0.001138
56 0.001136
57 0.001127
58 0.001118
59 0.001113
60 0.001109
61 0.001103
62 0.001101
63 0.001101
64 0.001104
65 0.001103
66 0.001102
67 0.001102
68 0.001110
69 0.001112
70 0.001104
71 0.001096
72 0.001087
73 0.001078
74 0.001071
75 0.001057
76 0.001043
77 0.001030
78 0.001022
79 0.001011
80 0.001003
81 0.000995
82 0.000992
83 0.000985
84 0.000974
85 0.000966
86 0.000962
87 0.000961
88 0.000962
89 0.000963
90 0.000959
91 0.000957
92 0.000954
93 0.000955
94 0.000958
95 0.000962
96 0.000968
97 0.000971
98 0.000972
99 0.000974
100 0.000977
101 0.000978
102 0.000970
103 0.000961
104 0.000949
105 0.000947
106 0.000938
107 0.000931
108 0.000926
109 0.000922
110 0.000915
111 0.000903
112 0.000894
113 0.000890
114 0.000892
115 0.000895
116 0.000890
117 0.000889
118 0.000889
119 0.000889
120 0.000891
121 0.000889
122 0.000884
123 0.000884
124 0.000882
125 0.000877
126 0.000877
127 0.000874
128 0.000871
129 0.000869
130 0.000862
131 0.000856
132 0.000848
133 0.000845
134 0.000841
135 0.000833
136 0.000830
137 0.000827
138 0.000824
139 0.000819
140 0.000814
141 0.000803
142 0.000796
143 0.000787
144 0.000777
145 0.000767
146 0.000766
147 0.000762
148 0.000756
149 0.000750
150 0.000741
151 0.000737
152 0.000732
153 0.000725
154 0.000719
155 0.000717
156 0.000716
157 0.000714
158 0.000707
159 0.000701
160 0.000691
161 0.000680
162 0.000675
163 0.000670
164 0.000665
165 0.000664
166 0.000668
167 0.000674
168 0.000680
169 0.000688
170 0.000696
171 0.000702
172 0.000701
173 0.000700
174 0.000700
175 0.000701
176 0.000699
177 0.000699
178 0.000694
179 0.000689
180 0.000682
181 0.000674
182 0.000667
183 0.000662
184 0.000659
185 0.000657
186 0.000652
187 0.000653
188 0.000656
189 0.000665
190 0.000672
191 0.000673
192 0.000675
193 0.000671
194 0.000665
195 0.000665
196 0.000673
197 0.000682
198 0.000685
199 0.000683
200 0.000678
201 0.000672
202 0.000666
203 0.000662
204 0.000657
205 0.000648
206 0.000647
207 0.000645
208 0.000643
209 0.000637
210 0.000628
211 0.000622
212 0.000615
213 0.000604
214 0.000598
215 0.000592
216 0.000588
217 0.000587
218 0.000582
219 0.000581
220 0.000584
221 0.000588
222 0.000596
223 0.000603
224 0.000608
225 0.000612
226 0.000614
227 0.000619
228 0.000623
229 0.000625
230 0.000621
231 0.000620
232 0.000618
233 0.000618
234 0.000617
235 0.000617
236 0.000621
237 0.000622
238 0.000625
239 0.000628
240 0.000627
241 0.000631
242 0.000632
243 0.000634
244 0.000633
245 0.000628
246 0.000627
247 0.000625
248 0.000625
249 0.000624
250 0.000617
251 0.000613
252 0.000613
253 0.000616
254 0.000618
255 0.000619
256 0.000625
257 0.000632
258 0.000639
259 0.000640
260 0.000642
261 0.000642
262 0.000643
263 0.000643
264 0.000648
265 0.000652
266 0.000655
267 0.000659
268 0.000660
269 0.000661
270 0.000665
271 0.000670
272 0.000675
273 0.000675
274 0.000672
275 0.000668
276 0.000666
277 0.000664
278 0.000660
279 0.000660
280 0.000663
281 0.000658
282 0.000649
283 0.000647
284 0.000648
285 0.000652
286 0.000653
287 0.000644
288 0.000640
289 0.000639
290 0.000642
291 0.000645
292 0.000646
293 0.000647
294 0.000648
295 0.000645
296 0.000638
297 0.000636
298 0.000636
299 0.000635
300 0.000632
301 0.000628
302 0.000625
303 0.000625
304 0.000623
305 0.000624
306 0.000620
307 0.000618
308 0.000618
309 0.000619
310 0.000620
311 0.000620
312 0.000620
313 0.000621
314 0.000620
315 0.000615
316 0.000609
317 0.000605
318 0.000602
319 0.000599
320 0.000595
321 0.000590
322 0.000590
323 0.000590
324 0.000588
325 0.000584
326 0.000583
327 0.000579
328 0.000573
329 0.000569
330 0.000568
331 0.000563
332 0.000558
333 0.000552
334 0.000546
335 0.000538
336 0.000534
337 0.000531
338 0.000526
339 0.000522
340 0.000523
341 0.000523
342 0.000523
343 0.000521
344 0.000523
345 0.000524
346 0.000521
347 0.000517
348 0.000514
349 0.000512
350 0.000506
351 0.000503
352 0.000498
353 0.000495
354 0.000498
355 0.000497
356 0.000497
357 0.000499
358 0.000504
359 0.000512
360 0.000513
361 0.000511
362 0.000513
363 0.000516
364 0.000517
365 0.000518
366 0.000516
367 0.000517
368 0.000518
369 0.000522
370 0.000521
371 0.000519
372 0.000520
373 0.000523
374 0.000525
375 0.000528
376 0.000531
377 0.000535
378 0.000536
379 0.000541
380 0.000540
381 0.000539
382 0.000541
383 0.000540
384 0.000535
385 0.000535
386 0.000538
387 0.000540
388 0.000540
389 0.000533
390 0.000527
391 0.000522
392 0.000519
393 0.000517
394 0.000516
395 0.000514
396 0.000512
397 0.000507
398 0.000507
399 0.000512
400 0.000517
401 0.000520
402 0.000515
403 0.000513
404 0.000514
405 0.000516
406 0.000519
407 0.000517
408 0.000516
409 0.000514
410 0.000515
411 0.000514
412 0.000511
413 0.000512
414 0.000514
415 0.000514
416 0.000511
417 0.000505
418 0.000504
419 0.000501
420 0.000500
421 0.000498
422 0.000495
423 0.000501
424 0.000504
425 0.000507
426 0.000507
427 0.000512
428 0.000520
429 0.000525
430 0.000519
431 0.000517
432 0.000517
433 0.000517
434 0.000516
435 0.000508
436 0.000500
437 0.000494
438 0.000489
439 0.000484
440 0.000481
441 0.000476
442 0.000475
443 0.000475
444 0.000469
445 0.000466
446 0.000463
447 0.000459
448 0.000451
449 0.000444
450 0.000440
451 0.000434
452 0.000425
453 0.000416
454 0.000407
455 0.000403
456 0.000397
457 0.000397
458 0.000394
459 0.000394
460 0.000396
461 0.000400
462 0.000405
463 0.000407
464 0.000413
465 0.000415
466 0.000415
467 0.000413
468 0.000415
469 0.000415
470 0.000414
471 0.000409
472 0.000402
473 0.000393
474 0.000388
475 0.000379
476 0.000370
477 0.000363
478 0.000356
479 0.000354
480 0.000351
481 0.000348
482 0.000347
483 0.000343
484 0.000338
485 0.000331
486 0.000322
487 0.000314
488 0.000309
489 0.000305
490 0.000301
491 0.000301
492 0.000305
493 0.000307
494 0.000308
495 0.000309
496 0.000314
497 0.000319
498 0.000323
499 0.000328
500 0.000333
501 0.000335
502 0.000336
503 0.000333
504 0.000322
505 0.000313
506 0.000305
507 0.000297
508 0.000290
509 0.000282
510 0.000273
511 0.000266
512 0.000257
513 0.000251
514 0.000247
515 0.000244
516 0.000247
517 0.000247
518 0.000246
519 0.000244
520 0.000242
521 0.000240
522 0.000239
523 0.000239
524 0.000235
525 0.000233
526 0.000237
527 0.000238
528 0.000241
529 0.000242
530 0.000245
531 0.000246
532 0.000250
533 0.000251
534 0.000251
535 0.000246
536 0.000238
537 0.000235
538 0.000233
539 0.000230
540 0.000222
541 0.000217
542 0.000218
543 0.000218
544 0.000218
545 0.000212
546 0.000210
547 0.000206
548 0.000205
549 0.000203
550 0.000201
551 0.000201
552 0.000200
553 0.000196
554 0.000194
555 0.000190
556 0.000191
557 0.000192
558 0.000194
559 0.000195
560 0.000198
561 0.000201
562 0.000207
563 0.000211
564 0.000212
565 0.000216
566 0.000220
567 0.000225
568 0.000229
569 0.000234
570 0.000239
571 0.000244
572 0.000248
573 0.000249
574 0.000248
575 0.000247
576 0.000247
577 0.000246
578 0.000241
579 0.000234
580 0.000229
581 0.000223
582 0.000218
583 0.000217
584 0.000215
585 0.000212
586 0.000209
587 0.000207
588 0.000203
589 0.000200
590 0.000200
591 0.000203
592 0.000203
593 0.000201
594 0.000201
595 0.000204
596 0.000207
597 0.000211
598 0.000219
599 0.000224
600 0.000230
601 0.000236
602 0.000241
603 0.000242
604 0.000237
605 0.000234
606 0.000235
607 0.000231
608 0.000230
609 0.000227
610 0.000226
611 0.000223
612 0.000223
613 0.000222
614 0.000219
615 0.000217
616 0.000219
617 0.000223
618 0.000221
619 0.000218
620 0.000216
621 0.000215
622 0.000213
623 0.000212
624 0.000211
625 0.000211
626 0.000213
627 0.000215
628 0.000215
629 0.000214
630 0.000213
631 0.000211
632 0.000209
633 0.000204
634 0.000199
635 0.000197
636 0.000194
637 0.000196
638 0.000198
639 0.000205
640 0.000211
641 0.000212
642 0.000217
643 0.000223
644 0.000226
645 0.000228
646 0.000229
647 0.000235
648 0.000239
649 0.000248
650 0.000252
651 0.000253
652 0.000255
653 0.000254
654 0.000254
655 0.000255
656 0.000261
657 0.000267
658 0.000270
659 0.000275
660 0.000278
661 0.000277
662 0.000280
663 0.000284
664 0.000284
665 0.000286
666 0.000290
667 0.000293
668 0.000295
669 0.000298
670 0.000303
671 0.000309
672 0.000314
673 0.000319
674 0.000318
675 0.000313
676 0.000308
677 0.000305
678 0.000303
679 0.000300
680 0.000296
681 0.000292
682 0.000287
683 0.000283
684 0.000277
685 0.000274
686 0.000270
687 0.000269
688 0.000272
689 0.000273
690 0.000278
691 0.000284
692 0.000287
693 0.000288
694 0.000289
695 0.000291
696 0.000291
697 0.000292
698 0.000294
699 0.000298
700 0.000301
701 0.000303
702 0.000300
703 0.000297
704 0.000291
705 0.000286
706 0.000281
707 0.000277
708 0.000277
709 0.000276
710 0.000272
711 0.000265
712 0.000260
713 0.000256
714 0.000252
715 0.000245
716 0.000238
717 0.000232
718 0.000228
719 0.000228
720 0.000226
721 0.000225
722 0.000225
723 0.000227
724 0.000229
725 0.000226
726 0.000226
727 0.000225
728 0.000222
729 0.000219
730 0.000217
731 0.000215
732 0.000212
733 0.000205
734 0.000196
735 0.000189
736 0.000183
737 0.000178
738 0.000177
739 0.000176
740 0.000175
741 0.000175
742 0.000174
743 0.000173
744 0.000170
745 0.000167
746 0.000164
747 0.000162
748 0.000159
749 0.000158
750 0.000157
751 0.000153
752 0.000152
753 0.000149
754 0.000147
755 0.000147
756 0.000144
757 0.000143
758 0.000142
759 0.000142
760 0.000143
761 0.000140
762 0.000135
763 0.000133
764 0.000132
765 0.000132
766 0.000132
767 0.000132
768 0.000134
769 0.000135
770 0.000137
771 0.000137
772 0.000141
773 0.000144
774 0.000146
775 0.000147
776 0.000148
777 0.000147
778 0.000143
779 0.000139
780 0.000135
781 0.000131
782 0.000128
783 0.000127
784 0.000125
785 0.000123
786 0.000122
787 0.000125
788 0.000126
789 0.000126
790 0.000126
791 0.000128
792 0.000131
793 0.000132
794 0.000133
795 0.000132
796 0.000128
797 0.000125
798 0.000127
799 0.000131
800 0.000133
801 0.000132
802 0.000134
803 0.000130
804 0.000124
805 0.000118
806 0.000115
807 0.000112
808 0.000109
809 0.000109
