# i correlation
1 0.001410
2 0.001365
3 0.001328
4 0.001293
5 0.001266
6 0.001248
7 0.001229
8 0.001215
9 0.001196
10 0.001180
11 0.001163
12 0.001149
13 0.001139
14 0.001130
15 0.001125
16 0.001116
17 0.001106
18 0.001101
19 0.001096
20 0.001088
21 0.001079
22 0.001070
23 0.001063
24 0.001056
25 0.001048
26 0.001043
27 0.001039
28 0.001033
29 0.001025
30 0.001017
31 0.001009
32 0.001000
33 0.000994
34 0.000989
35 0.000979
36 0.000966
37 0.000956
38 0.000950
39 0.000945
40 0.000944
41 0.000941
42 0.000940
43 0.000942
44 0.000944
45 0.000947
46 0.000946
47 0.000942
48 0.000940
49 0.000939
50 0.000937
51 0.000932
52 0.000929
53 0.000921
54 0.000915
55 0.000907
56 0.000902
57 0.000903
58 0.000905
59 0.000908
60 0.000910
61 0.000912
62 0.000911
63 0.000911
64 0.000908
65 0.000905
66 0.000900
67 0.000893
68 0.000887
69 0.000884
70 0.000876
71 0.000865
72 0.000852
73 0.000837
74 0.000826
75 0.000820
76 0.000813
77 0.000810
78 0.000806
79 0.000800
80 0.000791
81 0.000785
82 0.000781
83 0.000781
84 0.000783
85 0.000787
86 0.000791
87 0.000794
88 0.000795
89 0.000800
90 0.000803
91 0.000805
92 0.000808
93 0.000808
94 0.000802
95 0.000798
96 0.000795
97 0.000796
98 0.000794
99 0.000792
100 0.000784
101 0.000773
102 0.000761
103 0.000756
104 0.000752
105 0.000747
106 0.000744
107 0.000741
108 0.000732
109 0.000727
110 0.000722
111 0.000717
112 0.000712
113 0.000707
114 0.000703
115 0.000696
116 0.000689
117 0.000684
118 0.000681
119 0.000678
120 0.000671
121 0.000664
122 0.000660
123 0.000652
124 0.000644
125 0.000641
126 0.000633
127 0.000618
128 0.000608
129 0.000600
130 0.000591
131 0.000590
132 0.000592
133 0.000593
134 0.000592
135 0.000589
136 0.000588
137 0.000587
138 0.000580
139 0.000573
140 0.000567
141 0.000561
142 0.000559
143 0.000557
144 0.000555
145 0.000554
146 0.000557
147 0.000559
148 0.000555
149 0.000552
150 0.000550
151 0.000548
152 0.000551
153 0.000554
154 0.000552
155 0.000550
156 0.000549
157 0.000547
158 0.000545
159 0.000546
160 0.000545
161 0.000543
162 0.000541
163 0.000536
164 0.000530
165 0.000524
166 0.000522
167 0.000523
168 0.000523
169 0.000522
170 0.000522
171 0.000521
172 0.000512
173 0.000503
174 0.000497
175 0.000494
176 0.000493
177 0.000490
178 0.000481
179 0.000472
180 0.000461
181 0.000450
182 0.000442
183 0.000437
184 0.000435
185 0.000432
186 0.000433
187 0.000433
188 0.000431
189 0.000432
190 0.000435
191 0.000437
192 0.000440
193 0.000437
194 0.000435
195 0.000436
196 0.000436
197 0.000433
198 0.000425
199 0.000418
200 0.000408
201 0.000406
202 0.000401
203 0.000398
204 0.000395
205 0.000393
206 0.000391
207 0.000390
208 0.000388
209 0.000389
210 0.000386
211 0.000383
212 0.000379
213 0.000375
214 0.000374
215 0.000374
216 0.000375
217 0.000376
218 0.000379
219 0.000379
220 0.000377
221 0.000375
222 0.000372
223 0.000366
224 0.000362
225 0.000357
226 0.000349
227 0.000341
228 0.000334
229 0.000334
230 0.000332
231 0.000329
232 0.000331
233 0.000334
234 0.000334
235 0.000334
236 0.000340
237 0.000342
238 0.000342
239 0.000345
240 0.000348
241 0.000351
242 0.000354
243 0.000350
244 0.000349
245 0.000344
246 0.000341
247 0.000337
248 0.000335
249 0.000337
250 0.000336
251 0.000336
252 0.000338
253 0.000340
254 0.000347
255 0.000351
256 0.000356
257 0.000358
258 0.000360
259 0.000362
260 0.000368
261 0.000371
262 0.000372
263 0.000366
264 0.000363
265 0.000358
266 0.000357
267 0.000358
268 0.000360
269 0.000362
270 0.000361
271 0.000359
272 0.000356
273 0.000353
274 0.000353
275 0.000356
276 0.000359
277 0.000361
278 0.000360
279 0.000363
280 0.000366
281 0.000366
282 0.000367
283 0.000365
284 0.000362
285 0.000359
286 0.000356
287 0.000351
288 0.000346
289 0.000343
290 0.000342
291 0.000332
292 0.000322
293 0.000317
294 0.000312
295 0.000307
296 0.000307
297 0.000302
298 0.000300
299 0.000299
300 0.000294
301 0.000291
302 0.000291
303 0.000291
304 0.000292
305 0.000296
306 0.000305
307 0.000311
308 0.000318
309 0.000324
310 0.000329
311 0.000334
312 0.000333
313 0.000334
314 0.000333
315 0.000328
316 0.000325
317 0.000323
318 0.000320
319 0.000317
320 0.000318
321 0.000320
322 0.000322
323 0.000324
324 0.000324
325 0.000326
326 0.000329
327 0.000330
328 0.000334
329 0.000342
330 0.000346
331 0.000343
332 0.000342
333 0.000340
334 0.000333
335 0.000331
336 0.000329
337 0.000324
338 0.000320
339 0.000320
340 0.000319
341 0.000318
342 0.000319
343 0.000322
344 0.000323
345 0.000323
346 0.000321
347 0.000319
348 0.000318
349 0.000313
350 0.000308
351 0.000309
352 0.000305
353 0.000304
354 0.000304
355 0.000304
356 0.000302
357 0.000298
358 0.000295
359 0.000291
360 0.000287
361 0.000286
362 0.000284
363 0.000284
364 0.000281
365 0.000281
366 0.000283
367 0.000283
368 0.000282
369 0.000283
370 0.000282
371 0.000287
372 0.000291
373 0.000291
374 0.000294
375 0.000298
376 0.000299
377 0.000299
378 0.000294
379 0.000294
380 0.000291
381 0.000288
382 0.000283
383 0.000277
384 0.000267
385 0.000262
386 0.000263
387 0.000265
388 0.000267
389 0.000269
390 0.000263
391 0.000259
392 0.000256
393 0.000254
394 0.000254
395 0.000254
396 0.000255
397 0.000251
398 0.000249
399 0.000246
400 0.000244
401 0.000241
402 0.000238
403 0.000234
404 0.000233
405 0.000233
406 0.000230
407 0.000228
408 0.000227
409 0.000224
410 0.000218
411 0.000218
412 0.000222
413 0.000224
414 0.000223
415 0.000227
416 0.000230
417 0.000229
418 0.000226
419 0.000225
420 0.000224
421 0.000226
422 0.000231
423 0.000236
424 0.000239
425 0.000242
426 0.000244
427 0.000248
428 0.000252
429 0.000255
430 0.000254
431 0.000256
432 0.000259
433 0.000261
434 0.000260
435 0.000259
436 0.000257
437 0.000255
438 0.000249
439 0.000245
440 0.000240
441 0.000233
442 0.000230
443 0.000226
444 0.000220
445 0.000218
446 0.000217
447 0.000212
448 0.000210
449 0.000203
450 0.000200
451 0.000198
452 0.000195
453 0.000191
454 0.000188
455 0.000185
456 0.000183
457 0.000185
458 0.000189
459 0.000184
460 0.000177
461 0.000176
462 0.000170
463 0.000169
464 0.000169
465 0.000171
466 0.000174
467 0.000173
468 0.000167
469 0.000164
470 0.000161
471 0.000157
472 0.000155
473 0.000158
474 0.000159
475 0.000159
476 0.000163
477 0.000165
478 0.000167
479 0.000170
480 0.000171
481 0.000175
482 0.000177
483 0.000175
484 0.000175
485 0.000176
486 0.000176
487 0.000174
488 0.000172
489 0.000166
490 0.000162
491 0.000160
492 0.000156
493 0.000153
494 0.000153
495 0.000152
496 0.000151
497 0.000151
498 0.000152
499 0.000151
500 0.000154
501 0.000153
502 0.000150
503 0.000148
504 0.000146
505 0.000143
506 0.000139
507 0.000137
508 0.000137
509 0.000136
510 0.000134
511 0.000134
512 0.000134
513 0.000131
514 0.000125
515 0.000122
516 0.000118
517 0.000114
518 0.000112
519 0.000110
520 0.000109
521 0.000105
522 0.000106
523 0.000108
524 0.000109
525 0.000112
526 0.000117
527 0.000119
528 0.000118
529 0.000117
530 0.000116
531 0.000115
532 0.000115
533 0.000114
534 0.000114
535 0.000116
536 0.000113
537 0.000110
538 0.000110
539 0.000109
540 0.000108
541 0.000105
542 0.000104
543 0.000102
544 0.000101
545 0.000099
546 0.000096
547 0.000096
548 0.000097
549 0.000097
550 0.000097
551 0.000095
552 0.000091
553 0.000086
554 0.000081
555 0.000078
556 0.000075
557 0.000076
558 0.000080
559 0.000084
560 0.000084
561 0.000083
562 0.000086
563 0.000086
564 0.000089
565 0.000092
566 0.000093
567 0.000096
568 0.000099
569 0.000103
570 0.000108
571 0.000114
572 0.000119
573 0.000122
574 0.000122
575 0.000123
576 0.000122
577 0.000123
578 0.000126
579 0.000126
580 0.000126
581 0.000123
582 0.000123
583 0.000123
584 0.000128
585 0.000133
586 0.000139
587 0.000145
588 0.000152
589 0.000161
590 0.000171
591 0.000177
592 0.000182
593 0.000184
594 0.000184
595 0.000186
596 0.000188
597 0.000191
598 0.000194
599 0.000198
600 0.000198
601 0.000199
602 0.000199
603 0.000200
604 0.000202
605 0.000205
606 0.000205
607 0.000207
608 0.000206
609 0.000205
610 0.000205
611 0.000200
612 0.000194
613 0.000191
614 0.000183
615 0.000175
616 0.000171
617 0.000166
618 0.000167
619 0.000169
620 0.000170
621 0.000169
622 0.000167
623 0.000166
624 0.000164
625 0.000165
626 0.000164
627 0.000162
628 0.000158
629 0.000157
630 0.000155
631 0.000154
632 0.000155
633 0.000157
634 0.000160
635 0.000162
636 0.000165
637 0.000169
638 0.000170
639 0.000166
640 0.000163
641 0.000162
642 0.000161
643 0.000159
644 0.000155
645 0.000151
646 0.000146
647 0.000144
648 0.000145
649 0.000146
650 0.000147
651 0.000150
652 0.000150
653 0.000149
654 0.000149
655 0.000150
656 0.000151
657 0.000153
658 0.000157
659 0.000161
660 0.000162
661 0.000163
662 0.000165
663 0.000166
664 0.000168
665 0.000173
666 0.000175
667 0.000177
668 0.000179
669 0.000179
670 0.000181
671 0.000182
672 0.000183
673 0.000184
674 0.000182
675 0.000181
676 0.000182
677 0.000182
678 0.000181
679 0.000177
680 0.000173
681 0.000171
682 0.000171
683 0.000172
684 0.000175
685 0.000178
686 0.000181
687 0.000187
688 0.000189
689 0.000189
690 0.000188
691 0.000186
692 0.000186
693 0.000185
694 0.000186
695 0.000188
696 0.000195
697 0.000204
698 0.000210
699 0.000214
700 0.000215
701 0.000216
702 0.000220
703 0.000225
704 0.000229
705 0.000231
706 0.000236
707 0.000235
708 0.000233
709 0.000232
710 0.000231
711 0.000233
712 0.000233
713 0.000231
714 0.000228
715 0.000225
716 0.000222
717 0.000219
718 0.000221
719 0.000223
720 0.000221
721 0.000220
722 0.000218
723 0.000212
724 0.000207
725 0.000208
726 0.000209
727 0.000209
728 0.000208
729 0.000205
730 0.000204
731 0.000203
732 0.000202
733 0.000204
734 0.000206
735 0.000207
736 0.000205
737 0.000203
738 0.000201
739 0.000195
740 0.000190
741 0.000187
742 0.000184
743 0.000181
744 0.000181
745 0.000181
746 0.000177
747 0.000174
748 0.000174
749 0.000172
750 0.000168
751 0.000168
752 0.000169
753 0.000167
754 0.000167
755 0.000168
756 0.000172
757 0.000177
758 0.000179
759 0.000182
760 0.000186
761 0.000187
762 0.000189
763 0.000189
764 0.000191
765 0.000194
766 0.000198
767 0.000203
768 0.000207
769 0.000210
770 0.000207
771 0.000203
772 0.000197
773 0.000191
774 0.000186
775 0.000184
776 0.000183
777 0.000184
778 0.000183
779 0.000182
780 0.000184
781 0.000183
782 0.000183
783 0.000185
784 0.000186
785 0.000185
786 0.000185
787 0.000186
788 0.000185
789 0.000182
790 0.000180
791 0.000178
792 0.000174
793 0.000172
794 0.000173
795 0.000172
796 0.000174
797 0.000174
798 0.000172
799 0.000169
800 0.000167
801 0.000167
802 0.000167
803 0.000167
804 0.000168
805 0.000166
806 0.000164
807 0.000161
808 0.000159
809 0.000160
