# i correlation
1 0.001543
2 0.001501
3 0.001467
4 0.001438
5 0.001410
6 0.001382
7 0.001358
8 0.001342
9 0.001326
10 0.001309
11 0.001297
12 0.001283
13 0.001276
14 0.001272
15 0.001270
16 0.001264
17 0.001256
18 0.001253
19 0.001248
20 0.001243
21 0.001239
22 0.001240
23 0.001239
24 0.001231
25 0.001225
26 0.001218
27 0.001212
28 0.001205
29 0.001199
30 0.001186
31 0.001179
32 0.001175
33 0.001171
34 0.001165
35 0.001153
36 0.001140
37 0.001129
38 0.001120
39 0.001112
40 0.001104
41 0.001093
42 0.001086
43 0.001077
44 0.001070
45 0.001065
46 0.001058
47 0.001057
48 0.001050
49 0.001041
50 0.001032
51 0.001022
52 0.001011
53 0.000998
54 0.000988
55 0.000977
56 0.000971
57 0.000965
58 0.000965
59 0.000964
60 0.000961
61 0.000960
62 0.000957
63 0.000957
64 0.000957
65 0.000954
66 0.000951
67 0.000953
68 0.000952
69 0.000947
70 0.000939
71 0.000929
72 0.000920
73 0.000909
74 0.000903
75 0.000895
76 0.000890
77 0.000888
78 0.000886
79 0.000889
80 0.000894
81 0.000895
82 0.000894
83 0.000894
84 0.000888
85 0.000882
86 0.000878
87 0.000874
88 0.000870
89 0.000864
90 0.000855
91 0.000849
92 0.000842
93 0.000833
94 0.000826
95 0.000822
96 0.000823
97 0.000827
98 0.000822
99 0.000817
100 0.000812
101 0.000808
102 0.000803
103 0.000801
104 0.000796
105 0.000800
106 0.000801
107 0.000802
108 0.000802
109 0.000804
110 0.000800
111 0.000801
112 0.000802
113 0.000802
114 0.000801
115 0.000796
116 0.000789
117 0.000787
118 0.000785
119 0.000781
120 0.000781
121 0.000775
122 0.000772
123 0.000767
124 0.000762
125 0.000760
126 0.000755
127 0.000749
128 0.000751
129 0.000750
130 0.000750
131 0.000750
132 0.000747
133 0.000739
134 0.000731
135 0.000720
136 0.000717
137 0.000710
138 0.000699
139 0.000694
140 0.000691
141 0.000688
142 0.000686
143 0.000679
144 0.000675
145 0.000679
146 0.000681
147 0.000684
148 0.000688
149 0.000690
150 0.000687
151 0.000683
152 0.000678
153 0.000676
154 0.000672
155 0.000666
156 0.000658
157 0.000656
158 0.000651
159 0.000644
160 0.000636
161 0.000627
162 0.000618
163 0.000614
164 0.000610
165 0.000610
166 0.000611
167 0.000608
168 0.000607
169 0.000606
170 0.000602
171 0.000596
172 0.000587
173 0.000580
174 0.000572
175 0.000564
176 0.000562
177 0.000562
178 0.000557
179 0.000557
180 0.000558
181 0.000561
182 0.000561
183 0.000558
184 0.000554
185 0.000552
186 0.000550
187 0.000549
188 0.000548
189 0.000546
190 0.000546
191 0.000547
192 0.000550
193 0.000553
194 0.000555
195 0.000554
196 0.000551
197 0.000549
198 0.000543
199 0.000542
200 0.000540
201 0.000533
202 0.000529
203 0.000525
204 0.000521
205 0.000519
206 0.000517
207 0.000515
208 0.000518
209 0.000524
210 0.000527
211 0.000532
212 0.000534
213 0.000535
214 0.000539
215 0.000541
216 0.000544
217 0.000547
218 0.000547
219 0.000546
220 0.000546
221 0.000544
222 0.000540
223 0.000533
224 0.000525
225 0.000522
226 0.000518
227 0.000515
228 0.000514
229 0.000520
230 0.000520
231 0.000523
232 0.000525
233 0.000525
234 0.000526
235 0.000526
236 0.000525
237 0.000525
238 0.000524
239 0.000521
240 0.000521
241 0.000519
242 0.000517
243 0.000515
244 0.000512
245 0.000512
246 0.000514
247 0.000516
248 0.000518
249 0.000523
250 0.000529
251 0.000539
252 0.000539
253 0.000539
254 0.000545
255 0.000545
256 0.000551
257 0.000550
258 0.000552
259 0.000551
260 0.000547
261 0.000544
262 0.000546
263 0.000542
264 0.000539
265 0.000537
266 0.000535
267 0.000534
268 0.000528
269 0.000523
270 0.000519
271 0.000515
272 0.000514
273 0.000516
274 0.000519
275 0.000518
276 0.000519
277 0.000523
278 0.000525
279 0.000528
280 0.000533
281 0.000537
282 0.000540
283 0.000541
284 0.000537
285 0.000536
286 0.000527
287 0.000524
288 0.000523
289 0.000520
290 0.000517
291 0.000514
292 0.000508
293 0.000504
294 0.000498
295 0.000494
296 0.000495
297 0.000493
298 0.000493
299 0.000497
300 0.000496
301 0.000494
302 0.000498
303 0.000502
304 0.000500
305 0.000501
306 0.000502
307 0.000505
308 0.000503
309 0.000499
310 0.000494
311 0.000487
312 0.000485
313 0.000483
314 0.000484
315 0.000484
316 0.000481
317 0.000484
318 0.000488
319 0.000488
320 0.000485
321 0.000484
322 0.000481
323 0.000476
324 0.000469
325 0.000467
326 0.000460
327 0.000459
328 0.000457
329 0.000457
330 0.000458
331 0.000459
332 0.000460
333 0.000461
334 0.000467
335 0.000464
336 0.000461
337 0.000458
338 0.000455
339 0.000452
340 0.000449
341 0.000450
342 0.000447
343 0.000443
344 0.000442
345 0.000443
346 0.000446
347 0.000449
348 0.000448
349 0.000449
350 0.000449
351 0.000446
352 0.000442
353 0.000438
354 0.000435
355 0.000429
356 0.000427
357 0.000422
358 0.000411
359 0.000407
360 0.000405
361 0.000405
362 0.000406
363 0.000411
364 0.000409
365 0.000411
366 0.000413
367 0.000413
368 0.000416
369 0.000415
370 0.000412
371 0.000411
372 0.000410
373 0.000407
374 0.000406
375 0.000400
376 0.000396
377 0.000390
378 0.000381
379 0.000379
380 0.000376
381 0.000374
382 0.000370
383 0.000370
384 0.000371
385 0.000371
386 0.000372
387 0.000374
388 0.000380
389 0.000382
390 0.000383
391 0.000379
392 0.000375
393 0.000369
394 0.000367
395 0.000367
396 0.000368
397 0.000372
398 0.000376
399 0.000381
400 0.000379
401 0.000378
402 0.000378
403 0.000378
404 0.000379
405 0.000379
406 0.000376
407 0.000371
408 0.000370
409 0.000365
410 0.000363
411 0.000359
412 0.000356
413 0.000356
414 0.000353
415 0.000350
416 0.000349
417 0.000348
418 0.000340
419 0.000333
420 0.000330
421 0.000329
422 0.000326
423 0.000320
424 0.000316
425 0.000311
426 0.000306
427 0.000302
428 0.000302
429 0.000297
430 0.000298
431 0.000300
432 0.000301
433 0.000304
434 0.000304
435 0.000304
436 0.000307
437 0.000310
438 0.000312
439 0.000313
440 0.000307
441 0.000300
442 0.000295
443 0.000294
444 0.000295
445 0.000296
446 0.000298
447 0.000298
448 0.000300
449 0.000299
450 0.000295
451 0.000293
452 0.000289
453 0.000287
454 0.000286
455 0.000282
456 0.000277
457 0.000272
458 0.000267
459 0.000261
460 0.000258
461 0.000257
462 0.000256
463 0.000254
464 0.000255
465 0.000258
466 0.000263
467 0.000267
468 0.000269
469 0.000271
470 0.000272
471 0.000276
472 0.000277
473 0.000276
474 0.000276
475 0.000274
476 0.000275
477 0.000275
478 0.000278
479 0.000279
480 0.000281
481 0.000281
482 0.000279
483 0.000280
484 0.000279
485 0.000280
486 0.000284
487 0.000286
488 0.000289
489 0.000288
490 0.000288
491 0.000289
492 0.000292
493 0.000295
494 0.000300
495 0.000303
496 0.000308
497 0.000315
498 0.000318
499 0.000322
500 0.000325
501 0.000330
502 0.000335
503 0.000336
504 0.000337
505 0.000334
506 0.000330
507 0.000326
508 0.000322
509 0.000317
510 0.000315
511 0.000313
512 0.000314
513 0.000321
514 0.000329
515 0.000335
516 0.000342
517 0.000350
518 0.000358
519 0.000361
520 0.000364
521 0.000367
522 0.000369
523 0.000368
524 0.000365
525 0.000367
526 0.000366
527 0.000362
528 0.000360
529 0.000359
530 0.000356
531 0.000353
532 0.000348
533 0.000347
534 0.000346
535 0.000344
536 0.000345
537 0.000345
538 0.000344
539 0.000341
540 0.000337
541 0.000336
542 0.000331
543 0.000327
544 0.000325
545 0.000323
546 0.000320
547 0.000317
548 0.000313
549 0.000310
550 0.000310
551 0.000306
552 0.000304
553 0.000304
554 0.000308
555 0.000309
556 0.000310
557 0.000310
558 0.000314
559 0.000313
560 0.000311
561 0.000309
562 0.000308
563 0.000306
564 0.000302
565 0.000302
566 0.000300
567 0.000296
568 0.000292
569 0.000290
570 0.000286
571 0.000282
572 0.000275
573 0.000269
574 0.000264
575 0.000259
576 0.000257
577 0.000252
578 0.000248
579 0.000247
580 0.000250
581 0.000253
582 0.000252
583 0.000256
584 0.000262
585 0.000270
586 0.000276
587 0.000278
588 0.000277
589 0.000277
590 0.000275
591 0.000272
592 0.000267
593 0.000265
594 0.000263
595 0.000260
596 0.000256
597 0.000255
598 0.000254
599 0.000253
600 0.000253
601 0.000255
602 0.000257
603 0.000259
604 0.000258
605 0.000260
606 0.000265
607 0.000266
608 0.000269
609 0.000269
610 0.000269
611 0.000265
612 0.000264
613 0.000263
614 0.000263
615 0.000262
616 0.000262
617 0.000263
618 0.000260
619 0.000261
620 0.000261
621 0.000262
622 0.000261
623 0.000258
624 0.000258
625 0.000260
626 0.000264
627 0.000268
628 0.000273
629 0.000275
630 0.000279
631 0.000281
632 0.000283
633 0.000285
634 0.000287
635 0.000290
636 0.000291
637 0.000294
638 0.000294
639 0.000292
640 0.000287
641 0.000282
642 0.000279
643 0.000276
644 0.000273
645 0.000270
646 0.000270
647 0.000270
648 0.000272
649 0.000276
650 0.000279
651 0.000280
652 0.000280
653 0.000283
654 0.000285
655 0.000289
656 0.000292
657 0.000293
658 0.000291
659 0.000291
660 0.000288
661 0.000288
662 0.000287
663 0.000288
664 0.000288
665 0.000287
666 0.000287
667 0.000287
668 0.000285
669 0.000282
670 0.000280
671 0.000280
672 0.000276
673 0.000271
674 0.000266
675 0.000259
676 0.000250
677 0.000244
678 0.000241
679 0.000237
680 0.000236
681 0.000232
682 0.000230
683 0.000228
684 0.000224
685 0.000218
686 0.000216
687 0.000214
688 0.000211
689 0.000209
690 0.000210
691 0.000209
692 0.000204
693 0.000200
694 0.000201
695 0.000204
696 0.000207
697 0.000210
698 0.000211
699 0.000207
700 0.000203
701 0.000202
702 0.000200
703 0.000199
704 0.000197
705 0.000197
706 0.000196
707 0.000195
708 0.000194
709 0.000192
710 0.000191
711 0.000191
712 0.000189
713 0.000192
714 0.000191
715 0.000191
716 0.000194
717 0.000196
718 0.000196
719 0.000197
720 0.000196
721 0.000195
722 0.000193
723 0.000192
724 0.000193
725 0.000192
726 0.000190
727 0.000187
728 0.000185
729 0.000186
730 0.000186
731 0.000183
732 0.000179
733 0.000179
734 0.000180
735 0.000183
736 0.000184
737 0.000183
738 0.000184
739 0.000186
740 0.000185
741 0.000182
742 0.000180
743 0.000179
744 0.000180
745 0.000181
746 0.000181
747 0.000183
748 0.000186
749 0.000189
750 0.000192
751 0.000195
752 0.000197
753 0.000202
754 0.000204
755 0.000206
756 0.000207
757 0.000208
758 0.000209
759 0.000208
760 0.000204
761 0.000201
762 0.000199
763 0.000199
764 0.000196
765 0.000189
766 0.000186
767 0.000183
768 0.000180
769 0.000176
770 0.000173
771 0.000172
772 0.000173
773 0.000172
774 0.000171
775 0.000171
776 0.000172
777 0.000174
778 0.000175
779 0.000176
780 0.000179
781 0.000180
782 0.000181
783 0.000185
784 0.000189
785 0.000195
786 0.000197
787 0.000199
788 0.000201
789 0.000200
790 0.000197
791 0.000194
792 0.000190
793 0.000188
794 0.000186
795 0.000186
796 0.000186
797 0.000184
798 0.000181
799 0.000181
800 0.000182
801 0.000182
802 0.000183
803 0.000185
804 0.000186
805 0.000186
806 0.000186
807 0.000184
808 0.000185
809 0.000183
