# i correlation
1 0.001813
2 0.001759
3 0.001711
4 0.001670
5 0.001639
6 0.001613
7 0.001594
8 0.001574
9 0.001553
10 0.001543
11 0.001531
12 0.001522
13 0.001516
14 0.001507
15 0.001495
16 0.001488
17 0.001480
18 0.001470
19 0.001458
20 0.001450
21 0.001441
22 0.001426
23 0.001410
24 0.001394
25 0.001382
26 0.001370
27 0.001358
28 0.001345
29 0.001332
30 0.001321
31 0.001312
32 0.001304
33 0.001295
34 0.001280
35 0.001264
36 0.001252
37 0.001243
38 0.001236
39 0.001231
40 0.001224
41 0.001215
42 0.001210
43 0.001204
44 0.001201
45 0.001196
46 0.001192
47 0.001188
48 0.001181
49 0.001171
50 0.001163
51 0.001157
52 0.001150
53 0.001147
54 0.001139
55 0.001134
56 0.001127
57 0.001119
58 0.001105
59 0.001091
60 0.001076
61 0.001065
62 0.001048
63 0.001035
64 0.001023
65 0.001017
66 0.001011
67 0.001006
68 0.000998
69 0.000990
70 0.000980
71 0.000976
72 0.000967
73 0.000957
74 0.000948
75 0.000943
76 0.000935
77 0.000935
78 0.000931
79 0.000921
80 0.000920
81 0.000921
82 0.000927
83 0.000926
84 0.000924
85 0.000921
86 0.000911
87 0.000903
88 0.000899
89 0.000894
90 0.000891
91 0.000889
92 0.000884
93 0.000882
94 0.000880
95 0.000878
96 0.000873
97 0.000868
98 0.000867
99 0.000862
100 0.000859
101 0.000859
102 0.000855
103 0.000850
104 0.000845
105 0.000841
106 0.000831
107 0.000818
108 0.000809
109 0.000801
110 0.000796
111 0.000786
112 0.000775
113 0.000770
114 0.000766
115 0.000763
116 0.000759
117 0.000752
118 0.000743
119 0.000729
120 0.000710
121 0.000699
122 0.000694
123 0.000691
124 0.000691
125 0.000687
126 0.000685
127 0.000682
128 0.000677
129 0.000672
130 0.000668
131 0.000668
132 0.000665
133 0.000666
134 0.000663
135 0.000661
136 0.000655
137 0.000652
138 0.000652
139 0.000654
140 0.000648
141 0.000647
142 0.000643
143 0.000648
144 0.000650
145 0.000647
146 0.000643
147 0.000635
148 0.000623
149 0.000616
150 0.000610
151 0.000607
152 0.000600
153 0.000597
154 0.000592
155 0.000592
156 0.000594
157 0.000595
158 0.000599
159 0.000600
160 0.000604
161 0.000602
162 0.000605
163 0.000609
164 0.000607
165 0.000605
166 0.000601
167 0.000592
168 0.000584
169 0.000573
170 0.000572
171 0.000576
172 0.000583
173 0.000585
174 0.000585
175 0.000592
176 0.000596
177 0.000595
178 0.000594
179 0.000592
180 0.000586
181 0.000583
182 0.000578
183 0.000579
184 0.000581
185 0.000586
186 0.000594
187 0.000596
188 0.000601
189 0.000605
190 0.000611
191 0.000612
192 0.000610
193 0.000606
194 0.000602
195 0.000600
196 0.000602
197 0.000602
198 0.000604
199 0.000603
200 0.000599
201 0.000594
202 0.000589
203 0.000583
204 0.000581
205 0.000576
206 0.000577
207 0.000576
208 0.000581
209 0.000585
210 0.000591
211 0.000594
212 0.000591
213 0.000587
214 0.000583
215 0.000580
216 0.000583
217 0.000587
218 0.000592
219 0.000597
220 0.000598
221 0.000600
222 0.000594
223 0.000589
224 0.000592
225 0.000594
226 0.000595
227 0.000595
228 0.000596
229 0.000598
230 0.000592
231 0.000591
232 0.000589
233 0.000585
234 0.000581
235 0.000579
236 0.000580
237 0.000580
238 0.000581
239 0.000583
240 0.000587
241 0.000589
242 0.000591
243 0.000595
244 0.000595
245 0.000594
246 0.000597
247 0.000603
248 0.000606
249 0.000603
250 0.000598
251 0.000588
252 0.000577
253 0.000566
254 0.000555
255 0.000543
256 0.000534
257 0.000528
258 0.000520
259 0.000514
260 0.000513
261 0.000516
262 0.000519
263 0.000522
264 0.000523
265 0.000523
266 0.000524
267 0.000524
268 0.000529
269 0.000534
270 0.000538
271 0.000538
272 0.000543
273 0.000547
274 0.000548
275 0.000549
276 0.000549
277 0.000549
278 0.000546
279 0.000545
280 0.000547
281 0.000546
282 0.000545
283 0.000535
284 0.000526
285 0.000518
286 0.000515
287 0.000514
288 0.000517
289 0.000519
290 0.000519
291 0.000518
292 0.000514
293 0.000513
294 0.000518
295 0.000518
296 0.000518
297 0.000518
298 0.000519
299 0.000521
300 0.000518
301 0.000519
302 0.000518
303 0.000514
304 0.000508
305 0.000499
306 0.000492
307 0.000486
308 0.000475
309 0.000467
310 0.000455
311 0.000443
312 0.000432
313 0.000428
314 0.000428
315 0.000431
316 0.000431
317 0.000429
318 0.000427
319 0.000428
320 0.000431
321 0.000435
322 0.000437
323 0.000440
324 0.000441
325 0.000439
326 0.000436
327 0.000436
328 0.000434
329 0.000434
330 0.000434
331 0.000434
332 0.000431
333 0.000427
334 0.000430
335 0.000436
336 0.000439
337 0.000441
338 0.000434
339 0.000425
340 0.000421
341 0.000427
342 0.000437
343 0.000445
344 0.000453
345 0.000458
346 0.000461
347 0.000467
348 0.000475
349 0.000476
350 0.000476
351 0.000475
352 0.000469
353 0.000467
354 0.000467
355 0.000463
356 0.000460
357 0.000461
358 0.000461
359 0.000457
360 0.000455
361 0.000454
362 0.000456
363 0.000461
364 0.000470
365 0.000479
366 0.000485
367 0.000489
368 0.000494
369 0.000493
370 0.000495
371 0.000500
372 0.000503
373 0.000505
374 0.000509
375 0.000510
376 0.000514
377 0.000512
378 0.000511
379 0.000513
380 0.000510
381 0.000510
382 0.000514
383 0.000513
384 0.000516
385 0.000518
386 0.000522
387 0.000525
388 0.000525
389 0.000523
390 0.000519
391 0.000515
392 0.000510
393 0.000503
394 0.000495
395 0.000488
396 0.000486
397 0.000486
398 0.000488
399 0.000491
400 0.000492
401 0.000493
402 0.000490
403 0.000490
404 0.000491
405 0.000491
406 0.000489
407 0.000489
408 0.000486
409 0.000484
410 0.000482
411 0.000478
412 0.000477
413 0.000475
414 0.000469
415 0.000466
416 0.000461
417 0.000456
418 0.000451
419 0.000451
420 0.000447
421 0.000440
422 0.000432
423 0.000430
424 0.000428
425 0.000433
426 0.000436
427 0.000432
428 0.000429
429 0.000423
430 0.000417
431 0.000413
432 0.000415
433 0.000417
434 0.000417
435 0.000417
436 0.000414
437 0.000412
438 0.000410
439 0.000409
440 0.000409
441 0.000410
442 0.000412
443 0.000412
444 0.000411
445 0.000412
446 0.000412
447 0.000414
448 0.000415
449 0.000414
450 0.000410
451 0.000403
452 0.000402
453 0.000403
454 0.000409
455 0.000409
456 0.000410
457 0.000413
458 0.000423
459 0.000433
460 0.000442
461 0.000446
462 0.000447
463 0.000445
464 0.000445
465 0.000444
466 0.000445
467 0.000445
468 0.000446
469 0.000450
470 0.000455
471 0.000458
472 0.000460
473 0.000458
474 0.000455
475 0.000451
476 0.000448
477 0.000441
478 0.000436
479 0.000433
480 0.000433
481 0.000436
482 0.000435
483 0.000431
484 0.000426
485 0.000418
486 0.000414
487 0.000411
488 0.000409
489 0.000407
490 0.000406
491 0.000410
492 0.000415
493 0.000413
494 0.000413
495 0.000410
496 0.000404
497 0.000402
498 0.000396
499 0.000393
500 0.000392
501 0.000391
502 0.000390
503 0.000386
504 0.000382
505 0.000377
506 0.000373
507 0.000370
508 0.000371
509 0.000375
510 0.000380
511 0.000385
512 0.000388
513 0.000388
514 0.000388
515 0.000389
516 0.000388
517 0.000391
518 0.000391
519 0.000395
520 0.000394
521 0.000392
522 0.000387
523 0.000386
524 0.000384
525 0.000388
526 0.000391
527 0.000388
528 0.000384
529 0.000379
530 0.000369
531 0.000358
532 0.000348
533 0.000341
534 0.000335
535 0.000329
536 0.000326
537 0.000325
538 0.000325
539 0.000328
540 0.000332
541 0.000337
542 0.000344
543 0.000351
544 0.000355
545 0.000354
546 0.000353
547 0.000357
548 0.000357
549 0.000358
550 0.000359
551 0.000362
552 0.000364
553 0.000364
554 0.000364
555 0.000363
556 0.000363
557 0.000364
558 0.000364
559 0.000369
560 0.000371
561 0.000372
562 0.000373
563 0.000379
564 0.000386
565 0.000391
566 0.000395
567 0.000398
568 0.000401
569 0.000407
570 0.000408
571 0.000410
572 0.000413
573 0.000413
574 0.000413
575 0.000413
576 0.000414
577 0.000413
578 0.000408
579 0.000402
580 0.000393
581 0.000382
582 0.000374
583 0.000369
584 0.000366
585 0.000366
586 0.000368
587 0.000368
588 0.000366
589 0.000366
590 0.000366
591 0.000363
592 0.000360
593 0.000357
594 0.000353
595 0.000350
596 0.000347
597 0.000347
598 0.000347
599 0.000344
600 0.000341
601 0.000336
602 0.000328
603 0.000325
604 0.000322
605 0.000322
606 0.000323
607 0.000324
608 0.000324
609 0.000322
610 0.000323
611 0.000324
612 0.000320
613 0.000314
614 0.000310
615 0.000308
616 0.000306
617 0.000305
618 0.000305
619 0.000304
620 0.000303
621 0.000301
622 0.000300
623 0.000299
624 0.000299
625 0.000300
626 0.000297
627 0.000291
628 0.000284
629 0.000279
630 0.000277
631 0.000274
632 0.000271
633 0.000271
634 0.000270
635 0.000269
636 0.000270
637 0.000271
638 0.000270
639 0.000266
640 0.000260
641 0.000254
642 0.000248
643 0.000245
644 0.000246
645 0.000247
646 0.000246
647 0.000247
648 0.000246
649 0.000244
650 0.000244
651 0.000246
652 0.000250
653 0.000253
654 0.000258
655 0.000262
656 0.000268
657 0.000272
658 0.000275
659 0.000277
660 0.000279
661 0.000279
662 0.000279
663 0.000276
664 0.000272
665 0.000269
666 0.000267
667 0.000268
668 0.000269
669 0.000266
670 0.000269
671 0.000272
672 0.000277
673 0.000282
674 0.000285
675 0.000287
676 0.000284
677 0.000282
678 0.000284
679 0.000281
680 0.000278
681 0.000277
682 0.000277
683 0.000277
684 0.000273
685 0.000275
686 0.000276
687 0.000278
688 0.000281
689 0.000285
690 0.000289
691 0.000294
692 0.000300
693 0.000301
694 0.000300
695 0.000300
696 0.000298
697 0.000293
698 0.000291
699 0.000288
700 0.000289
701 0.000290
702 0.000292
703 0.000293
704 0.000291
705 0.000292
706 0.000293
707 0.000293
708 0.000295
709 0.000296
710 0.000296
711 0.000294
712 0.000292
713 0.000292
714 0.000292
715 0.000293
716 0.000295
717 0.000293
718 0.000292
719 0.000292
720 0.000293
721 0.000293
722 0.000294
723 0.000295
724 0.000294
725 0.000293
726 0.000290
727 0.000288
728 0.000286
729 0.000284
730 0.000282
731 0.000280
732 0.000280
733 0.000279
734 0.000279
735 0.000279
736 0.000278
737 0.000278
738 0.000279
739 0.000282
740 0.000288
741 0.000289
742 0.000290
743 0.000288
744 0.000286
745 0.000285
746 0.000283
747 0.000283
748 0.000284
749 0.000286
750 0.000289
751 0.000290
752 0.000293
753 0.000294
754 0.000294
755 0.000295
756 0.000292
757 0.000290
758 0.000291
759 0.000290
760 0.000290
761 0.000293
762 0.000292
763 0.000294
764 0.000294
765 0.000293
766 0.000291
767 0.000287
768 0.000287
769 0.000286
770 0.000284
771 0.000283
772 0.000282
773 0.000284
774 0.000284
775 0.000285
776 0.000286
777 0.000286
778 0.000283
779 0.000281
780 0.000279
781 0.000277
782 0.000275
783 0.000272
784 0.000270
785 0.000267
786 0.000265
787 0.000263
788 0.000260
789 0.000259
790 0.000261
791 0.000261
792 0.000258
793 0.000255
794 0.000252
795 0.000248
796 0.000246
797 0.000248
798 0.000249
799 0.000247
800 0.000245
801 0.000245
802 0.000242
803 0.000238
804 0.000235
805 0.000234
806 0.000234
807 0.000233
808 0.000230
809 0.000223
