# i correlation
1 0.001578
2 0.001536
3 0.001499
4 0.001468
5 0.001438
6 0.001411
7 0.001388
8 0.001367
9 0.001348
10 0.001326
11 0.001305
12 0.001288
13 0.001269
14 0.001251
15 0.001234
16 0.001228
17 0.001220
18 0.001208
19 0.001196
20 0.001192
21 0.001187
22 0.001183
23 0.001180
24 0.001177
25 0.001176
26 0.001176
27 0.001175
28 0.001174
29 0.001171
30 0.001170
31 0.001162
32 0.001155
33 0.001147
34 0.001141
35 0.001132
36 0.001119
37 0.001110
38 0.001103
39 0.001095
40 0.001090
41 0.001084
42 0.001077
43 0.001073
44 0.001070
45 0.001067
46 0.001071
47 0.001068
48 0.001065
49 0.001060
50 0.001054
51 0.001048
52 0.001047
53 0.001050
54 0.001053
55 0.001056
56 0.001059
57 0.001065
58 0.001069
59 0.001066
60 0.001066
61 0.001064
62 0.001063
63 0.001062
64 0.001058
65 0.001055
66 0.001049
67 0.001045
68 0.001029
69 0.001018
70 0.001013
71 0.001004
72 0.000995
73 0.000987
74 0.000982
75 0.000974
76 0.000962
77 0.000948
78 0.000931
79 0.000919
80 0.000904
81 0.000888
82 0.000880
83 0.000875
84 0.000869
85 0.000866
86 0.000869
87 0.000871
88 0.000876
89 0.000877
90 0.000880
91 0.000889
92 0.000895
93 0.000897
94 0.000900
95 0.000902
96 0.000906
97 0.000905
98 0.000902
99 0.000897
100 0.000890
101 0.000884
102 0.000876
103 0.000867
104 0.000857
105 0.000847
106 0.000836
107 0.000822
108 0.000805
109 0.000791
110 0.000777
111 0.000765
112 0.000756
113 0.000748
114 0.000739
115 0.000731
116 0.000724
117 0.000720
118 0.000718
119 0.000718
120 0.000720
121 0.000726
122 0.000725
123 0.000729
124 0.000727
125 0.000727
126 0.000724
127 0.000724
128 0.000723
129 0.000720
130 0.000719
131 0.000719
132 0.000719
133 0.000717
134 0.000714
135 0.000709
136 0.000704
137 0.000707
138 0.000706
139 0.000706
140 0.000700
141 0.000693
142 0.000684
143 0.000678
144 0.000676
145 0.000682
146 0.000684
147 0.000681
148 0.000678
149 0.000680
150 0.000681
151 0.000685
152 0.000687
153 0.000694
154 0.000695
155 0.000697
156 0.000699
157 0.000705
158 0.000710
159 0.000718
160 0.000726
161 0.000731
162 0.000732
163 0.000731
164 0.000726
165 0.000723
166 0.000717
167 0.000714
168 0.000708
169 0.000707
170 0.000705
171 0.000698
172 0.000686
173 0.000676
174 0.000665
175 0.000655
176 0.000646
177 0.000642
178 0.000640
179 0.000639
180 0.000636
181 0.000631
182 0.000623
183 0.000617
184 0.000612
185 0.000603
186 0.000599
187 0.000595
188 0.000594
189 0.000589
190 0.000584
191 0.000583
192 0.000587
193 0.000590
194 0.000591
195 0.000597
196 0.000598
197 0.000598
198 0.000596
199 0.000592
200 0.000590
201 0.000585
202 0.000578
203 0.000570
204 0.000568
205 0.000569
206 0.000563
207 0.000560
208 0.000559
209 0.000560
210 0.000561
211 0.000562
212 0.000565
213 0.000563
214 0.000562
215 0.000562
216 0.000565
217 0.000566
218 0.000570
219 0.000575
220 0.000578
221 0.000581
222 0.000590
223 0.000594
224 0.000600
225 0.000603
226 0.000606
227 0.000611
228 0.000612
229 0.000607
230 0.000602
231 0.000600
232 0.000598
233 0.000596
234 0.000593
235 0.000586
236 0.000578
237 0.000573
238 0.000566
239 0.000560
240 0.000553
241 0.000548
242 0.000541
243 0.000536
244 0.000532
245 0.000528
246 0.000522
247 0.000510
248 0.000503
249 0.000497
250 0.000493
251 0.000495
252 0.000494
253 0.000496
254 0.000497
255 0.000501
256 0.000502
257 0.000496
258 0.000497
259 0.000492
260 0.000485
261 0.000477
262 0.000475
263 0.000474
264 0.000470
265 0.000466
266 0.000463
267 0.000458
268 0.000454
269 0.000450
270 0.000446
271 0.000445
272 0.000446
273 0.000438
274 0.000434
275 0.000431
276 0.000425
277 0.000419
278 0.000410
279 0.000403
280 0.000397
281 0.000389
282 0.000379
283 0.000376
284 0.000376
285 0.000376
286 0.000382
287 0.000381
288 0.000383
289 0.000381
290 0.000381
291 0.000383
292 0.000388
293 0.000392
294 0.000392
295 0.000390
296 0.000387
297 0.000385
298 0.000385
299 0.000383
300 0.000378
301 0.000377
302 0.000377
303 0.000374
304 0.000369
305 0.000363
306 0.000359
307 0.000353
308 0.000346
309 0.000339
310 0.000332
311 0.000332
312 0.000332
313 0.000333
314 0.000336
315 0.000337
316 0.000342
317 0.000342
318 0.000348
319 0.000353
320 0.000358
321 0.000359
322 0.000359
323 0.000363
324 0.000369
325 0.000373
326 0.000376
327 0.000376
328 0.000376
329 0.000377
330 0.000374
331 0.000369
332 0.000368
333 0.000363
334 0.000358
335 0.000345
336 0.000332
337 0.000318
338 0.000306
339 0.000297
340 0.000289
341 0.000282
342 0.000276
343 0.000269
344 0.000264
345 0.000257
346 0.000256
347 0.000253
348 0.000251
349 0.000250
350 0.000255
351 0.000257
352 0.000258
353 0.000258
354 0.000258
355 0.000260
356 0.000260
357 0.000259
358 0.000260
359 0.000260
360 0.000264
361 0.000263
362 0.000263
363 0.000263
364 0.000265
365 0.000265
366 0.000265
367 0.000261
368 0.000258
369 0.000255
370 0.000251
371 0.000250
372 0.000254
373 0.000250
374 0.000247
375 0.000243
376 0.000243
377 0.000244
378 0.000246
379 0.000248
380 0.000249
381 0.000254
382 0.000260
383 0.000266
384 0.000269
385 0.000273
386 0.000274
387 0.000276
388 0.000278
389 0.000279
390 0.000283
391 0.000289
392 0.000294
393 0.000298
394 0.000302
395 0.000301
396 0.000301
397 0.000299
398 0.000294
399 0.000290
400 0.000287
401 0.000282
402 0.000275
403 0.000272
404 0.000269
405 0.000266
406 0.000265
407 0.000262
408 0.000260
409 0.000258
410 0.000254
411 0.000256
412 0.000257
413 0.000260
414 0.000264
415 0.000270
416 0.000273
417 0.000278
418 0.000281
419 0.000281
420 0.000286
421 0.000288
422 0.000293
423 0.000298
424 0.000301
425 0.000307
426 0.000310
427 0.000311
428 0.000308
429 0.000308
430 0.000306
431 0.000303
432 0.000304
433 0.000304
434 0.000303
435 0.000301
436 0.000301
437 0.000301
438 0.000301
439 0.000303
440 0.000299
441 0.000299
442 0.000299
443 0.000298
444 0.000296
445 0.000296
446 0.000301
447 0.000306
448 0.000310
449 0.000313
450 0.000318
451 0.000322
452 0.000324
453 0.000324
454 0.000325
455 0.000323
456 0.000322
457 0.000322
458 0.000321
459 0.000323
460 0.000321
461 0.000317
462 0.000314
463 0.000315
464 0.000316
465 0.000314
466 0.000312
467 0.000313
468 0.000314
469 0.000316
470 0.000318
471 0.000322
472 0.000326
473 0.000332
474 0.000330
475 0.000331
476 0.000333
477 0.000332
478 0.000331
479 0.000332
480 0.000333
481 0.000333
482 0.000330
483 0.000330
484 0.000331
485 0.000333
486 0.000336
487 0.000340
488 0.000345
489 0.000351
490 0.000356
491 0.000356
492 0.000355
493 0.000355
494 0.000353
495 0.000350
496 0.000345
497 0.000347
498 0.000345
499 0.000343
500 0.000336
501 0.000325
502 0.000319
503 0.000315
504 0.000311
505 0.000306
506 0.000303
507 0.000297
508 0.000294
509 0.000295
510 0.000292
511 0.000297
512 0.000300
513 0.000304
514 0.000307
515 0.000307
516 0.000306
517 0.000309
518 0.000309
519 0.000310
520 0.000310
521 0.000313
522 0.000312
523 0.000312
524 0.000315
525 0.000317
526 0.000316
527 0.000314
528 0.000313
529 0.000312
530 0.000311
531 0.000306
532 0.000303
533 0.000303
534 0.000305
535 0.000305
536 0.000305
537 0.000305
538 0.000308
539 0.000311
540 0.000311
541 0.000314
542 0.000320
543 0.000325
544 0.000331
545 0.000337
546 0.000345
547 0.000348
548 0.000351
549 0.000348
550 0.000346
551 0.000344
552 0.000343
553 0.000338
554 0.000330
555 0.000323
556 0.000316
557 0.000311
558 0.000303
559 0.000297
560 0.000293
561 0.000284
562 0.000278
563 0.000271
564 0.000267
565 0.000262
566 0.000255
567 0.000251
568 0.000245
569 0.000245
570 0.000243
571 0.000241
572 0.000239
573 0.000238
574 0.000238
575 0.000236
576 0.000233
577 0.000228
578 0.000226
579 0.000225
580 0.000224
581 0.000223
582 0.000223
583 0.000223
584 0.000227
585 0.000230
586 0.000235
587 0.000241
588 0.000247
589 0.000250
590 0.000253
591 0.000257
592 0.000262
593 0.000263
594 0.000263
595 0.000262
596 0.000262
597 0.000261
598 0.000258
599 0.000258
600 0.000256
601 0.000254
602 0.000250
603 0.000248
604 0.000247
605 0.000247
606 0.000245
607 0.000243
608 0.000241
609 0.000240
610 0.000237
611 0.000236
612 0.000238
613 0.000238
614 0.000237
615 0.000238
616 0.000241
617 0.000241
618 0.000243
619 0.000242
620 0.000242
621 0.000239
622 0.000236
623 0.000230
624 0.000225
625 0.000222
626 0.000217
627 0.000216
628 0.000211
629 0.000205
630 0.000201
631 0.000197
632 0.000197
633 0.000195
634 0.000197
635 0.000196
636 0.000198
637 0.000200
638 0.000204
639 0.000207
640 0.000210
641 0.000211
642 0.000216
643 0.000219
644 0.000223
645 0.000226
646 0.000232
647 0.000236
648 0.000243
649 0.000249
650 0.000256
651 0.000264
652 0.000269
653 0.000268
654 0.000267
655 0.000264
656 0.000262
657 0.000262
658 0.000264
659 0.000266
660 0.000265
661 0.000263
662 0.000261
663 0.000257
664 0.000250
665 0.000245
666 0.000239
667 0.000234
668 0.000233
669 0.000231
670 0.000228
671 0.000227
672 0.000225
673 0.000224
674 0.000223
675 0.000222
676 0.000221
677 0.000217
678 0.000218
679 0.000220
680 0.000223
681 0.000226
682 0.000227
683 0.000231
684 0.000234
685 0.000238
686 0.000240
687 0.000242
688 0.000242
689 0.000242
690 0.000242
691 0.000241
692 0.000243
693 0.000239
694 0.000236
695 0.000236
696 0.000231
697 0.000231
698 0.000231
699 0.000231
700 0.000226
701 0.000222
702 0.000216
703 0.000215
704 0.000211
705 0.000211
706 0.000209
707 0.000205
708 0.000204
709 0.000204
710 0.000204
711 0.000203
712 0.000204
713 0.000204
714 0.000204
715 0.000205
716 0.000203
717 0.000203
718 0.000204
719 0.000202
720 0.000196
721 0.000192
722 0.000189
723 0.000184
724 0.000179
725 0.000178
726 0.000174
727 0.000169
728 0.000165
729 0.000159
730 0.000150
731 0.000144
732 0.000137
733 0.000132
734 0.000127
735 0.000124
736 0.000121
737 0.000117
738 0.000117
739 0.000114
740 0.000114
741 0.000114
742 0.000114
743 0.000113
744 0.000113
745 0.000116
746 0.000117
747 0.000120
748 0.000123
749 0.000125
750 0.000125
751 0.000126
752 0.000127
753 0.000129
754 0.000129
755 0.000127
756 0.000125
757 0.000124
758 0.000122
759 0.000117
760 0.000108
761 0.000103
762 0.000101
763 0.000098
764 0.000097
765 0.000096
766 0.000095
767 0.000092
768 0.000089
769 0.000087
770 0.000088
771 0.000090
772 0.000092
773 0.000093
774 0.000095
775 0.000097
776 0.000097
777 0.000098
778 0.000098
779 0.000099
780 0.000099
781 0.000101
782 0.000102
783 0.000105
784 0.000106
785 0.000107
786 0.000107
787 0.000107
788 0.000108
789 0.000106
790 0.000102
791 0.000099
792 0.000096
793 0.000094
794 0.000088
795 0.000084
796 0.000082
797 0.000083
798 0.000081
799 0.000079
800 0.000078
801 0.000078
802 0.000077
803 0.000075
804 0.000074
805 0.000074
806 0.000069
807 0.000065
808 0.000063
809 0.000060
