# i correlation
1 0.001730
2 0.001685
3 0.001647
4 0.001616
5 0.001588
6 0.001569
7 0.001549
8 0.001533
9 0.001518
10 0.001499
11 0.001486
12 0.001471
13 0.001456
14 0.001439
15 0.001423
16 0.001405
17 0.001396
18 0.001389
19 0.001377
20 0.001366
21 0.001348
22 0.001331
23 0.001318
24 0.001302
25 0.001290
26 0.001283
27 0.001274
28 0.001265
29 0.001258
30 0.001253
31 0.001251
32 0.001241
33 0.001232
34 0.001213
35 0.001199
36 0.001184
37 0.001174
38 0.001167
39 0.001160
40 0.001147
41 0.001139
42 0.001135
43 0.001134
44 0.001137
45 0.001137
46 0.001138
47 0.001130
48 0.001127
49 0.001125
50 0.001128
51 0.001136
52 0.001140
53 0.001138
54 0.001129
55 0.001116
56 0.001103
57 0.001089
58 0.001076
59 0.001063
60 0.001053
61 0.001049
62 0.001043
63 0.001036
64 0.001034
65 0.001032
66 0.001027
67 0.001019
68 0.001012
69 0.001007
70 0.001005
71 0.001000
72 0.000997
73 0.000995
74 0.000990
75 0.000991
76 0.000991
77 0.000990
78 0.000987
79 0.000988
80 0.000985
81 0.000984
82 0.000988
83 0.000994
84 0.001000
85 0.001006
86 0.001007
87 0.001005
88 0.001003
89 0.000999
90 0.000994
91 0.000990
92 0.000984
93 0.000979
94 0.000977
95 0.000974
96 0.000975
97 0.000978
98 0.000979
99 0.000979
100 0.000979
101 0.000978
102 0.000975
103 0.000973
104 0.000971
105 0.000967
106 0.000966
107 0.000963
108 0.000960
109 0.000952
110 0.000953
111 0.000950
112 0.000944
113 0.000940
114 0.000939
115 0.000938
116 0.000938
117 0.000940
118 0.000938
119 0.000938
120 0.000931
121 0.000924
122 0.000917
123 0.000913
124 0.000910
125 0.000902
126 0.000901
127 0.000905
128 0.000906
129 0.000904
130 0.000903
131 0.000899
132 0.000889
133 0.000885
134 0.000884
135 0.000884
136 0.000881
137 0.000877
138 0.000870
139 0.000865
140 0.000854
141 0.000848
142 0.000839
143 0.000833
144 0.000830
145 0.000835
146 0.000840
147 0.000841
148 0.000844
149 0.000841
150 0.000833
151 0.000816
152 0.000807
153 0.000799
154 0.000796
155 0.000789
156 0.000783
157 0.000779
158 0.000772
159 0.000766
160 0.000754
161 0.000751
162 0.000749
163 0.000746
164 0.000739
165 0.000732
166 0.000727
167 0.000724
168 0.000718
169 0.000711
170 0.000707
171 0.000703
172 0.000699
173 0.000693
174 0.000690
175 0.000686
176 0.000688
177 0.000693
178 0.000690
179 0.000692
180 0.000694
181 0.000697
182 0.000695
183 0.000692
184 0.000687
185 0.000687
186 0.000685
187 0.000685
188 0.000686
189 0.000689
190 0.000689
191 0.000690
192 0.000692
193 0.000695
194 0.000698
195 0.000694
196 0.000695
197 0.000699
198 0.000700
199 0.000709
200 0.000719
201 0.000722
202 0.000725
203 0.000722
204 0.000713
205 0.000702
206 0.000692
207 0.000682
208 0.000678
209 0.000675
210 0.000672
211 0.000671
212 0.000671
213 0.000670
214 0.000671
215 0.000668
216 0.000666
217 0.000666
218 0.000665
219 0.000659
220 0.000657
221 0.000657
222 0.000654
223 0.000653
224 0.000649
225 0.000639
226 0.000626
227 0.000617
228 0.000611
229 0.000605
230 0.000601
231 0.000603
232 0.000609
233 0.000609
234 0.000608
235 0.000606
236 0.000600
237 0.000592
238 0.000586
239 0.000582
240 0.000575
241 0.000574
242 0.000571
243 0.000572
244 0.000572
245 0.000575
246 0.000579
247 0.000587
248 0.000589
249 0.000590
250 0.000587
251 0.000584
252 0.000588
253 0.000593
254 0.000596
255 0.000597
256 0.000592
257 0.000578
258 0.000566
259 0.000553
260 0.000542
261 0.000533
262 0.000530
263 0.000530
264 0.000536
265 0.000542
266 0.000548
267 0.000555
268 0.000555
269 0.000555
270 0.000552
271 0.000548
272 0.000546
273 0.000544
274 0.000545
275 0.000547
276 0.000553
277 0.000556
278 0.000560
279 0.000558
280 0.000559
281 0.000555
282 0.000557
283 0.000561
284 0.000566
285 0.000574
286 0.000576
287 0.000578
288 0.000577
289 0.000574
290 0.000572
291 0.000575
292 0.000575
293 0.000575
294 0.000577
295 0.000579
296 0.000582
297 0.000586
298 0.000589
299 0.000593
300 0.000597
301 0.000597
302 0.000598
303 0.000602
304 0.000601
305 0.000600
306 0.000597
307 0.000597
308 0.000601
309 0.000601
310 0.000600
311 0.000601
312 0.000598
313 0.000596
314 0.000590
315 0.000587
316 0.000591
317 0.000594
318 0.000593
319 0.000591
320 0.000598
321 0.000597
322 0.000593
323 0.000589
324 0.000580
325 0.000569
326 0.000562
327 0.000556
328 0.000556
329 0.000559
330 0.000562
331 0.000563
332 0.000559
333 0.000559
334 0.000560
335 0.000562
336 0.000562
337 0.000559
338 0.000561
339 0.000564
340 0.000569
341 0.000568
342 0.000569
343 0.000564
344 0.000561
345 0.000556
346 0.000552
347 0.000552
348 0.000553
349 0.000553
350 0.000554
351 0.000560
352 0.000561
353 0.000559
354 0.000553
355 0.000546
356 0.000541
357 0.000532
358 0.000521
359 0.000517
360 0.000508
361 0.000503
362 0.000504
363 0.000503
364 0.000500
365 0.000501
366 0.000505
367 0.000505
368 0.000504
369 0.000506
370 0.000507
371 0.000508
372 0.000509
373 0.000510
374 0.000511
375 0.000505
376 0.000497
377 0.000492
378 0.000492
379 0.000490
380 0.000490
381 0.000491
382 0.000491
383 0.000490
384 0.000491
385 0.000490
386 0.000488
387 0.000483
388 0.000480
389 0.000474
390 0.000469
391 0.000464
392 0.000460
393 0.000459
394 0.000458
395 0.000459
396 0.000456
397 0.000453
398 0.000450
399 0.000449
400 0.000446
401 0.000446
402 0.000449
403 0.000449
404 0.000445
405 0.000440
406 0.000433
407 0.000423
408 0.000413
409 0.000403
410 0.000394
411 0.000389
412 0.000381
413 0.000378
414 0.000375
415 0.000370
416 0.000362
417 0.000364
418 0.000366
419 0.000368
420 0.000371
421 0.000370
422 0.000367
423 0.000367
424 0.000369
425 0.000368
426 0.000368
427 0.000365
428 0.000357
429 0.000351
430 0.000349
431 0.000346
432 0.000345
433 0.000343
434 0.000343
435 0.000344
436 0.000346
437 0.000346
438 0.000346
439 0.000348
440 0.000349
441 0.000350
442 0.000348
443 0.000345
444 0.000348
445 0.000349
446 0.000351
447 0.000353
448 0.000358
449 0.000360
450 0.000366
451 0.000370
452 0.000373
453 0.000376
454 0.000376
455 0.000380
456 0.000382
457 0.000386
458 0.000389
459 0.000388
460 0.000383
461 0.000376
462 0.000372
463 0.000371
464 0.000373
465 0.000376
466 0.000379
467 0.000382
468 0.000383
469 0.000385
470 0.000388
471 0.000390
472 0.000390
473 0.000382
474 0.000377
475 0.000376
476 0.000376
477 0.000374
478 0.000372
479 0.000372
480 0.000369
481 0.000366
482 0.000362
483 0.000359
484 0.000358
485 0.000360
486 0.000357
487 0.000355
488 0.000356
489 0.000355
490 0.000358
491 0.000355
492 0.000352
493 0.000347
494 0.000342
495 0.000335
496 0.000335
497 0.000336
498 0.000336
499 0.000338
500 0.000340
501 0.000344
502 0.000350
503 0.000353
504 0.000351
505 0.000353
506 0.000350
507 0.000348
508 0.000349
509 0.000352
510 0.000351
511 0.000348
512 0.000338
513 0.000329
514 0.000323
515 0.000318
516 0.000312
517 0.000309
518 0.000304
519 0.000300
520 0.000295
521 0.000289
522 0.000281
523 0.000277
524 0.000270
525 0.000263
526 0.000253
527 0.000244
528 0.000242
529 0.000241
530 0.000239
531 0.000235
532 0.000232
533 0.000230
534 0.000228
535 0.000224
536 0.000223
537 0.000221
538 0.000218
539 0.000209
540 0.000203
541 0.000197
542 0.000194
543 0.000190
544 0.000189
545 0.000183
546 0.000178
547 0.000177
548 0.000177
549 0.000176
550 0.000175
551 0.000179
552 0.000184
553 0.000188
554 0.000191
555 0.000197
556 0.000201
557 0.000201
558 0.000200
559 0.000198
560 0.000197
561 0.000200
562 0.000204
563 0.000208
564 0.000208
565 0.000210
566 0.000212
567 0.000218
568 0.000220
569 0.000223
570 0.000225
571 0.000225
572 0.000226
573 0.000225
574 0.000225
575 0.000225
576 0.000225
577 0.000223
578 0.000221
579 0.000222
580 0.000220
581 0.000220
582 0.000222
583 0.000227
584 0.000232
585 0.000238
586 0.000245
587 0.000253
588 0.000257
589 0.000261
590 0.000263
591 0.000262
592 0.000262
593 0.000263
594 0.000266
595 0.000272
596 0.000275
597 0.000277
598 0.000281
599 0.000283
600 0.000285
601 0.000285
602 0.000285
603 0.000287
604 0.000285
605 0.000284
606 0.000284
607 0.000285
608 0.000284
609 0.000282
610 0.000275
611 0.000268
612 0.000267
613 0.000268
614 0.000270
615 0.000269
616 0.000269
617 0.000270
618 0.000271
619 0.000269
620 0.000272
621 0.000274
622 0.000274
623 0.000272
624 0.000266
625 0.000264
626 0.000263
627 0.000262
628 0.000257
629 0.000254
630 0.000248
631 0.000245
632 0.000240
633 0.000238
634 0.000235
635 0.000231
636 0.000228
637 0.000227
638 0.000229
639 0.000231
640 0.000233
641 0.000235
642 0.000239
643 0.000240
644 0.000241
645 0.000238
646 0.000239
647 0.000241
648 0.000245
649 0.000246
650 0.000246
651 0.000248
652 0.000250
653 0.000251
654 0.000252
655 0.000254
656 0.000255
657 0.000254
658 0.000253
659 0.000253
660 0.000250
661 0.000246
662 0.000241
663 0.000238
664 0.000239
665 0.000241
666 0.000240
667 0.000242
668 0.000245
669 0.000248
670 0.000246
671 0.000244
672 0.000245
673 0.000248
674 0.000250
675 0.000251
676 0.000250
677 0.000248
678 0.000248
679 0.000250
680 0.000250
681 0.000249
682 0.000251
683 0.000251
684 0.000249
685 0.000249
686 0.000252
687 0.000254
688 0.000253
689 0.000253
690 0.000257
691 0.000261
692 0.000267
693 0.000271
694 0.000274
695 0.000276
696 0.000277
697 0.000276
698 0.000277
699 0.000278
700 0.000279
701 0.000281
702 0.000285
703 0.000286
704 0.000287
705 0.000289
706 0.000289
707 0.000289
708 0.000289
709 0.000288
710 0.000287
711 0.000284
712 0.000280
713 0.000278
714 0.000277
715 0.000273
716 0.000267
717 0.000262
718 0.000258
719 0.000256
720 0.000252
721 0.000249
722 0.000245
723 0.000240
724 0.000237
725 0.000234
726 0.000228
727 0.000222
728 0.000216
729 0.000208
730 0.000201
731 0.000197
732 0.000194
733 0.000193
734 0.000192
735 0.000190
736 0.000187
737 0.000184
738 0.000180
739 0.000177
740 0.000176
741 0.000175
742 0.000175
743 0.000174
744 0.000175
745 0.000172
746 0.000171
747 0.000171
748 0.000173
749 0.000172
750 0.000171
751 0.000169
752 0.000169
753 0.000170
754 0.000170
755 0.000173
756 0.000175
757 0.000177
758 0.000177
759 0.000177
760 0.000177
761 0.000178
762 0.000180
763 0.000179
764 0.000177
765 0.000178
766 0.000180
767 0.000182
768 0.000182
769 0.000184
770 0.000186
771 0.000187
772 0.000186
773 0.000185
774 0.000184
775 0.000187
776 0.000189
777 0.000191
778 0.000191
779 0.000192
780 0.000192
781 0.000189
782 0.000185
783 0.000185
784 0.000185
785 0.000188
786 0.000191
787 0.000195
788 0.000197
789 0.000199
790 0.000199
791 0.000200
792 0.000201
793 0.000205
794 0.000207
795 0.000209
796 0.000212
797 0.000215
798 0.000217
799 0.000219
800 0.000221
801 0.000224
802 0.000227
803 0.000231
804 0.000234
805 0.000237
806 0.000238
807 0.000237
808 0.000237
809 0.000235
