# i correlation
1 0.001684
2 0.001632
3 0.001594
4 0.001562
5 0.001534
6 0.001506
7 0.001480
8 0.001460
9 0.001438
10 0.001411
11 0.001383
12 0.001361
13 0.001342
14 0.001333
15 0.001326
16 0.001324
17 0.001313
18 0.001304
19 0.001294
20 0.001286
21 0.001284
22 0.001281
23 0.001275
24 0.001274
25 0.001271
26 0.001273
27 0.001271
28 0.001273
29 0.001271
30 0.001262
31 0.001257
32 0.001254
33 0.001249
34 0.001244
35 0.001235
36 0.001222
37 0.001218
38 0.001219
39 0.001220
40 0.001218
41 0.001214
42 0.001213
43 0.001211
44 0.001211
45 0.001211
46 0.001210
47 0.001212
48 0.001214
49 0.001207
50 0.001202
51 0.001190
52 0.001178
53 0.001173
54 0.001163
55 0.001156
56 0.001151
57 0.001144
58 0.001139
59 0.001135
60 0.001131
61 0.001125
62 0.001118
63 0.001112
64 0.001108
65 0.001097
66 0.001091
67 0.001090
68 0.001088
69 0.001087
70 0.001081
71 0.001072
72 0.001067
73 0.001061
74 0.001056
75 0.001055
76 0.001054
77 0.001052
78 0.001047
79 0.001043
80 0.001038
81 0.001035
82 0.001035
83 0.001028
84 0.001015
85 0.000999
86 0.000984
87 0.000970
88 0.000958
89 0.000943
90 0.000930
91 0.000922
92 0.000913
93 0.000907
94 0.000897
95 0.000891
96 0.000894
97 0.000899
98 0.000908
99 0.000914
100 0.000918
101 0.000925
102 0.000929
103 0.000929
104 0.000924
105 0.000922
106 0.000922
107 0.000920
108 0.000922
109 0.000920
110 0.000917
111 0.000915
112 0.000907
113 0.000903
114 0.000902
115 0.000900
116 0.000894
117 0.000891
118 0.000880
119 0.000873
120 0.000871
121 0.000870
122 0.000869
123 0.000868
124 0.000865
125 0.000871
126 0.000872
127 0.000873
128 0.000872
129 0.000875
130 0.000881
131 0.000881
132 0.000879
133 0.000870
134 0.000859
135 0.000854
136 0.000851
137 0.000844
138 0.000831
139 0.000820
140 0.000811
141 0.000805
142 0.000795
143 0.000790
144 0.000787
145 0.000789
146 0.000789
147 0.000784
148 0.000777
149 0.000771
150 0.000765
151 0.000757
152 0.000750
153 0.000748
154 0.000745
155 0.000738
156 0.000735
157 0.000732
158 0.000731
159 0.000731
160 0.000730
161 0.000729
162 0.000728
163 0.000726
164 0.000723
165 0.000724
166 0.000720
167 0.000716
168 0.000718
169 0.000721
170 0.000725
171 0.000724
172 0.000730
173 0.000733
174 0.000739
175 0.000749
176 0.000752
177 0.000749
178 0.000751
179 0.000751
180 0.000749
181 0.000755
182 0.000755
183 0.000753
184 0.000753
185 0.000751
186 0.000746
187 0.000740
188 0.000734
189 0.000729
190 0.000726
191 0.000723
192 0.000721
193 0.000717
194 0.000714
195 0.000709
196 0.000704
197 0.000698
198 0.000692
199 0.000686
200 0.000683
201 0.000679
202 0.000677
203 0.000676
204 0.000677
205 0.000677
206 0.000676
207 0.000675
208 0.000671
209 0.000671
210 0.000673
211 0.000670
212 0.000664
213 0.000663
214 0.000656
215 0.000648
216 0.000641
217 0.000630
218 0.000625
219 0.000621
220 0.000617
221 0.000614
222 0.000613
223 0.000608
224 0.000598
225 0.000592
226 0.000585
227 0.000576
228 0.000574
229 0.000577
230 0.000575
231 0.000574
232 0.000576
233 0.000576
234 0.000577
235 0.000578
236 0.000584
237 0.000593
238 0.000603
239 0.000606
240 0.000609
241 0.000610
242 0.000612
243 0.000613
244 0.000614
245 0.000616
246 0.000612
247 0.000615
248 0.000616
249 0.000607
250 0.000600
251 0.000597
252 0.000594
253 0.000588
254 0.000583
255 0.000577
256 0.000575
257 0.000572
258 0.000570
259 0.000567
260 0.000566
261 0.000567
262 0.000563
263 0.000563
264 0.000570
265 0.000572
266 0.000575
267 0.000576
268 0.000580
269 0.000584
270 0.000591
271 0.000594
272 0.000595
273 0.000595
274 0.000596
275 0.000593
276 0.000592
277 0.000592
278 0.000590
279 0.000589
280 0.000586
281 0.000578
282 0.000574
283 0.000569
284 0.000562
285 0.000557
286 0.000559
287 0.000562
288 0.000565
289 0.000571
290 0.000576
291 0.000576
292 0.000572
293 0.000567
294 0.000565
295 0.000565
296 0.000568
297 0.000568
298 0.000569
299 0.000566
300 0.000561
301 0.000552
302 0.000549
303 0.000550
304 0.000558
305 0.000565
306 0.000570
307 0.000573
308 0.000571
309 0.000565
310 0.000556
311 0.000553
312 0.000557
313 0.000557
314 0.000555
315 0.000555
316 0.000556
317 0.000558
318 0.000562
319 0.000563
320 0.000568
321 0.000575
322 0.000581
323 0.000583
324 0.000582
325 0.000582
326 0.000576
327 0.000571
328 0.000568
329 0.000560
330 0.000555
331 0.000549
332 0.000541
333 0.000539
334 0.000533
335 0.000533
336 0.000534
337 0.000533
338 0.000530
339 0.000530
340 0.000529
341 0.000524
342 0.000515
343 0.000511
344 0.000511
345 0.000514
346 0.000520
347 0.000523
348 0.000527
349 0.000532
350 0.000535
351 0.000539
352 0.000541
353 0.000546
354 0.000549
355 0.000549
356 0.000552
357 0.000557
358 0.000558
359 0.000555
360 0.000545
361 0.000536
362 0.000529
363 0.000519
364 0.000510
365 0.000506
366 0.000507
367 0.000516
368 0.000526
369 0.000535
370 0.000538
371 0.000536
372 0.000535
373 0.000538
374 0.000544
375 0.000548
376 0.000545
377 0.000544
378 0.000546
379 0.000545
380 0.000538
381 0.000536
382 0.000535
383 0.000533
384 0.000529
385 0.000528
386 0.000521
387 0.000519
388 0.000520
389 0.000517
390 0.000515
391 0.000513
392 0.000506
393 0.000499
394 0.000493
395 0.000490
396 0.000487
397 0.000483
398 0.000475
399 0.000468
400 0.000461
401 0.000454
402 0.000448
403 0.000447
404 0.000450
405 0.000452
406 0.000453
407 0.000454
408 0.000452
409 0.000449
410 0.000445
411 0.000438
412 0.000431
413 0.000429
414 0.000427
415 0.000429
416 0.000434
417 0.000441
418 0.000443
419 0.000448
420 0.000452
421 0.000457
422 0.000459
423 0.000464
424 0.000464
425 0.000460
426 0.000461
427 0.000461
428 0.000458
429 0.000458
430 0.000455
431 0.000452
432 0.000449
433 0.000450
434 0.000449
435 0.000451
436 0.000453
437 0.000454
438 0.000456
439 0.000455
440 0.000449
441 0.000443
442 0.000437
443 0.000434
444 0.000435
445 0.000437
446 0.000434
447 0.000434
448 0.000432
449 0.000437
450 0.000444
451 0.000452
452 0.000459
453 0.000464
454 0.000468
455 0.000472
456 0.000474
457 0.000475
458 0.000476
459 0.000476
460 0.000479
461 0.000476
462 0.000470
463 0.000466
464 0.000457
465 0.000452
466 0.000450
467 0.000449
468 0.000446
469 0.000440
470 0.000437
471 0.000437
472 0.000434
473 0.000429
474 0.000426
475 0.000423
476 0.000425
477 0.000425
478 0.000424
479 0.000423
480 0.000423
481 0.000425
482 0.000424
483 0.000425
484 0.000429
485 0.000435
486 0.000440
487 0.000444
488 0.000445
489 0.000451
490 0.000458
491 0.000460
492 0.000461
493 0.000464
494 0.000467
495 0.000469
496 0.000470
497 0.000471
498 0.000474
499 0.000476
500 0.000476
501 0.000473
502 0.000470
503 0.000468
504 0.000466
505 0.000463
506 0.000460
507 0.000456
508 0.000451
509 0.000444
510 0.000439
511 0.000432
512 0.000419
513 0.000409
514 0.000404
515 0.000402
516 0.000400
517 0.000397
518 0.000397
519 0.000400
520 0.000403
521 0.000403
522 0.000399
523 0.000395
524 0.000394
525 0.000395
526 0.000396
527 0.000398
528 0.000399
529 0.000398
530 0.000393
531 0.000393
532 0.000394
533 0.000395
534 0.000397
535 0.000402
536 0.000407
537 0.000409
538 0.000410
539 0.000406
540 0.000405
541 0.000403
542 0.000402
543 0.000403
544 0.000405
545 0.000401
546 0.000396
547 0.000390
548 0.000385
549 0.000382
550 0.000377
551 0.000369
552 0.000363
553 0.000361
554 0.000358
555 0.000351
556 0.000341
557 0.000335
558 0.000330
559 0.000328
560 0.000332
561 0.000335
562 0.000335
563 0.000338
564 0.000344
565 0.000346
566 0.000349
567 0.000352
568 0.000355
569 0.000361
570 0.000365
571 0.000362
572 0.000355
573 0.000350
574 0.000346
575 0.000338
576 0.000332
577 0.000328
578 0.000323
579 0.000319
580 0.000315
581 0.000312
582 0.000308
583 0.000303
584 0.000300
585 0.000299
586 0.000298
587 0.000296
588 0.000297
589 0.000298
590 0.000293
591 0.000291
592 0.000293
593 0.000292
594 0.000287
595 0.000283
596 0.000281
597 0.000278
598 0.000273
599 0.000265
600 0.000258
601 0.000255
602 0.000251
603 0.000248
604 0.000245
605 0.000241
606 0.000235
607 0.000234
608 0.000232
609 0.000227
610 0.000225
611 0.000225
612 0.000226
613 0.000228
614 0.000225
615 0.000221
616 0.000219
617 0.000220
618 0.000222
619 0.000225
620 0.000228
621 0.000230
622 0.000233
623 0.000230
624 0.000228
625 0.000229
626 0.000233
627 0.000238
628 0.000241
629 0.000246
630 0.000247
631 0.000246
632 0.000245
633 0.000246
634 0.000246
635 0.000247
636 0.000249
637 0.000249
638 0.000249
639 0.000250
640 0.000248
641 0.000248
642 0.000251
643 0.000253
644 0.000252
645 0.000253
646 0.000255
647 0.000253
648 0.000256
649 0.000254
650 0.000251
651 0.000252
652 0.000252
653 0.000249
654 0.000244
655 0.000238
656 0.000231
657 0.000229
658 0.000226
659 0.000220
660 0.000218
661 0.000218
662 0.000216
663 0.000214
664 0.000213
665 0.000213
666 0.000215
667 0.000216
668 0.000216
669 0.000216
670 0.000217
671 0.000218
672 0.000220
673 0.000222
674 0.000228
675 0.000231
676 0.000232
677 0.000229
678 0.000223
679 0.000221
680 0.000218
681 0.000214
682 0.000211
683 0.000206
684 0.000200
685 0.000198
686 0.000195
687 0.000191
688 0.000185
689 0.000183
690 0.000184
691 0.000184
692 0.000188
693 0.000192
694 0.000197
695 0.000206
696 0.000211
697 0.000218
698 0.000221
699 0.000225
700 0.000230
701 0.000234
702 0.000235
703 0.000238
704 0.000238
705 0.000235
706 0.000235
707 0.000234
708 0.000234
709 0.000234
710 0.000231
711 0.000230
712 0.000226
713 0.000224
714 0.000222
715 0.000222
716 0.000220
717 0.000215
718 0.000214
719 0.000212
720 0.000208
721 0.000207
722 0.000205
723 0.000204
724 0.000205
725 0.000207
726 0.000208
727 0.000211
728 0.000212
729 0.000211
730 0.000210
731 0.000206
732 0.000204
733 0.000202
734 0.000199
735 0.000197
736 0.000197
737 0.000196
738 0.000194
739 0.000193
740 0.000192
741 0.000195
742 0.000201
743 0.000207
744 0.000212
745 0.000213
746 0.000214
747 0.000211
748 0.000209
749 0.000210
750 0.000211
751 0.000212
752 0.000210
753 0.000206
754 0.000203
755 0.000198
756 0.000194
757 0.000193
758 0.000193
759 0.000193
760 0.000187
761 0.000182
762 0.000177
763 0.000174
764 0.000171
765 0.000168
766 0.000168
767 0.000171
768 0.000171
769 0.000169
770 0.000167
771 0.000166
772 0.000165
773 0.000167
774 0.000168
775 0.000171
776 0.000173
777 0.000173
778 0.000171
779 0.000168
780 0.000164
781 0.000160
782 0.000154
783 0.000149
784 0.000143
785 0.000139
786 0.000132
787 0.000124
788 0.000119
789 0.000112
790 0.000106
791 0.000099
792 0.000093
793 0.000088
794 0.000083
795 0.000078
796 0.000076
797 0.000078
798 0.000079
799 0.000078
800 0.000076
801 0.000074
802 0.000077
803 0.000077
804 0.000078
805 0.000077
806 0.000080
807 0.000084
808 0.000086
809 0.000085
