# i correlation
1 0.001622
2 0.001577
3 0.001539
4 0.001500
5 0.001465
6 0.001435
7 0.001408
8 0.001389
9 0.001369
10 0.001355
11 0.001341
12 0.001320
13 0.001307
14 0.001293
15 0.001284
16 0.001275
17 0.001262
18 0.001249
19 0.001235
20 0.001224
21 0.001216
22 0.001207
23 0.001192
24 0.001184
25 0.001175
26 0.001167
27 0.001159
28 0.001155
29 0.001157
30 0.001159
31 0.001163
32 0.001161
33 0.001163
34 0.001164
35 0.001162
36 0.001162
37 0.001162
38 0.001160
39 0.001153
40 0.001146
41 0.001139
42 0.001130
43 0.001123
44 0.001110
45 0.001100
46 0.001095
47 0.001092
48 0.001085
49 0.001081
50 0.001075
51 0.001068
52 0.001066
53 0.001063
54 0.001059
55 0.001057
56 0.001055
57 0.001052
58 0.001049
59 0.001042
60 0.001036
61 0.001037
62 0.001035
63 0.001033
64 0.001033
65 0.001029
66 0.001026
67 0.001029
68 0.001034
69 0.001033
70 0.001028
71 0.001026
72 0.001030
73 0.001027
74 0.001024
75 0.001015
76 0.001009
77 0.001008
78 0.001011
79 0.001011
80 0.001017
81 0.001018
82 0.001015
83 0.001014
84 0.001012
85 0.001011
86 0.001009
87 0.001007
88 0.001011
89 0.001016
90 0.001017
91 0.001018
92 0.001019
93 0.001021
94 0.001022
95 0.001021
96 0.001019
97 0.001010
98 0.001003
99 0.000993
100 0.000985
101 0.000980
102 0.000977
103 0.000974
104 0.000973
105 0.000974
106 0.000974
107 0.000965
108 0.000958
109 0.000949
110 0.000939
111 0.000931
112 0.000927
113 0.000922
114 0.000914
115 0.000903
116 0.000900
117 0.000899
118 0.000893
119 0.000888
120 0.000883
121 0.000880
122 0.000881
123 0.000879
124 0.000871
125 0.000867
126 0.000861
127 0.000855
128 0.000853
129 0.000855
130 0.000861
131 0.000863
132 0.000859
133 0.000854
134 0.000854
135 0.000853
136 0.000852
137 0.000848
138 0.000842
139 0.000837
140 0.000832
141 0.000825
142 0.000823
143 0.000815
144 0.000808
145 0.000801
146 0.000795
147 0.000787
148 0.000776
149 0.000767
150 0.000761
151 0.000756
152 0.000754
153 0.000750
154 0.000744
155 0.000741
156 0.000737
157 0.000732
158 0.000723
159 0.000718
160 0.000723
161 0.000725
162 0.000725
163 0.000731
164 0.000738
165 0.000747
166 0.000754
167 0.000755
168 0.000757
169 0.000760
170 0.000762
171 0.000765
172 0.000769
173 0.000769
174 0.000773
175 0.000774
176 0.000772
177 0.000767
178 0.000761
179 0.000757
180 0.000753
181 0.000747
182 0.000738
183 0.000727
184 0.000721
185 0.000717
186 0.000714
187 0.000713
188 0.000707
189 0.000705
190 0.000704
191 0.000698
192 0.000696
193 0.000694
194 0.000696
195 0.000699
196 0.000700
197 0.000701
198 0.000703
199 0.000704
200 0.000703
201 0.000698
202 0.000698
203 0.000702
204 0.000697
205 0.000699
206 0.000699
207 0.000695
208 0.000694
209 0.000689
210 0.000684
211 0.000677
212 0.000670
213 0.000665
214 0.000658
215 0.000648
216 0.000642
217 0.000634
218 0.000637
219 0.000630
220 0.000619
221 0.000610
222 0.000594
223 0.000584
224 0.000577
225 0.000569
226 0.000565
227 0.000560
228 0.000556
229 0.000554
230 0.000550
231 0.000543
232 0.000542
233 0.000540
234 0.000536
235 0.000537
236 0.000543
237 0.000543
238 0.000539
239 0.000536
240 0.000532
241 0.000525
242 0.000523
243 0.000520
244 0.000514
245 0.000508
246 0.000506
247 0.000506
248 0.000508
249 0.000512
250 0.000514
251 0.000517
252 0.000520
253 0.000526
254 0.000528
255 0.000525
256 0.000521
257 0.000518
258 0.000513
259 0.000511
260 0.000512
261 0.000517
262 0.000519
263 0.000520
264 0.000527
265 0.000528
266 0.000528
267 0.000529
268 0.000528
269 0.000521
270 0.000519
271 0.000515
272 0.000508
273 0.000507
274 0.000501
275 0.000495
276 0.000491
277 0.000488
278 0.000487
279 0.000485
280 0.000483
281 0.000481
282 0.000481
283 0.000481
284 0.000476
285 0.000475
286 0.000474
287 0.000470
288 0.000467
289 0.000462
290 0.000457
291 0.000457
292 0.000456
293 0.000459
294 0.000464
295 0.000473
296 0.000480
297 0.000488
298 0.000495
299 0.000501
300 0.000502
301 0.000507
302 0.000511
303 0.000512
304 0.000517
305 0.000517
306 0.000516
307 0.000514
308 0.000508
309 0.000506
310 0.000506
311 0.000505
312 0.000504
313 0.000501
314 0.000499
315 0.000498
316 0.000495
317 0.000492
318 0.000487
319 0.000479
320 0.000472
321 0.000463
322 0.000453
323 0.000442
324 0.000434
325 0.000429
326 0.000427
327 0.000422
328 0.000419
329 0.000414
330 0.000409
331 0.000410
332 0.000412
333 0.000414
334 0.000414
335 0.000417
336 0.000416
337 0.000413
338 0.000415
339 0.000418
340 0.000424
341 0.000431
342 0.000442
343 0.000450
344 0.000460
345 0.000467
346 0.000470
347 0.000470
348 0.000469
349 0.000470
350 0.000469
351 0.000461
352 0.000452
353 0.000442
354 0.000434
355 0.000429
356 0.000421
357 0.000415
358 0.000407
359 0.000400
360 0.000396
361 0.000393
362 0.000391
363 0.000390
364 0.000389
365 0.000391
366 0.000392
367 0.000393
368 0.000393
369 0.000394
370 0.000399
371 0.000405
372 0.000405
373 0.000408
374 0.000409
375 0.000411
376 0.000414
377 0.000413
378 0.000413
379 0.000412
380 0.000410
381 0.000407
382 0.000405
383 0.000405
384 0.000408
385 0.000409
386 0.000408
387 0.000408
388 0.000403
389 0.000398
390 0.000393
391 0.000384
392 0.000378
393 0.000376
394 0.000368
395 0.000363
396 0.000359
397 0.000352
398 0.000349
399 0.000347
400 0.000344
401 0.000340
402 0.000338
403 0.000337
404 0.000336
405 0.000337
406 0.000336
407 0.000340
408 0.000343
409 0.000341
410 0.000336
411 0.000332
412 0.000326
413 0.000328
414 0.000326
415 0.000323
416 0.000324
417 0.000328
418 0.000333
419 0.000334
420 0.000334
421 0.000333
422 0.000330
423 0.000329
424 0.000329
425 0.000327
426 0.000323
427 0.000322
428 0.000322
429 0.000322
430 0.000321
431 0.000321
432 0.000319
433 0.000318
434 0.000322
435 0.000323
436 0.000327
437 0.000329
438 0.000333
439 0.000332
440 0.000331
441 0.000327
442 0.000323
443 0.000317
444 0.000314
445 0.000317
446 0.000317
447 0.000317
448 0.000321
449 0.000325
450 0.000326
451 0.000330
452 0.000333
453 0.000332
454 0.000330
455 0.000325
456 0.000322
457 0.000315
458 0.000309
459 0.000303
460 0.000301
461 0.000296
462 0.000298
463 0.000296
464 0.000292
465 0.000288
466 0.000290
467 0.000295
468 0.000299
469 0.000302
470 0.000308
471 0.000315
472 0.000320
473 0.000327
474 0.000330
475 0.000332
476 0.000332
477 0.000329
478 0.000328
479 0.000325
480 0.000319
481 0.000318
482 0.000317
483 0.000315
484 0.000310
485 0.000309
486 0.000307
487 0.000305
488 0.000305
489 0.000307
490 0.000301
491 0.000297
492 0.000293
493 0.000285
494 0.000276
495 0.000265
496 0.000255
497 0.000246
498 0.000235
499 0.000233
500 0.000231
501 0.000228
502 0.000225
503 0.000223
504 0.000222
505 0.000221
506 0.000221
507 0.000223
508 0.000221
509 0.000224
510 0.000226
511 0.000224
512 0.000224
513 0.000225
514 0.000227
515 0.000234
516 0.000240
517 0.000247
518 0.000254
519 0.000259
520 0.000264
521 0.000268
522 0.000272
523 0.000274
524 0.000275
525 0.000275
526 0.000273
527 0.000269
528 0.000264
529 0.000262
530 0.000262
531 0.000264
532 0.000264
533 0.000263
534 0.000263
535 0.000265
536 0.000268
537 0.000271
538 0.000274
539 0.000274
540 0.000279
541 0.000280
542 0.000280
543 0.000284
544 0.000286
545 0.000284
546 0.000285
547 0.000289
548 0.000288
549 0.000286
550 0.000283
551 0.000280
552 0.000276
553 0.000276
554 0.000272
555 0.000272
556 0.000273
557 0.000274
558 0.000274
559 0.000275
560 0.000276
561 0.000276
562 0.000274
563 0.000273
564 0.000271
565 0.000268
566 0.000262
567 0.000256
568 0.000255
569 0.000252
570 0.000249
571 0.000247
572 0.000240
573 0.000236
574 0.000234
575 0.000230
576 0.000227
577 0.000225
578 0.000222
579 0.000222
580 0.000220
581 0.000220
582 0.000218
583 0.000221
584 0.000221
585 0.000218
586 0.000213
587 0.000208
588 0.000202
589 0.000197
590 0.000191
591 0.000183
592 0.000176
593 0.000170
594 0.000169
595 0.000166
596 0.000165
597 0.000164
598 0.000165
599 0.000166
600 0.000167
601 0.000165
602 0.000164
603 0.000165
604 0.000168
605 0.000173
606 0.000174
607 0.000173
608 0.000174
609 0.000174
610 0.000172
611 0.000173
612 0.000173
613 0.000175
614 0.000177
615 0.000177
616 0.000180
617 0.000182
618 0.000182
619 0.000182
620 0.000183
621 0.000185
622 0.000184
623 0.000185
624 0.000186
625 0.000189
626 0.000191
627 0.000191
628 0.000191
629 0.000191
630 0.000189
631 0.000187
632 0.000187
633 0.000185
634 0.000184
635 0.000186
636 0.000187
637 0.000188
638 0.000193
639 0.000196
640 0.000198
641 0.000203
642 0.000208
643 0.000214
644 0.000220
645 0.000224
646 0.000227
647 0.000228
648 0.000226
649 0.000227
650 0.000225
651 0.000221
652 0.000222
653 0.000220
654 0.000220
655 0.000221
656 0.000221
657 0.000222
658 0.000219
659 0.000218
660 0.000220
661 0.000222
662 0.000219
663 0.000217
664 0.000214
665 0.000209
666 0.000207
667 0.000202
668 0.000201
669 0.000200
670 0.000196
671 0.000192
672 0.000187
673 0.000185
674 0.000182
675 0.000178
676 0.000175
677 0.000175
678 0.000178
679 0.000178
680 0.000179
681 0.000182
682 0.000183
683 0.000180
684 0.000178
685 0.000177
686 0.000174
687 0.000171
688 0.000172
689 0.000172
690 0.000169
691 0.000167
692 0.000166
693 0.000164
694 0.000161
695 0.000158
696 0.000155
697 0.000153
698 0.000151
699 0.000152
700 0.000152
701 0.000151
702 0.000151
703 0.000150
704 0.000148
705 0.000144
706 0.000140
707 0.000135
708 0.000127
709 0.000121
710 0.000116
711 0.000113
712 0.000112
713 0.000116
714 0.000119
715 0.000125
716 0.000131
717 0.000138
718 0.000144
719 0.000150
720 0.000156
721 0.000160
722 0.000162
723 0.000165
724 0.000168
725 0.000173
726 0.000177
727 0.000181
728 0.000183
729 0.000184
730 0.000186
731 0.000185
732 0.000184
733 0.000183
734 0.000188
735 0.000195
736 0.000200
737 0.000204
738 0.000208
739 0.000208
740 0.000209
741 0.000209
742 0.000208
743 0.000208
744 0.000201
745 0.000195
746 0.000190
747 0.000184
748 0.000178
749 0.000177
750 0.000178
751 0.000179
752 0.000180
753 0.000181
754 0.000180
755 0.000181
756 0.000182
757 0.000180
758 0.000178
759 0.000176
760 0.000174
761 0.000174
762 0.000171
763 0.000169
764 0.000165
765 0.000162
766 0.000160
767 0.000157
768 0.000154
769 0.000152
770 0.000151
771 0.000151
772 0.000152
773 0.000154
774 0.000156
775 0.000154
776 0.000153
777 0.000153
778 0.000151
779 0.000147
780 0.000144
781 0.000139
782 0.000138
783 0.000138
784 0.000138
785 0.000139
786 0.000142
787 0.000143
788 0.000144
789 0.000144
790 0.000142
791 0.000141
792 0.000140
793 0.000138
794 0.000137
795 0.000138
796 0.000135
797 0.000134
798 0.000135
799 0.000133
800 0.000129
801 0.000126
802 0.000119
803 0.000111
804 0.000106
805 0.000101
806 0.000096
807 0.000095
808 0.000094
809 0.000091
