# i correlation
1 0.001455
2 0.001401
3 0.001359
4 0.001326
5 0.001302
6 0.001280
7 0.001257
8 0.001230
9 0.001213
10 0.001194
11 0.001176
12 0.001160
13 0.001146
14 0.001131
15 0.001123
16 0.001110
17 0.001093
18 0.001081
19 0.001069
20 0.001059
21 0.001047
22 0.001039
23 0.001032
24 0.001026
25 0.001023
26 0.001018
27 0.001014
28 0.001009
29 0.001006
30 0.001001
31 0.001000
32 0.000993
33 0.000984
34 0.000976
35 0.000970
36 0.000961
37 0.000955
38 0.000952
39 0.000949
40 0.000947
41 0.000945
42 0.000941
43 0.000938
44 0.000934
45 0.000929
46 0.000931
47 0.000931
48 0.000924
49 0.000916
50 0.000911
51 0.000907
52 0.000903
53 0.000903
54 0.000899
55 0.000890
56 0.000879
57 0.000872
58 0.000863
59 0.000852
60 0.000844
61 0.000834
62 0.000825
63 0.000818
64 0.000815
65 0.000815
66 0.000815
67 0.000810
68 0.000802
69 0.000793
70 0.000782
71 0.000773
72 0.000761
73 0.000755
74 0.000745
75 0.000735
76 0.000725
77 0.000720
78 0.000718
79 0.000714
80 0.000709
81 0.000699
82 0.000690
83 0.000682
84 0.000682
85 0.000682
86 0.000677
87 0.000675
88 0.000672
89 0.000668
90 0.000669
91 0.000670
92 0.000669
93 0.000667
94 0.000671
95 0.000673
96 0.000672
97 0.000667
98 0.000663
99 0.000660
100 0.000666
101 0.000672
102 0.000674
103 0.000679
104 0.000683
105 0.000679
106 0.000677
107 0.000675
108 0.000674
109 0.000675
110 0.000680
111 0.000681
112 0.000680
113 0.000674
114 0.000665
115 0.000654
116 0.000647
117 0.000647
118 0.000644
119 0.000646
120 0.000647
121 0.000648
122 0.000645
123 0.000643
124 0.000636
125 0.000629
126 0.000619
127 0.000616
128 0.000616
129 0.000613
130 0.000613
131 0.000611
132 0.000613
133 0.000619
134 0.000621
135 0.000626
136 0.000625
137 0.000625
138 0.000622
139 0.000620
140 0.000623
141 0.000631
142 0.000638
143 0.000644
144 0.000651
145 0.000652
146 0.000654
147 0.000652
148 0.000649
149 0.000643
150 0.000633
151 0.000623
152 0.000613
153 0.000602
154 0.000587
155 0.000574
156 0.000563
157 0.000552
158 0.000547
159 0.000540
160 0.000532
161 0.000529
162 0.000527
163 0.000525
164 0.000526
165 0.000524
166 0.000520
167 0.000516
168 0.000513
169 0.000512
170 0.000512
171 0.000517
172 0.000523
173 0.000521
174 0.000522
175 0.000522
176 0.000526
177 0.000526
178 0.000524
179 0.000520
180 0.000517
181 0.000515
182 0.000516
183 0.000513
184 0.000509
185 0.000504
186 0.000501
187 0.000498
188 0.000501
189 0.000504
190 0.000507
191 0.000505
192 0.000500
193 0.000498
194 0.000494
195 0.000491
196 0.000490
197 0.000486
198 0.000481
199 0.000474
200 0.000467
201 0.000463
202 0.000458
203 0.000453
204 0.000448
205 0.000443
206 0.000443
207 0.000441
208 0.000441
209 0.000434
210 0.000425
211 0.000424
212 0.000427
213 0.000432
214 0.000434
215 0.000437
216 0.000439
217 0.000438
218 0.000435
219 0.000434
220 0.000433
221 0.000433
222 0.000432
223 0.000432
224 0.000431
225 0.000427
226 0.000425
227 0.000425
228 0.000424
229 0.000426
230 0.000425
231 0.000425
232 0.000423
233 0.000418
234 0.000409
235 0.000403
236 0.000402
237 0.000401
238 0.000401
239 0.000405
240 0.000408
241 0.000413
242 0.000421
243 0.000433
244 0.000444
245 0.000452
246 0.000456
247 0.000459
248 0.000463
249 0.000463
250 0.000461
251 0.000461
252 0.000464
253 0.000466
254 0.000465
255 0.000468
256 0.000470
257 0.000469
258 0.000470
259 0.000470
260 0.000469
261 0.000467
262 0.000463
263 0.000458
264 0.000449
265 0.000442
266 0.000443
267 0.000445
268 0.000443
269 0.000440
270 0.000439
271 0.000434
272 0.000429
273 0.000424
274 0.000422
275 0.000417
276 0.000415
277 0.000411
278 0.000405
279 0.000399
280 0.000394
281 0.000390
282 0.000388
283 0.000383
284 0.000378
285 0.000382
286 0.000387
287 0.000386
288 0.000384
289 0.000382
290 0.000384
291 0.000390
292 0.000396
293 0.000398
294 0.000400
295 0.000398
296 0.000398
297 0.000402
298 0.000404
299 0.000404
300 0.000400
301 0.000395
302 0.000391
303 0.000388
304 0.000382
305 0.000378
306 0.000375
307 0.000376
308 0.000373
309 0.000373
310 0.000372
311 0.000367
312 0.000363
313 0.000362
314 0.000359
315 0.000349
316 0.000344
317 0.000345
318 0.000352
319 0.000356
320 0.000363
321 0.000367
322 0.000368
323 0.000376
324 0.000384
325 0.000392
326 0.000396
327 0.000399
328 0.000397
329 0.000392
330 0.000390
331 0.000386
332 0.000387
333 0.000391
334 0.000391
335 0.000395
336 0.000404
337 0.000407
338 0.000411
339 0.000413
340 0.000413
341 0.000412
342 0.000409
343 0.000406
344 0.000400
345 0.000397
346 0.000391
347 0.000383
348 0.000378
349 0.000374
350 0.000371
351 0.000371
352 0.000378
353 0.000382
354 0.000388
355 0.000392
356 0.000397
357 0.000399
358 0.000404
359 0.000406
360 0.000410
361 0.000413
362 0.000413
363 0.000413
364 0.000419
365 0.000427
366 0.000430
367 0.000434
368 0.000431
369 0.000423
370 0.000416
371 0.000408
372 0.000403
373 0.000398
374 0.000397
375 0.000389
376 0.000386
377 0.000384
378 0.000385
379 0.000385
380 0.000383
381 0.000373
382 0.000366
383 0.000361
384 0.000356
385 0.000351
386 0.000350
387 0.000353
388 0.000351
389 0.000355
390 0.000358
391 0.000364
392 0.000368
393 0.000374
394 0.000376
395 0.000377
396 0.000375
397 0.000372
398 0.000369
399 0.000367
400 0.000363
401 0.000359
402 0.000356
403 0.000360
404 0.000365
405 0.000369
406 0.000364
407 0.000361
408 0.000358
409 0.000361
410 0.000366
411 0.000369
412 0.000366
413 0.000361
414 0.000357
415 0.000352
416 0.000344
417 0.000335
418 0.000328
419 0.000323
420 0.000320
421 0.000315
422 0.000310
423 0.000303
424 0.000302
425 0.000299
426 0.000296
427 0.000298
428 0.000295
429 0.000291
430 0.000288
431 0.000288
432 0.000288
433 0.000286
434 0.000285
435 0.000284
436 0.000284
437 0.000282
438 0.000280
439 0.000278
440 0.000278
441 0.000279
442 0.000278
443 0.000280
444 0.000282
445 0.000284
446 0.000290
447 0.000297
448 0.000299
449 0.000302
450 0.000301
451 0.000303
452 0.000304
453 0.000309
454 0.000311
455 0.000312
456 0.000312
457 0.000309
458 0.000311
459 0.000310
460 0.000310
461 0.000309
462 0.000308
463 0.000306
464 0.000310
465 0.000316
466 0.000322
467 0.000323
468 0.000328
469 0.000333
470 0.000334
471 0.000336
472 0.000334
473 0.000333
474 0.000334
475 0.000335
476 0.000335
477 0.000332
478 0.000331
479 0.000330
480 0.000325
481 0.000319
482 0.000316
483 0.000311
484 0.000307
485 0.000308
486 0.000304
487 0.000300
488 0.000299
489 0.000297
490 0.000293
491 0.000288
492 0.000280
493 0.000275
494 0.000272
495 0.000272
496 0.000272
497 0.000274
498 0.000277
499 0.000283
500 0.000289
501 0.000296
502 0.000298
503 0.000300
504 0.000303
505 0.000304
506 0.000306
507 0.000310
508 0.000315
509 0.000316
510 0.000318
511 0.000322
512 0.000324
513 0.000328
514 0.000334
515 0.000338
516 0.000339
517 0.000339
518 0.000339
519 0.000340
520 0.000337
521 0.000331
522 0.000331
523 0.000331
524 0.000330
525 0.000326
526 0.000323
527 0.000315
528 0.000308
529 0.000302
530 0.000296
531 0.000292
532 0.000289
533 0.000283
534 0.000276
535 0.000271
536 0.000268
537 0.000267
538 0.000269
539 0.000272
540 0.000270
541 0.000271
542 0.000272
543 0.000269
544 0.000268
545 0.000267
546 0.000268
547 0.000269
548 0.000269
549 0.000271
550 0.000275
551 0.000275
552 0.000275
553 0.000277
554 0.000278
555 0.000278
556 0.000279
557 0.000280
558 0.000276
559 0.000268
560 0.000259
561 0.000249
562 0.000242
563 0.000231
564 0.000223
565 0.000218
566 0.000215
567 0.000210
568 0.000206
569 0.000206
570 0.000203
571 0.000203
572 0.000202
573 0.000200
574 0.000194
575 0.000188
576 0.000189
577 0.000189
578 0.000185
579 0.000184
580 0.000183
581 0.000182
582 0.000180
583 0.000178
584 0.000174
585 0.000174
586 0.000172
587 0.000168
588 0.000170
589 0.000173
590 0.000171
591 0.000169
592 0.000167
593 0.000168
594 0.000168
595 0.000172
596 0.000173
597 0.000174
598 0.000177
599 0.000184
600 0.000187
601 0.000189
602 0.000190
603 0.000193
604 0.000195
605 0.000196
606 0.000195
607 0.000191
608 0.000192
609 0.000195
610 0.000199
611 0.000201
612 0.000202
613 0.000199
614 0.000195
615 0.000192
616 0.000190
617 0.000193
618 0.000197
619 0.000202
620 0.000203
621 0.000200
622 0.000197
623 0.000196
624 0.000194
625 0.000190
626 0.000187
627 0.000184
628 0.000182
629 0.000178
630 0.000178
631 0.000178
632 0.000177
633 0.000173
634 0.000175
635 0.000180
636 0.000182
637 0.000186
638 0.000189
639 0.000188
640 0.000189
641 0.000187
642 0.000186
643 0.000186
644 0.000184
645 0.000184
646 0.000184
647 0.000186
648 0.000186
649 0.000185
650 0.000187
651 0.000190
652 0.000190
653 0.000187
654 0.000185
655 0.000180
656 0.000181
657 0.000182
658 0.000182
659 0.000186
660 0.000186
661 0.000185
662 0.000183
663 0.000182
664 0.000180
665 0.000180
666 0.000183
667 0.000182
668 0.000177
669 0.000174
670 0.000169
671 0.000165
672 0.000166
673 0.000162
674 0.000157
675 0.000150
676 0.000142
677 0.000138
678 0.000135
679 0.000135
680 0.000131
681 0.000130
682 0.000127
683 0.000124
684 0.000120
685 0.000118
686 0.000118
687 0.000115
688 0.000112
689 0.000110
690 0.000112
691 0.000115
692 0.000116
693 0.000116
694 0.000119
695 0.000122
696 0.000126
697 0.000135
698 0.000139
699 0.000141
700 0.000143
701 0.000145
702 0.000149
703 0.000152
704 0.000154
705 0.000154
706 0.000154
707 0.000150
708 0.000143
709 0.000137
710 0.000132
711 0.000125
712 0.000120
713 0.000118
714 0.000115
715 0.000113
716 0.000109
717 0.000104
718 0.000101
719 0.000099
720 0.000096
721 0.000094
722 0.000095
723 0.000095
724 0.000092
725 0.000092
726 0.000090
727 0.000088
728 0.000085
729 0.000084
730 0.000084
731 0.000084
732 0.000088
733 0.000088
734 0.000087
735 0.000086
736 0.000081
737 0.000075
738 0.000074
739 0.000071
740 0.000071
741 0.000070
742 0.000067
743 0.000067
744 0.000069
745 0.000074
746 0.000079
747 0.000084
748 0.000088
749 0.000090
750 0.000092
751 0.000093
752 0.000096
753 0.000098
754 0.000100
755 0.000100
756 0.000099
757 0.000098
758 0.000095
759 0.000097
760 0.000097
761 0.000099
762 0.000102
763 0.000104
764 0.000103
765 0.000103
766 0.000104
767 0.000104
768 0.000105
769 0.000106
770 0.000110
771 0.000114
772 0.000115
773 0.000116
774 0.000115
775 0.000116
776 0.000116
777 0.000115
778 0.000114
779 0.000113
780 0.000110
781 0.000108
782 0.000106
783 0.000106
784 0.000106
785 0.000104
786 0.000104
787 0.000102
788 0.000100
789 0.000100
790 0.000098
791 0.000097
792 0.000097
793 0.000100
794 0.000102
795 0.000102
796 0.000101
797 0.000098
798 0.000097
799 0.000100
800 0.000104
801 0.000106
802 0.000108
803 0.000109
804 0.000110
805 0.000113
806 0.000117
807 0.000121
808 0.000125
809 0.000127
