# i correlation
1 0.001718
2 0.001666
3 0.001618
4 0.001578
5 0.001544
6 0.001511
7 0.001475
8 0.001445
9 0.001421
10 0.001402
11 0.001390
12 0.001379
13 0.001369
14 0.001349
15 0.001338
16 0.001328
17 0.001323
18 0.001318
19 0.001308
20 0.001304
21 0.001298
22 0.001296
23 0.001290
24 0.001282
25 0.001276
26 0.001272
27 0.001273
28 0.001269
29 0.001264
30 0.001252
31 0.001242
32 0.001229
33 0.001220
34 0.001212
35 0.001205
36 0.001196
37 0.001184
38 0.001179
39 0.001174
40 0.001173
41 0.001170
42 0.001167
43 0.001155
44 0.001151
45 0.001144
46 0.001129
47 0.001116
48 0.001106
49 0.001095
50 0.001083
51 0.001079
52 0.001078
53 0.001078
54 0.001074
55 0.001074
56 0.001070
57 0.001070
58 0.001069
59 0.001062
60 0.001058
61 0.001054
62 0.001051
63 0.001045
64 0.001042
65 0.001036
66 0.001034
67 0.001030
68 0.001026
69 0.001025
70 0.001019
71 0.001011
72 0.001002
73 0.000998
74 0.000991
75 0.000986
76 0.000974
77 0.000967
78 0.000959
79 0.000951
80 0.000949
81 0.000942
82 0.000944
83 0.000945
84 0.000949
85 0.000957
86 0.000966
87 0.000976
88 0.000979
89 0.000976
90 0.000966
91 0.000951
92 0.000934
93 0.000929
94 0.000916
95 0.000909
96 0.000902
97 0.000906
98 0.000907
99 0.000903
100 0.000906
101 0.000902
102 0.000892
103 0.000888
104 0.000886
105 0.000888
106 0.000889
107 0.000887
108 0.000885
109 0.000886
110 0.000884
111 0.000881
112 0.000871
113 0.000866
114 0.000861
115 0.000859
116 0.000859
117 0.000851
118 0.000843
119 0.000832
120 0.000826
121 0.000818
122 0.000814
123 0.000809
124 0.000807
125 0.000806
126 0.000807
127 0.000805
128 0.000806
129 0.000807
130 0.000798
131 0.000797
132 0.000793
133 0.000794
134 0.000792
135 0.000788
136 0.000779
137 0.000773
138 0.000769
139 0.000765
140 0.000761
141 0.000760
142 0.000761
143 0.000762
144 0.000764
145 0.000770
146 0.000781
147 0.000783
148 0.000778
149 0.000775
150 0.000775
151 0.000780
152 0.000776
153 0.000770
154 0.000761
155 0.000750
156 0.000741
157 0.000729
158 0.000722
159 0.000719
160 0.000714
161 0.000705
162 0.000703
163 0.000700
164 0.000698
165 0.000692
166 0.000692
167 0.000690
168 0.000694
169 0.000698
170 0.000703
171 0.000713
172 0.000718
173 0.000728
174 0.000730
175 0.000732
176 0.000731
177 0.000730
178 0.000727
179 0.000723
180 0.000717
181 0.000715
182 0.000710
183 0.000706
184 0.000700
185 0.000701
186 0.000708
187 0.000707
188 0.000704
189 0.000701
190 0.000695
191 0.000690
192 0.000683
193 0.000679
194 0.000672
195 0.000672
196 0.000672
197 0.000666
198 0.000667
199 0.000669
200 0.000672
201 0.000675
202 0.000679
203 0.000686
204 0.000699
205 0.000702
206 0.000703
207 0.000700
208 0.000704
209 0.000701
210 0.000694
211 0.000688
212 0.000674
213 0.000664
214 0.000659
215 0.000656
216 0.000652
217 0.000646
218 0.000635
219 0.000628
220 0.000623
221 0.000621
222 0.000615
223 0.000612
224 0.000605
225 0.000598
226 0.000595
227 0.000588
228 0.000583
229 0.000580
230 0.000576
231 0.000572
232 0.000567
233 0.000563
234 0.000558
235 0.000554
236 0.000551
237 0.000545
238 0.000537
239 0.000531
240 0.000521
241 0.000512
242 0.000506
243 0.000500
244 0.000502
245 0.000502
246 0.000501
247 0.000500
248 0.000505
249 0.000517
250 0.000529
251 0.000544
252 0.000553
253 0.000562
254 0.000567
255 0.000574
256 0.000583
257 0.000591
258 0.000599
259 0.000608
260 0.000616
261 0.000623
262 0.000627
263 0.000627
264 0.000623
265 0.000614
266 0.000610
267 0.000600
268 0.000593
269 0.000584
270 0.000575
271 0.000574
272 0.000573
273 0.000574
274 0.000573
275 0.000571
276 0.000572
277 0.000574
278 0.000575
279 0.000574
280 0.000570
281 0.000568
282 0.000565
283 0.000562
284 0.000560
285 0.000559
286 0.000564
287 0.000567
288 0.000570
289 0.000572
290 0.000572
291 0.000571
292 0.000567
293 0.000565
294 0.000565
295 0.000566
296 0.000563
297 0.000564
298 0.000560
299 0.000554
300 0.000548
301 0.000544
302 0.000543
303 0.000540
304 0.000542
305 0.000539
306 0.000534
307 0.000522
308 0.000514
309 0.000508
310 0.000505
311 0.000501
312 0.000496
313 0.000488
314 0.000481
315 0.000479
316 0.000476
317 0.000476
318 0.000473
319 0.000471
320 0.000470
321 0.000466
322 0.000466
323 0.000463
324 0.000467
325 0.000467
326 0.000466
327 0.000463
328 0.000458
329 0.000454
330 0.000452
331 0.000446
332 0.000439
333 0.000433
334 0.000423
335 0.000416
336 0.000407
337 0.000401
338 0.000396
339 0.000398
340 0.000392
341 0.000389
342 0.000385
343 0.000383
344 0.000383
345 0.000384
346 0.000388
347 0.000387
348 0.000387
349 0.000390
350 0.000393
351 0.000395
352 0.000398
353 0.000398
354 0.000400
355 0.000405
356 0.000407
357 0.000409
358 0.000410
359 0.000411
360 0.000411
361 0.000412
362 0.000410
363 0.000404
364 0.000402
365 0.000396
366 0.000394
367 0.000392
368 0.000388
369 0.000378
370 0.000373
371 0.000369
372 0.000369
373 0.000368
374 0.000370
375 0.000369
376 0.000367
377 0.000369
378 0.000364
379 0.000364
380 0.000357
381 0.000351
382 0.000345
383 0.000339
384 0.000334
385 0.000327
386 0.000319
387 0.000314
388 0.000306
389 0.000297
390 0.000290
391 0.000284
392 0.000284
393 0.000281
394 0.000281
395 0.000281
396 0.000283
397 0.000286
398 0.000287
399 0.000289
400 0.000292
401 0.000294
402 0.000296
403 0.000299
404 0.000299
405 0.000298
406 0.000297
407 0.000298
408 0.000301
409 0.000305
410 0.000309
411 0.000311
412 0.000317
413 0.000320
414 0.000317
415 0.000317
416 0.000313
417 0.000309
418 0.000308
419 0.000303
420 0.000294
421 0.000288
422 0.000279
423 0.000269
424 0.000262
425 0.000253
426 0.000244
427 0.000237
428 0.000236
429 0.000234
430 0.000231
431 0.000233
432 0.000239
433 0.000242
434 0.000247
435 0.000251
436 0.000254
437 0.000261
438 0.000262
439 0.000269
440 0.000275
441 0.000279
442 0.000283
443 0.000281
444 0.000281
445 0.000278
446 0.000277
447 0.000273
448 0.000267
449 0.000260
450 0.000257
451 0.000252
452 0.000247
453 0.000241
454 0.000237
455 0.000234
456 0.000229
457 0.000227
458 0.000228
459 0.000229
460 0.000231
461 0.000237
462 0.000243
463 0.000248
464 0.000255
465 0.000256
466 0.000260
467 0.000266
468 0.000270
469 0.000268
470 0.000273
471 0.000275
472 0.000279
473 0.000283
474 0.000286
475 0.000284
476 0.000283
477 0.000286
478 0.000282
479 0.000280
480 0.000275
481 0.000277
482 0.000279
483 0.000280
484 0.000282
485 0.000281
486 0.000277
487 0.000273
488 0.000270
489 0.000266
490 0.000265
491 0.000259
492 0.000255
493 0.000247
494 0.000241
495 0.000239
496 0.000234
497 0.000236
498 0.000235
499 0.000236
500 0.000234
501 0.000238
502 0.000239
503 0.000241
504 0.000236
505 0.000237
506 0.000237
507 0.000235
508 0.000242
509 0.000239
510 0.000239
511 0.000239
512 0.000245
513 0.000247
514 0.000247
515 0.000242
516 0.000238
517 0.000233
518 0.000231
519 0.000231
520 0.000228
521 0.000227
522 0.000224
523 0.000221
524 0.000221
525 0.000226
526 0.000233
527 0.000236
528 0.000242
529 0.000245
530 0.000249
531 0.000251
532 0.000251
533 0.000252
534 0.000252
535 0.000252
536 0.000249
537 0.000250
538 0.000245
539 0.000246
540 0.000247
541 0.000248
542 0.000245
543 0.000243
544 0.000239
545 0.000237
546 0.000237
547 0.000243
548 0.000246
549 0.000249
550 0.000255
551 0.000252
552 0.000248
553 0.000244
554 0.000239
555 0.000238
556 0.000235
557 0.000228
558 0.000219
559 0.000215
560 0.000214
561 0.000216
562 0.000213
563 0.000210
564 0.000207
565 0.000204
566 0.000202
567 0.000204
568 0.000201
569 0.000197
570 0.000195
571 0.000192
572 0.000192
573 0.000188
574 0.000186
575 0.000185
576 0.000181
577 0.000175
578 0.000176
579 0.000177
580 0.000174
581 0.000171
582 0.000171
583 0.000173
584 0.000172
585 0.000175
586 0.000171
587 0.000169
588 0.000171
589 0.000168
590 0.000168
591 0.000167
592 0.000167
593 0.000161
594 0.000154
595 0.000147
596 0.000143
597 0.000138
598 0.000135
599 0.000128
600 0.000121
601 0.000118
602 0.000116
603 0.000118
604 0.000112
605 0.000107
606 0.000104
607 0.000101
608 0.000101
609 0.000098
610 0.000097
611 0.000096
612 0.000098
613 0.000102
614 0.000107
615 0.000111
616 0.000114
617 0.000122
618 0.000129
619 0.000132
620 0.000135
621 0.000136
622 0.000133
623 0.000133
624 0.000133
625 0.000132
626 0.000131
627 0.000128
628 0.000131
629 0.000131
630 0.000133
631 0.000128
632 0.000120
633 0.000116
634 0.000112
635 0.000110
636 0.000110
637 0.000113
638 0.000113
639 0.000110
640 0.000110
641 0.000112
642 0.000110
643 0.000109
644 0.000102
645 0.000097
646 0.000091
647 0.000092
648 0.000091
649 0.000087
650 0.000086
651 0.000080
652 0.000077
653 0.000076
654 0.000080
655 0.000078
656 0.000076
657 0.000077
658 0.000081
659 0.000085
660 0.000093
661 0.000094
662 0.000096
663 0.000097
664 0.000094
665 0.000093
666 0.000093
667 0.000092
668 0.000090
669 0.000091
670 0.000093
671 0.000096
672 0.000105
673 0.000111
674 0.000113
675 0.000111
676 0.000112
677 0.000109
678 0.000107
679 0.000103
680 0.000096
681 0.000091
682 0.000085
683 0.000079
684 0.000076
685 0.000075
686 0.000075
687 0.000073
688 0.000072
689 0.000071
690 0.000071
691 0.000068
692 0.000065
693 0.000060
694 0.000058
695 0.000056
696 0.000054
697 0.000050
698 0.000052
699 0.000056
700 0.000059
701 0.000063
702 0.000063
703 0.000064
704 0.000066
705 0.000068
706 0.000069
707 0.000071
708 0.000073
709 0.000069
710 0.000065
711 0.000061
712 0.000063
713 0.000065
714 0.000065
715 0.000060
716 0.000060
717 0.000062
718 0.000066
719 0.000066
720 0.000064
721 0.000064
722 0.000065
723 0.000064
724 0.000063
725 0.000063
726 0.000064
727 0.000067
728 0.000070
729 0.000076
730 0.000081
731 0.000083
732 0.000085
733 0.000086
734 0.000090
735 0.000091
736 0.000091
737 0.000091
738 0.000095
739 0.000097
740 0.000099
741 0.000101
742 0.000102
743 0.000099
744 0.000098
745 0.000099
746 0.000098
747 0.000101
748 0.000101
749 0.000100
750 0.000100
751 0.000100
752 0.000101
753 0.000100
754 0.000097
755 0.000093
756 0.000091
757 0.000091
758 0.000089
759 0.000093
760 0.000093
761 0.000095
762 0.000095
763 0.000098
764 0.000100
765 0.000104
766 0.000103
767 0.000104
768 0.000101
769 0.000099
770 0.000097
771 0.000095
772 0.000090
773 0.000085
774 0.000082
775 0.000078
776 0.000078
777 0.000077
778 0.000075
779 0.000073
780 0.000069
781 0.000064
782 0.000059
783 0.000056
784 0.000051
785 0.000046
786 0.000044
787 0.000045
788 0.000047
789 0.000050
790 0.000049
791 0.000048
792 0.000048
793 0.000049
794 0.000050
795 0.000050
796 0.000051
797 0.000050
798 0.000047
799 0.000050
800 0.000053
801 0.000058
802 0.000058
803 0.000058
804 0.000053
805 0.000051
806 0.000053
807 0.000054
808 0.000052
809 0.000051
