# i correlation
1 0.001856
2 0.001805
3 0.001760
4 0.001722
5 0.001687
6 0.001657
7 0.001631
8 0.001609
9 0.001587
10 0.001567
11 0.001546
12 0.001534
13 0.001520
14 0.001507
15 0.001490
16 0.001476
17 0.001462
18 0.001447
19 0.001438
20 0.001430
21 0.001421
22 0.001416
23 0.001412
24 0.001404
25 0.001395
26 0.001390
27 0.001387
28 0.001381
29 0.001374
30 0.001363
31 0.001351
32 0.001344
33 0.001334
34 0.001327
35 0.001318
36 0.001311
37 0.001304
38 0.001300
39 0.001293
40 0.001286
41 0.001274
42 0.001264
43 0.001254
44 0.001245
45 0.001234
46 0.001227
47 0.001215
48 0.001207
49 0.001199
50 0.001186
51 0.001178
52 0.001168
53 0.001160
54 0.001149
55 0.001133
56 0.001121
57 0.001109
58 0.001096
59 0.001082
60 0.001074
61 0.001067
62 0.001063
63 0.001054
64 0.001047
65 0.001040
66 0.001037
67 0.001035
68 0.001037
69 0.001038
70 0.001037
71 0.001035
72 0.001035
73 0.001035
74 0.001036
75 0.001033
76 0.001034
77 0.001028
78 0.001027
79 0.001025
80 0.001024
81 0.001033
82 0.001037
83 0.001033
84 0.001034
85 0.001038
86 0.001038
87 0.001037
88 0.001035
89 0.001031
90 0.001023
91 0.001019
92 0.001012
93 0.001004
94 0.001000
95 0.000999
96 0.000998
97 0.000996
98 0.000999
99 0.001000
100 0.001003
101 0.001005
102 0.001007
103 0.001007
104 0.001006
105 0.001003
106 0.000999
107 0.000992
108 0.000988
109 0.000983
110 0.000980
111 0.000975
112 0.000968
113 0.000963
114 0.000961
115 0.000962
116 0.000958
117 0.000949
118 0.000940
119 0.000933
120 0.000926
121 0.000919
122 0.000917
123 0.000916
124 0.000915
125 0.000916
126 0.000917
127 0.000922
128 0.000923
129 0.000923
130 0.000925
131 0.000928
132 0.000928
133 0.000931
134 0.000938
135 0.000943
136 0.000945
137 0.000949
138 0.000949
139 0.000948
140 0.000948
141 0.000945
142 0.000942
143 0.000943
144 0.000940
145 0.000930
146 0.000921
147 0.000916
148 0.000915
149 0.000915
150 0.000917
151 0.000915
152 0.000917
153 0.000918
154 0.000921
155 0.000930
156 0.000939
157 0.000942
158 0.000942
159 0.000937
160 0.000933
161 0.000925
162 0.000921
163 0.000924
164 0.000924
165 0.000924
166 0.000917
167 0.000912
168 0.000910
169 0.000911
170 0.000911
171 0.000910
172 0.000912
173 0.000911
174 0.000911
175 0.000908
176 0.000911
177 0.000917
178 0.000916
179 0.000917
180 0.000914
181 0.000912
182 0.000912
183 0.000917
184 0.000926
185 0.000933
186 0.000934
187 0.000938
188 0.000940
189 0.000943
190 0.000948
191 0.000952
192 0.000955
193 0.000961
194 0.000962
195 0.000966
196 0.000969
197 0.000978
198 0.000981
199 0.000985
200 0.000985
201 0.000983
202 0.000974
203 0.000966
204 0.000959
205 0.000954
206 0.000951
207 0.000947
208 0.000944
209 0.000943
210 0.000939
211 0.000939
212 0.000937
213 0.000935
214 0.000930
215 0.000924
216 0.000915
217 0.000905
218 0.000899
219 0.000896
220 0.000892
221 0.000889
222 0.000889
223 0.000886
224 0.000883
225 0.000890
226 0.000890
227 0.000888
228 0.000887
229 0.000885
230 0.000879
231 0.000878
232 0.000874
233 0.000871
234 0.000867
235 0.000860
236 0.000855
237 0.000858
238 0.000858
239 0.000860
240 0.000853
241 0.000850
242 0.000845
243 0.000837
244 0.000828
245 0.000823
246 0.000819
247 0.000810
248 0.000805
249 0.000805
250 0.000808
251 0.000814
252 0.000813
253 0.000812
254 0.000810
255 0.000805
256 0.000798
257 0.000790
258 0.000785
259 0.000780
260 0.000776
261 0.000771
262 0.000766
263 0.000761
264 0.000755
265 0.000752
266 0.000751
267 0.000750
268 0.000746
269 0.000746
270 0.000742
271 0.000744
272 0.000740
273 0.000738
274 0.000737
275 0.000734
276 0.000729
277 0.000726
278 0.000722
279 0.000723
280 0.000724
281 0.000726
282 0.000728
283 0.000729
284 0.000728
285 0.000726
286 0.000729
287 0.000732
288 0.000740
289 0.000742
290 0.000746
291 0.000748
292 0.000744
293 0.000738
294 0.000736
295 0.000733
296 0.000736
297 0.000739
298 0.000742
299 0.000746
300 0.000750
301 0.000752
302 0.000751
303 0.000750
304 0.000748
305 0.000744
306 0.000744
307 0.000749
308 0.000748
309 0.000742
310 0.000737
311 0.000733
312 0.000727
313 0.000723
314 0.000722
315 0.000718
316 0.000711
317 0.000702
318 0.000697
319 0.000692
320 0.000692
321 0.000686
322 0.000679
323 0.000672
324 0.000667
325 0.000663
326 0.000658
327 0.000654
328 0.000655
329 0.000651
330 0.000651
331 0.000648
332 0.000650
333 0.000656
334 0.000662
335 0.000670
336 0.000675
337 0.000682
338 0.000684
339 0.000688
340 0.000691
341 0.000694
342 0.000700
343 0.000701
344 0.000694
345 0.000689
346 0.000685
347 0.000682
348 0.000677
349 0.000670
350 0.000666
351 0.000661
352 0.000658
353 0.000652
354 0.000647
355 0.000644
356 0.000645
357 0.000638
358 0.000630
359 0.000618
360 0.000608
361 0.000597
362 0.000591
363 0.000583
364 0.000579
365 0.000578
366 0.000575
367 0.000570
368 0.000566
369 0.000564
370 0.000561
371 0.000557
372 0.000552
373 0.000551
374 0.000549
375 0.000547
376 0.000545
377 0.000546
378 0.000549
379 0.000551
380 0.000551
381 0.000551
382 0.000553
383 0.000556
384 0.000554
385 0.000556
386 0.000555
387 0.000553
388 0.000555
389 0.000558
390 0.000560
391 0.000558
392 0.000561
393 0.000563
394 0.000565
395 0.000564
396 0.000567
397 0.000566
398 0.000565
399 0.000562
400 0.000556
401 0.000550
402 0.000549
403 0.000543
404 0.000540
405 0.000542
406 0.000545
407 0.000547
408 0.000554
409 0.000563
410 0.000571
411 0.000576
412 0.000577
413 0.000576
414 0.000576
415 0.000572
416 0.000570
417 0.000566
418 0.000564
419 0.000564
420 0.000562
421 0.000560
422 0.000562
423 0.000564
424 0.000564
425 0.000559
426 0.000554
427 0.000547
428 0.000540
429 0.000532
430 0.000524
431 0.000521
432 0.000519
433 0.000515
434 0.000514
435 0.000506
436 0.000505
437 0.000502
438 0.000505
439 0.000508
440 0.000511
441 0.000513
442 0.000507
443 0.000503
444 0.000499
445 0.000494
446 0.000492
447 0.000491
448 0.000493
449 0.000492
450 0.000496
451 0.000499
452 0.000499
453 0.000497
454 0.000495
455 0.000492
456 0.000486
457 0.000480
458 0.000472
459 0.000463
460 0.000458
461 0.000454
462 0.000454
463 0.000452
464 0.000447
465 0.000439
466 0.000432
467 0.000427
468 0.000419
469 0.000409
470 0.000403
471 0.000400
472 0.000395
473 0.000389
474 0.000384
475 0.000384
476 0.000386
477 0.000387
478 0.000391
479 0.000388
480 0.000387
481 0.000385
482 0.000385
483 0.000390
484 0.000393
485 0.000396
486 0.000399
487 0.000403
488 0.000403
489 0.000405
490 0.000409
491 0.000413
492 0.000419
493 0.000421
494 0.000426
495 0.000431
496 0.000432
497 0.000434
498 0.000434
499 0.000432
500 0.000433
501 0.000434
502 0.000429
503 0.000422
504 0.000419
505 0.000419
506 0.000416
507 0.000413
508 0.000411
509 0.000410
510 0.000414
511 0.000418
512 0.000422
513 0.000428
514 0.000432
515 0.000435
516 0.000437
517 0.000439
518 0.000436
519 0.000435
520 0.000438
521 0.000440
522 0.000441
523 0.000441
524 0.000440
525 0.000443
526 0.000445
527 0.000451
528 0.000451
529 0.000456
530 0.000462
531 0.000465
532 0.000468
533 0.000473
534 0.000474
535 0.000476
536 0.000479
537 0.000480
538 0.000479
539 0.000485
540 0.000494
541 0.000500
542 0.000506
543 0.000507
544 0.000507
545 0.000505
546 0.000507
547 0.000511
548 0.000518
549 0.000524
550 0.000525
551 0.000527
552 0.000528
553 0.000532
554 0.000531
555 0.000528
556 0.000524
557 0.000523
558 0.000521
559 0.000521
560 0.000518
561 0.000516
562 0.000514
563 0.000513
564 0.000511
565 0.000511
566 0.000513
567 0.000514
568 0.000515
569 0.000512
570 0.000511
571 0.000510
572 0.000507
573 0.000508
574 0.000508
575 0.000508
576 0.000511
577 0.000514
578 0.000516
579 0.000517
580 0.000516
581 0.000515
582 0.000512
583 0.000507
584 0.000504
585 0.000498
586 0.000493
587 0.000493
588 0.000492
589 0.000494
590 0.000492
591 0.000493
592 0.000491
593 0.000492
594 0.000492
595 0.000494
596 0.000496
597 0.000500
598 0.000503
599 0.000505
600 0.000505
601 0.000506
602 0.000505
603 0.000503
604 0.000498
605 0.000497
606 0.000494
607 0.000490
608 0.000489
609 0.000485
610 0.000486
611 0.000490
612 0.000490
613 0.000489
614 0.000485
615 0.000484
616 0.000481
617 0.000480
618 0.000480
619 0.000477
620 0.000478
621 0.000480
622 0.000483
623 0.000484
624 0.000488
625 0.000491
626 0.000491
627 0.000493
628 0.000490
629 0.000487
630 0.000482
631 0.000479
632 0.000474
633 0.000467
634 0.000461
635 0.000456
636 0.000448
637 0.000440
638 0.000433
639 0.000426
640 0.000418
641 0.000411
642 0.000405
643 0.000398
644 0.000395
645 0.000391
646 0.000388
647 0.000390
648 0.000391
649 0.000393
650 0.000396
651 0.000398
652 0.000400
653 0.000400
654 0.000400
655 0.000396
656 0.000391
657 0.000383
658 0.000373
659 0.000365
660 0.000358
661 0.000352
662 0.000346
663 0.000341
664 0.000333
665 0.000327
666 0.000319
667 0.000310
668 0.000299
669 0.000293
670 0.000288
671 0.000285
672 0.000278
673 0.000273
674 0.000266
675 0.000264
676 0.000263
677 0.000264
678 0.000261
679 0.000258
680 0.000254
681 0.000251
682 0.000250
683 0.000251
684 0.000252
685 0.000252
686 0.000250
687 0.000246
688 0.000242
689 0.000241
690 0.000240
691 0.000239
692 0.000239
693 0.000242
694 0.000244
695 0.000243
696 0.000243
697 0.000244
698 0.000246
699 0.000247
700 0.000250
701 0.000250
702 0.000249
703 0.000249
704 0.000250
705 0.000254
706 0.000257
707 0.000256
708 0.000256
709 0.000255
710 0.000256
711 0.000257
712 0.000260
713 0.000264
714 0.000268
715 0.000271
716 0.000272
717 0.000271
718 0.000267
719 0.000257
720 0.000251
721 0.000246
722 0.000241
723 0.000239
724 0.000239
725 0.000238
726 0.000239
727 0.000238
728 0.000236
729 0.000236
730 0.000238
731 0.000241
732 0.000245
733 0.000248
734 0.000249
735 0.000251
736 0.000250
737 0.000250
738 0.000253
739 0.000259
740 0.000264
741 0.000267
742 0.000271
743 0.000273
744 0.000274
745 0.000273
746 0.000270
747 0.000269
748 0.000269
749 0.000268
750 0.000268
751 0.000269
752 0.000272
753 0.000272
754 0.000274
755 0.000275
756 0.000276
757 0.000276
758 0.000275
759 0.000270
760 0.000264
761 0.000261
762 0.000260
763 0.000258
764 0.000256
765 0.000253
766 0.000250
767 0.000246
768 0.000241
769 0.000235
770 0.000226
771 0.000220
772 0.000210
773 0.000200
774 0.000193
775 0.000188
776 0.000184
777 0.000180
778 0.000178
779 0.000176
780 0.000174
781 0.000175
782 0.000176
783 0.000178
784 0.000180
785 0.000183
786 0.000187
787 0.000191
788 0.000194
789 0.000194
790 0.000194
791 0.000192
792 0.000192
793 0.000187
794 0.000184
795 0.000180
796 0.000176
797 0.000174
798 0.000171
799 0.000170
800 0.000168
801 0.000167
802 0.000168
803 0.000168
804 0.000168
805 0.000167
806 0.000166
807 0.000164
808 0.000162
809 0.000159
