# i correlation
1 0.001573
2 0.001525
3 0.001484
4 0.001452
5 0.001425
6 0.001400
7 0.001378
8 0.001354
9 0.001340
10 0.001333
11 0.001322
12 0.001308
13 0.001296
14 0.001283
15 0.001272
16 0.001256
17 0.001243
18 0.001227
19 0.001219
20 0.001207
21 0.001201
22 0.001192
23 0.001181
24 0.001174
25 0.001172
26 0.001171
27 0.001168
28 0.001162
29 0.001155
30 0.001147
31 0.001136
32 0.001131
33 0.001126
34 0.001119
35 0.001112
36 0.001106
37 0.001103
38 0.001095
39 0.001087
40 0.001084
41 0.001078
42 0.001072
43 0.001065
44 0.001058
45 0.001055
46 0.001046
47 0.001043
48 0.001040
49 0.001034
50 0.001033
51 0.001035
52 0.001036
53 0.001035
54 0.001036
55 0.001034
56 0.001029
57 0.001023
58 0.001022
59 0.001017
60 0.001016
61 0.001020
62 0.001021
63 0.001018
64 0.001019
65 0.001018
66 0.001023
67 0.001023
68 0.001016
69 0.001004
70 0.000996
71 0.000991
72 0.000986
73 0.000981
74 0.000977
75 0.000966
76 0.000956
77 0.000953
78 0.000944
79 0.000936
80 0.000930
81 0.000918
82 0.000906
83 0.000895
84 0.000887
85 0.000880
86 0.000875
87 0.000871
88 0.000869
89 0.000865
90 0.000868
91 0.000866
92 0.000865
93 0.000865
94 0.000865
95 0.000860
96 0.000856
97 0.000856
98 0.000856
99 0.000860
100 0.000861
101 0.000859
102 0.000858
103 0.000859
104 0.000861
105 0.000857
106 0.000852
107 0.000851
108 0.000851
109 0.000850
110 0.000846
111 0.000841
112 0.000839
113 0.000837
114 0.000839
115 0.000837
116 0.000831
117 0.000827
118 0.000826
119 0.000826
120 0.000825
121 0.000826
122 0.000825
123 0.000819
124 0.000818
125 0.000817
126 0.000813
127 0.000808
128 0.000802
129 0.000795
130 0.000785
131 0.000778
132 0.000774
133 0.000766
134 0.000757
135 0.000750
136 0.000744
137 0.000740
138 0.000740
139 0.000740
140 0.000745
141 0.000747
142 0.000748
143 0.000740
144 0.000738
145 0.000737
146 0.000736
147 0.000731
148 0.000730
149 0.000724
150 0.000717
151 0.000718
152 0.000719
153 0.000718
154 0.000715
155 0.000711
156 0.000703
157 0.000700
158 0.000696
159 0.000692
160 0.000691
161 0.000690
162 0.000683
163 0.000677
164 0.000666
165 0.000661
166 0.000662
167 0.000665
168 0.000662
169 0.000657
170 0.000654
171 0.000652
172 0.000650
173 0.000648
174 0.000650
175 0.000650
176 0.000648
177 0.000644
178 0.000642
179 0.000640
180 0.000639
181 0.000637
182 0.000638
183 0.000632
184 0.000629
185 0.000627
186 0.000628
187 0.000635
188 0.000641
189 0.000648
190 0.000652
191 0.000652
192 0.000656
193 0.000657
194 0.000664
195 0.000668
196 0.000670
197 0.000673
198 0.000679
199 0.000679
200 0.000675
201 0.000672
202 0.000670
203 0.000668
204 0.000668
205 0.000663
206 0.000659
207 0.000660
208 0.000662
209 0.000665
210 0.000663
211 0.000663
212 0.000660
213 0.000659
214 0.000654
215 0.000650
216 0.000647
217 0.000643
218 0.000641
219 0.000641
220 0.000636
221 0.000631
222 0.000623
223 0.000617
224 0.000609
225 0.000608
226 0.000606
227 0.000603
228 0.000604
229 0.000603
230 0.000600
231 0.000595
232 0.000596
233 0.000591
234 0.000582
235 0.000578
236 0.000574
237 0.000570
238 0.000569
239 0.000565
240 0.000564
241 0.000563
242 0.000565
243 0.000560
244 0.000555
245 0.000552
246 0.000549
247 0.000545
248 0.000540
249 0.000533
250 0.000523
251 0.000517
252 0.000514
253 0.000513
254 0.000513
255 0.000514
256 0.000514
257 0.000514
258 0.000511
259 0.000508
260 0.000506
261 0.000504
262 0.000504
263 0.000503
264 0.000508
265 0.000521
266 0.000529
267 0.000533
268 0.000538
269 0.000542
270 0.000544
271 0.000538
272 0.000534
273 0.000530
274 0.000532
275 0.000534
276 0.000532
277 0.000530
278 0.000530
279 0.000529
280 0.000528
281 0.000526
282 0.000530
283 0.000533
284 0.000531
285 0.000528
286 0.000523
287 0.000520
288 0.000514
289 0.000514
290 0.000516
291 0.000513
292 0.000513
293 0.000520
294 0.000529
295 0.000535
296 0.000536
297 0.000537
298 0.000540
299 0.000543
300 0.000544
301 0.000541
302 0.000539
303 0.000539
304 0.000535
305 0.000531
306 0.000527
307 0.000523
308 0.000527
309 0.000534
310 0.000541
311 0.000543
312 0.000546
313 0.000548
314 0.000550
315 0.000550
316 0.000545
317 0.000536
318 0.000528
319 0.000525
320 0.000523
321 0.000521
322 0.000520
323 0.000516
324 0.000511
325 0.000503
326 0.000497
327 0.000491
328 0.000485
329 0.000483
330 0.000481
331 0.000476
332 0.000472
333 0.000469
334 0.000470
335 0.000474
336 0.000481
337 0.000484
338 0.000488
339 0.000490
340 0.000496
341 0.000498
342 0.000501
343 0.000502
344 0.000501
345 0.000505
346 0.000505
347 0.000500
348 0.000496
349 0.000498
350 0.000502
351 0.000504
352 0.000498
353 0.000493
354 0.000486
355 0.000482
356 0.000482
357 0.000480
358 0.000470
359 0.000462
360 0.000456
361 0.000450
362 0.000442
363 0.000435
364 0.000437
365 0.000436
366 0.000438
367 0.000437
368 0.000435
369 0.000431
370 0.000436
371 0.000436
372 0.000438
373 0.000438
374 0.000435
375 0.000427
376 0.000421
377 0.000420
378 0.000419
379 0.000417
380 0.000413
381 0.000406
382 0.000404
383 0.000403
384 0.000409
385 0.000410
386 0.000415
387 0.000421
388 0.000424
389 0.000428
390 0.000428
391 0.000431
392 0.000428
393 0.000428
394 0.000431
395 0.000428
396 0.000430
397 0.000434
398 0.000437
399 0.000441
400 0.000444
401 0.000448
402 0.000452
403 0.000458
404 0.000465
405 0.000470
406 0.000473
407 0.000478
408 0.000483
409 0.000489
410 0.000490
411 0.000490
412 0.000489
413 0.000488
414 0.000491
415 0.000495
416 0.000501
417 0.000507
418 0.000512
419 0.000514
420 0.000511
421 0.000505
422 0.000503
423 0.000498
424 0.000493
425 0.000487
426 0.000484
427 0.000484
428 0.000485
429 0.000480
430 0.000479
431 0.000478
432 0.000476
433 0.000473
434 0.000471
435 0.000467
436 0.000465
437 0.000467
438 0.000463
439 0.000461
440 0.000460
441 0.000461
442 0.000460
443 0.000458
444 0.000458
445 0.000457
446 0.000453
447 0.000448
448 0.000441
449 0.000436
450 0.000435
451 0.000432
452 0.000428
453 0.000426
454 0.000425
455 0.000430
456 0.000436
457 0.000443
458 0.000448
459 0.000452
460 0.000455
461 0.000457
462 0.000457
463 0.000458
464 0.000462
465 0.000461
466 0.000459
467 0.000458
468 0.000457
469 0.000456
470 0.000457
471 0.000461
472 0.000459
473 0.000454
474 0.000450
475 0.000447
476 0.000445
477 0.000444
478 0.000441
479 0.000433
480 0.000426
481 0.000421
482 0.000419
483 0.000417
484 0.000416
485 0.000412
486 0.000407
487 0.000404
488 0.000402
489 0.000401
490 0.000400
491 0.000400
492 0.000398
493 0.000401
494 0.000402
495 0.000401
496 0.000398
497 0.000399
498 0.000404
499 0.000405
500 0.000399
501 0.000395
502 0.000392
503 0.000390
504 0.000386
505 0.000381
506 0.000374
507 0.000366
508 0.000371
509 0.000372
510 0.000377
511 0.000381
512 0.000384
513 0.000385
514 0.000384
515 0.000379
516 0.000373
517 0.000367
518 0.000365
519 0.000364
520 0.000361
521 0.000356
522 0.000354
523 0.000352
524 0.000352
525 0.000356
526 0.000356
527 0.000357
528 0.000355
529 0.000354
530 0.000357
531 0.000363
532 0.000369
533 0.000371
534 0.000367
535 0.000370
536 0.000374
537 0.000377
538 0.000383
539 0.000386
540 0.000389
541 0.000387
542 0.000381
543 0.000376
544 0.000373
545 0.000369
546 0.000365
547 0.000363
548 0.000360
549 0.000356
550 0.000353
551 0.000354
552 0.000353
553 0.000352
554 0.000352
555 0.000350
556 0.000346
557 0.000344
558 0.000339
559 0.000337
560 0.000334
561 0.000333
562 0.000333
563 0.000330
564 0.000331
565 0.000330
566 0.000328
567 0.000322
568 0.000320
569 0.000316
570 0.000313
571 0.000305
572 0.000299
573 0.000293
574 0.000284
575 0.000278
576 0.000276
577 0.000275
578 0.000274
579 0.000273
580 0.000270
581 0.000267
582 0.000260
583 0.000260
584 0.000256
585 0.000255
586 0.000253
587 0.000251
588 0.000248
589 0.000246
590 0.000239
591 0.000235
592 0.000231
593 0.000229
594 0.000222
595 0.000216
596 0.000212
597 0.000208
598 0.000209
599 0.000212
600 0.000212
601 0.000208
602 0.000209
603 0.000213
604 0.000220
605 0.000227
606 0.000230
607 0.000231
608 0.000231
609 0.000232
610 0.000235
611 0.000238
612 0.000244
613 0.000251
614 0.000256
615 0.000261
616 0.000266
617 0.000272
618 0.000273
619 0.000274
620 0.000273
621 0.000270
622 0.000267
623 0.000262
624 0.000259
625 0.000259
626 0.000256
627 0.000246
628 0.000241
629 0.000238
630 0.000235
631 0.000236
632 0.000235
633 0.000230
634 0.000227
635 0.000227
636 0.000224
637 0.000219
638 0.000217
639 0.000216
640 0.000217
641 0.000218
642 0.000216
643 0.000214
644 0.000214
645 0.000214
646 0.000211
647 0.000211
648 0.000208
649 0.000206
650 0.000206
651 0.000206
652 0.000205
653 0.000203
654 0.000204
655 0.000203
656 0.000201
657 0.000197
658 0.000191
659 0.000188
660 0.000184
661 0.000178
662 0.000175
663 0.000173
664 0.000172
665 0.000176
666 0.000180
667 0.000181
668 0.000180
669 0.000181
670 0.000179
671 0.000177
672 0.000173
673 0.000168
674 0.000161
675 0.000158
676 0.000156
677 0.000154
678 0.000150
679 0.000150
680 0.000151
681 0.000152
682 0.000153
683 0.000153
684 0.000153
685 0.000155
686 0.000157
687 0.000158
688 0.000156
689 0.000154
690 0.000150
691 0.000146
692 0.000147
693 0.000142
694 0.000137
695 0.000133
696 0.000131
697 0.000130
698 0.000127
699 0.000128
700 0.000127
701 0.000124
702 0.000126
703 0.000125
704 0.000124
705 0.000122
706 0.000124
707 0.000129
708 0.000131
709 0.000132
710 0.000134
711 0.000135
712 0.000138
713 0.000143
714 0.000147
715 0.000150
716 0.000151
717 0.000151
718 0.000153
719 0.000153
720 0.000152
721 0.000153
722 0.000154
723 0.000154
724 0.000157
725 0.000159
726 0.000161
727 0.000162
728 0.000164
729 0.000168
730 0.000170
731 0.000174
732 0.000174
733 0.000177
734 0.000174
735 0.000170
736 0.000166
737 0.000163
738 0.000160
739 0.000161
740 0.000165
741 0.000168
742 0.000171
743 0.000176
744 0.000183
745 0.000186
746 0.000188
747 0.000189
748 0.000186
749 0.000182
750 0.000181
751 0.000180
752 0.000177
753 0.000177
754 0.000179
755 0.000181
756 0.000180
757 0.000182
758 0.000184
759 0.000186
760 0.000186
761 0.000186
762 0.000183
763 0.000179
764 0.000177
765 0.000180
766 0.000182
767 0.000182
768 0.000183
769 0.000183
770 0.000182
771 0.000181
772 0.000180
773 0.000182
774 0.000181
775 0.000180
776 0.000182
777 0.000184
778 0.000184
779 0.000186
780 0.000188
781 0.000189
782 0.000188
783 0.000185
784 0.000184
785 0.000181
786 0.000176
787 0.000176
788 0.000173
789 0.000169
790 0.000165
791 0.000163
792 0.000160
793 0.000158
794 0.000154
795 0.000153
796 0.000151
797 0.000149
798 0.000149
799 0.000145
800 0.000137
801 0.000131
802 0.000123
803 0.000115
804 0.000110
805 0.000110
806 0.000111
807 0.000115
808 0.000119
809 0.000120
