# i correlation
1 0.001831
2 0.001775
3 0.001729
4 0.001690
5 0.001665
6 0.001641
7 0.001623
8 0.001600
9 0.001578
10 0.001553
11 0.001528
12 0.001503
13 0.001481
14 0.001463
15 0.001449
16 0.001436
17 0.001420
18 0.001403
19 0.001393
20 0.001384
21 0.001375
22 0.001370
23 0.001368
24 0.001366
25 0.001359
26 0.001350
27 0.001339
28 0.001327
29 0.001312
30 0.001295
31 0.001285
32 0.001278
33 0.001277
34 0.001270
35 0.001260
36 0.001251
37 0.001237
38 0.001233
39 0.001234
40 0.001228
41 0.001221
42 0.001210
43 0.001194
44 0.001177
45 0.001167
46 0.001163
47 0.001160
48 0.001155
49 0.001154
50 0.001152
51 0.001153
52 0.001156
53 0.001151
54 0.001145
55 0.001140
56 0.001131
57 0.001128
58 0.001119
59 0.001115
60 0.001113
61 0.001114
62 0.001117
63 0.001119
64 0.001119
65 0.001116
66 0.001111
67 0.001103
68 0.001100
69 0.001098
70 0.001098
71 0.001100
72 0.001102
73 0.001101
74 0.001095
75 0.001087
76 0.001077
77 0.001065
78 0.001055
79 0.001045
80 0.001039
81 0.001028
82 0.001016
83 0.001003
84 0.000996
85 0.000991
86 0.000987
87 0.000987
88 0.000988
89 0.000985
90 0.000980
91 0.000978
92 0.000978
93 0.000979
94 0.000982
95 0.000981
96 0.000974
97 0.000966
98 0.000959
99 0.000951
100 0.000944
101 0.000939
102 0.000939
103 0.000940
104 0.000944
105 0.000943
106 0.000940
107 0.000933
108 0.000928
109 0.000924
110 0.000917
111 0.000918
112 0.000917
113 0.000917
114 0.000915
115 0.000912
116 0.000907
117 0.000901
118 0.000903
119 0.000902
120 0.000900
121 0.000897
122 0.000891
123 0.000883
124 0.000873
125 0.000869
126 0.000868
127 0.000873
128 0.000873
129 0.000872
130 0.000868
131 0.000862
132 0.000857
133 0.000852
134 0.000850
135 0.000844
136 0.000835
137 0.000828
138 0.000822
139 0.000815
140 0.000811
141 0.000813
142 0.000815
143 0.000818
144 0.000823
145 0.000823
146 0.000825
147 0.000830
148 0.000831
149 0.000829
150 0.000826
151 0.000820
152 0.000816
153 0.000814
154 0.000811
155 0.000809
156 0.000810
157 0.000810
158 0.000807
159 0.000804
160 0.000802
161 0.000806
162 0.000809
163 0.000809
164 0.000812
165 0.000815
166 0.000817
167 0.000821
168 0.000827
169 0.000832
170 0.000835
171 0.000832
172 0.000835
173 0.000838
174 0.000843
175 0.000849
176 0.000853
177 0.000855
178 0.000850
179 0.000843
180 0.000838
181 0.000835
182 0.000838
183 0.000844
184 0.000851
185 0.000852
186 0.000846
187 0.000837
188 0.000822
189 0.000817
190 0.000813
191 0.000808
192 0.000804
193 0.000802
194 0.000800
195 0.000798
196 0.000795
197 0.000791
198 0.000787
199 0.000783
200 0.000782
201 0.000781
202 0.000781
203 0.000783
204 0.000778
205 0.000773
206 0.000771
207 0.000768
208 0.000769
209 0.000767
210 0.000763
211 0.000759
212 0.000755
213 0.000752
214 0.000749
215 0.000744
216 0.000744
217 0.000747
218 0.000751
219 0.000754
220 0.000753
221 0.000754
222 0.000757
223 0.000757
224 0.000757
225 0.000758
226 0.000758
227 0.000755
228 0.000744
229 0.000732
230 0.000720
231 0.000704
232 0.000689
233 0.000678
234 0.000672
235 0.000670
236 0.000673
237 0.000675
238 0.000672
239 0.000665
240 0.000658
241 0.000656
242 0.000658
243 0.000658
244 0.000658
245 0.000663
246 0.000668
247 0.000674
248 0.000673
249 0.000671
250 0.000669
251 0.000659
252 0.000654
253 0.000653
254 0.000650
255 0.000649
256 0.000648
257 0.000646
258 0.000640
259 0.000641
260 0.000640
261 0.000640
262 0.000641
263 0.000637
264 0.000632
265 0.000626
266 0.000621
267 0.000613
268 0.000611
269 0.000614
270 0.000616
271 0.000619
272 0.000620
273 0.000617
274 0.000611
275 0.000607
276 0.000609
277 0.000610
278 0.000610
279 0.000608
280 0.000602
281 0.000600
282 0.000592
283 0.000587
284 0.000583
285 0.000577
286 0.000575
287 0.000576
288 0.000581
289 0.000580
290 0.000574
291 0.000572
292 0.000569
293 0.000563
294 0.000560
295 0.000558
296 0.000558
297 0.000558
298 0.000558
299 0.000554
300 0.000552
301 0.000548
302 0.000542
303 0.000534
304 0.000524
305 0.000517
306 0.000504
307 0.000496
308 0.000490
309 0.000486
310 0.000488
311 0.000487
312 0.000485
313 0.000479
314 0.000475
315 0.000474
316 0.000475
317 0.000475
318 0.000474
319 0.000476
320 0.000478
321 0.000476
322 0.000474
323 0.000471
324 0.000466
325 0.000463
326 0.000460
327 0.000459
328 0.000451
329 0.000447
330 0.000447
331 0.000447
332 0.000445
333 0.000442
334 0.000442
335 0.000438
336 0.000434
337 0.000431
338 0.000426
339 0.000422
340 0.000422
341 0.000424
342 0.000422
343 0.000418
344 0.000411
345 0.000403
346 0.000397
347 0.000391
348 0.000388
349 0.000390
350 0.000387
351 0.000387
352 0.000387
353 0.000384
354 0.000383
355 0.000380
356 0.000380
357 0.000379
358 0.000380
359 0.000378
360 0.000372
361 0.000367
362 0.000363
363 0.000364
364 0.000363
365 0.000368
366 0.000374
367 0.000376
368 0.000382
369 0.000385
370 0.000387
371 0.000390
372 0.000393
373 0.000399
374 0.000405
375 0.000410
376 0.000414
377 0.000412
378 0.000411
379 0.000409
380 0.000409
381 0.000409
382 0.000411
383 0.000415
384 0.000415
385 0.000409
386 0.000406
387 0.000406
388 0.000404
389 0.000407
390 0.000409
391 0.000414
392 0.000425
393 0.000431
394 0.000436
395 0.000435
396 0.000432
397 0.000430
398 0.000428
399 0.000425
400 0.000423
401 0.000419
402 0.000413
403 0.000411
404 0.000409
405 0.000406
406 0.000405
407 0.000402
408 0.000397
409 0.000390
410 0.000381
411 0.000375
412 0.000368
413 0.000361
414 0.000357
415 0.000350
416 0.000343
417 0.000337
418 0.000335
419 0.000333
420 0.000335
421 0.000335
422 0.000337
423 0.000339
424 0.000340
425 0.000343
426 0.000344
427 0.000346
428 0.000350
429 0.000357
430 0.000360
431 0.000364
432 0.000364
433 0.000363
434 0.000362
435 0.000359
436 0.000355
437 0.000349
438 0.000349
439 0.000350
440 0.000348
441 0.000348
442 0.000344
443 0.000338
444 0.000333
445 0.000331
446 0.000332
447 0.000337
448 0.000340
449 0.000338
450 0.000335
451 0.000330
452 0.000327
453 0.000330
454 0.000331
455 0.000330
456 0.000329
457 0.000326
458 0.000326
459 0.000324
460 0.000323
461 0.000323
462 0.000326
463 0.000330
464 0.000337
465 0.000340
466 0.000337
467 0.000337
468 0.000336
469 0.000333
470 0.000329
471 0.000326
472 0.000325
473 0.000323
474 0.000322
475 0.000318
476 0.000312
477 0.000308
478 0.000301
479 0.000300
480 0.000299
481 0.000299
482 0.000297
483 0.000297
484 0.000302
485 0.000304
486 0.000309
487 0.000313
488 0.000313
489 0.000312
490 0.000313
491 0.000314
492 0.000316
493 0.000320
494 0.000322
495 0.000324
496 0.000326
497 0.000330
498 0.000336
499 0.000343
500 0.000349
501 0.000353
502 0.000355
503 0.000360
504 0.000364
505 0.000368
506 0.000370
507 0.000372
508 0.000370
509 0.000368
510 0.000372
511 0.000373
512 0.000373
513 0.000379
514 0.000383
515 0.000385
516 0.000386
517 0.000383
518 0.000381
519 0.000378
520 0.000375
521 0.000371
522 0.000367
523 0.000362
524 0.000360
525 0.000361
526 0.000366
527 0.000368
528 0.000369
529 0.000366
530 0.000355
531 0.000344
532 0.000335
533 0.000332
534 0.000328
535 0.000325
536 0.000322
537 0.000319
538 0.000318
539 0.000314
540 0.000315
541 0.000315
542 0.000316
543 0.000316
544 0.000314
545 0.000312
546 0.000307
547 0.000304
548 0.000304
549 0.000305
550 0.000308
551 0.000311
552 0.000316
553 0.000317
554 0.000315
555 0.000312
556 0.000311
557 0.000312
558 0.000311
559 0.000311
560 0.000309
561 0.000306
562 0.000302
563 0.000294
564 0.000289
565 0.000289
566 0.000288
567 0.000290
568 0.000293
569 0.000294
570 0.000290
571 0.000287
572 0.000285
573 0.000283
574 0.000283
575 0.000283
576 0.000287
577 0.000290
578 0.000293
579 0.000299
580 0.000301
581 0.000304
582 0.000301
583 0.000297
584 0.000293
585 0.000288
586 0.000284
587 0.000279
588 0.000279
589 0.000280
590 0.000280
591 0.000281
592 0.000284
593 0.000284
594 0.000281
595 0.000279
596 0.000276
597 0.000275
598 0.000277
599 0.000280
600 0.000279
601 0.000277
602 0.000273
603 0.000271
604 0.000272
605 0.000272
606 0.000270
607 0.000266
608 0.000264
609 0.000262
610 0.000259
611 0.000256
612 0.000258
613 0.000261
614 0.000267
615 0.000271
616 0.000273
617 0.000276
618 0.000278
619 0.000281
620 0.000283
621 0.000283
622 0.000280
623 0.000275
624 0.000270
625 0.000264
626 0.000259
627 0.000254
628 0.000251
629 0.000247
630 0.000243
631 0.000242
632 0.000242
633 0.000241
634 0.000236
635 0.000226
636 0.000216
637 0.000211
638 0.000206
639 0.000203
640 0.000204
641 0.000206
642 0.000208
643 0.000209
644 0.000211
645 0.000213
646 0.000216
647 0.000220
648 0.000222
649 0.000224
650 0.000224
651 0.000225
652 0.000225
653 0.000229
654 0.000235
655 0.000240
656 0.000248
657 0.000251
658 0.000250
659 0.000246
660 0.000244
661 0.000243
662 0.000240
663 0.000236
664 0.000230
665 0.000227
666 0.000226
667 0.000228
668 0.000228
669 0.000227
670 0.000229
671 0.000231
672 0.000229
673 0.000230
674 0.000231
675 0.000235
676 0.000242
677 0.000248
678 0.000253
679 0.000257
680 0.000261
681 0.000266
682 0.000269
683 0.000275
684 0.000278
685 0.000284
686 0.000290
687 0.000295
688 0.000300
689 0.000304
690 0.000310
691 0.000310
692 0.000311
693 0.000314
694 0.000318
695 0.000321
696 0.000321
697 0.000321
698 0.000320
699 0.000316
700 0.000314
701 0.000313
702 0.000311
703 0.000310
704 0.000305
705 0.000296
706 0.000291
707 0.000285
708 0.000280
709 0.000276
710 0.000275
711 0.000274
712 0.000272
713 0.000269
714 0.000267
715 0.000264
716 0.000258
717 0.000256
718 0.000255
719 0.000252
720 0.000250
721 0.000244
722 0.000240
723 0.000241
724 0.000239
725 0.000236
726 0.000235
727 0.000235
728 0.000235
729 0.000234
730 0.000234
731 0.000228
732 0.000223
733 0.000219
734 0.000217
735 0.000215
736 0.000214
737 0.000212
738 0.000205
739 0.000197
740 0.000190
741 0.000184
742 0.000179
743 0.000175
744 0.000170
745 0.000165
746 0.000162
747 0.000161
748 0.000156
749 0.000155
750 0.000155
751 0.000159
752 0.000163
753 0.000164
754 0.000163
755 0.000162
756 0.000161
757 0.000161
758 0.000159
759 0.000159
760 0.000160
761 0.000159
762 0.000161
763 0.000163
764 0.000161
765 0.000160
766 0.000161
767 0.000159
768 0.000156
769 0.000156
770 0.000156
771 0.000155
772 0.000151
773 0.000148
774 0.000148
775 0.000153
776 0.000158
777 0.000160
778 0.000161
779 0.000159
780 0.000156
781 0.000154
782 0.000155
783 0.000155
784 0.000155
785 0.000157
786 0.000155
787 0.000155
788 0.000156
789 0.000158
790 0.000160
791 0.000161
792 0.000160
793 0.000157
794 0.000157
795 0.000158
796 0.000158
797 0.000155
798 0.000155
799 0.000156
800 0.000156
801 0.000157
802 0.000161
803 0.000162
804 0.000163
805 0.000162
806 0.000160
807 0.000155
808 0.000149
809 0.000144
