# i correlation
1 0.001786
2 0.001737
3 0.001691
4 0.001654
5 0.001622
6 0.001595
7 0.001572
8 0.001550
9 0.001523
10 0.001496
11 0.001472
12 0.001451
13 0.001431
14 0.001413
15 0.001401
16 0.001391
17 0.001383
18 0.001372
19 0.001362
20 0.001357
21 0.001350
22 0.001340
23 0.001330
24 0.001321
25 0.001304
26 0.001290
27 0.001281
28 0.001272
29 0.001264
30 0.001249
31 0.001237
32 0.001229
33 0.001223
34 0.001219
35 0.001217
36 0.001215
37 0.001206
38 0.001198
39 0.001193
40 0.001189
41 0.001184
42 0.001178
43 0.001179
44 0.001177
45 0.001173
46 0.001165
47 0.001158
48 0.001149
49 0.001143
50 0.001141
51 0.001138
52 0.001140
53 0.001136
54 0.001129
55 0.001118
56 0.001107
57 0.001101
58 0.001093
59 0.001083
60 0.001076
61 0.001070
62 0.001062
63 0.001052
64 0.001045
65 0.001045
66 0.001037
67 0.001031
68 0.001030
69 0.001030
70 0.001026
71 0.001024
72 0.001027
73 0.001030
74 0.001035
75 0.001030
76 0.001033
77 0.001028
78 0.001018
79 0.001008
80 0.001003
81 0.000998
82 0.000991
83 0.000980
84 0.000967
85 0.000958
86 0.000947
87 0.000936
88 0.000932
89 0.000931
90 0.000924
91 0.000918
92 0.000914
93 0.000907
94 0.000897
95 0.000888
96 0.000884
97 0.000879
98 0.000869
99 0.000858
100 0.000852
101 0.000849
102 0.000846
103 0.000847
104 0.000849
105 0.000848
106 0.000844
107 0.000833
108 0.000827
109 0.000828
110 0.000823
111 0.000819
112 0.000820
113 0.000817
114 0.000812
115 0.000810
116 0.000808
117 0.000807
118 0.000806
119 0.000805
120 0.000805
121 0.000808
122 0.000807
123 0.000802
124 0.000799
125 0.000798
126 0.000797
127 0.000794
128 0.000793
129 0.000794
130 0.000795
131 0.000790
132 0.000785
133 0.000780
134 0.000775
135 0.000771
136 0.000769
137 0.000767
138 0.000767
139 0.000764
140 0.000759
141 0.000758
142 0.000756
143 0.000748
144 0.000740
145 0.000733
146 0.000728
147 0.000727
148 0.000727
149 0.000726
150 0.000724
151 0.000718
152 0.000706
153 0.000700
154 0.000703
155 0.000702
156 0.000705
157 0.000708
158 0.000710
159 0.000705
160 0.000695
161 0.000688
162 0.000681
163 0.000673
164 0.000669
165 0.000671
166 0.000675
167 0.000675
168 0.000673
169 0.000675
170 0.000672
171 0.000673
172 0.000674
173 0.000672
174 0.000668
175 0.000660
176 0.000653
177 0.000649
178 0.000643
179 0.000640
180 0.000635
181 0.000637
182 0.000644
183 0.000642
184 0.000634
185 0.000628
186 0.000619
187 0.000609
188 0.000599
189 0.000593
190 0.000589
191 0.000581
192 0.000575
193 0.000574
194 0.000577
195 0.000575
196 0.000571
197 0.000565
198 0.000557
199 0.000549
200 0.000544
201 0.000548
202 0.000556
203 0.000561
204 0.000563
205 0.000564
206 0.000562
207 0.000554
208 0.000547
209 0.000542
210 0.000543
211 0.000545
212 0.000551
213 0.000552
214 0.000548
215 0.000545
216 0.000546
217 0.000549
218 0.000555
219 0.000556
220 0.000551
221 0.000546
222 0.000542
223 0.000537
224 0.000528
225 0.000520
226 0.000514
227 0.000506
228 0.000501
229 0.000495
230 0.000496
231 0.000494
232 0.000494
233 0.000496
234 0.000499
235 0.000499
236 0.000498
237 0.000498
238 0.000501
239 0.000508
240 0.000512
241 0.000516
242 0.000519
243 0.000521
244 0.000521
245 0.000520
246 0.000521
247 0.000524
248 0.000523
249 0.000520
250 0.000519
251 0.000518
252 0.000517
253 0.000521
254 0.000523
255 0.000530
256 0.000536
257 0.000540
258 0.000547
259 0.000556
260 0.000563
261 0.000568
262 0.000577
263 0.000588
264 0.000592
265 0.000593
266 0.000595
267 0.000589
268 0.000581
269 0.000570
270 0.000567
271 0.000564
272 0.000559
273 0.000556
274 0.000556
275 0.000558
276 0.000558
277 0.000559
278 0.000560
279 0.000553
280 0.000540
281 0.000525
282 0.000510
283 0.000505
284 0.000500
285 0.000497
286 0.000496
287 0.000496
288 0.000493
289 0.000484
290 0.000477
291 0.000474
292 0.000469
293 0.000464
294 0.000460
295 0.000460
296 0.000458
297 0.000452
298 0.000449
299 0.000440
300 0.000431
301 0.000419
302 0.000408
303 0.000398
304 0.000391
305 0.000389
306 0.000388
307 0.000386
308 0.000386
309 0.000380
310 0.000379
311 0.000379
312 0.000380
313 0.000384
314 0.000388
315 0.000394
316 0.000395
317 0.000393
318 0.000389
319 0.000386
320 0.000387
321 0.000391
322 0.000393
323 0.000398
324 0.000398
325 0.000394
326 0.000391
327 0.000393
328 0.000396
329 0.000398
330 0.000401
331 0.000403
332 0.000402
333 0.000398
334 0.000393
335 0.000390
336 0.000387
337 0.000385
338 0.000384
339 0.000384
340 0.000386
341 0.000384
342 0.000382
343 0.000383
344 0.000385
345 0.000386
346 0.000386
347 0.000384
348 0.000391
349 0.000392
350 0.000394
351 0.000398
352 0.000405
353 0.000410
354 0.000415
355 0.000419
356 0.000421
357 0.000420
358 0.000418
359 0.000422
360 0.000426
361 0.000420
362 0.000413
363 0.000410
364 0.000405
365 0.000401
366 0.000397
367 0.000397
368 0.000392
369 0.000386
370 0.000375
371 0.000367
372 0.000360
373 0.000353
374 0.000348
375 0.000343
376 0.000338
377 0.000331
378 0.000325
379 0.000326
380 0.000325
381 0.000323
382 0.000316
383 0.000311
384 0.000307
385 0.000301
386 0.000294
387 0.000290
388 0.000288
389 0.000287
390 0.000284
391 0.000283
392 0.000282
393 0.000279
394 0.000275
395 0.000277
396 0.000278
397 0.000280
398 0.000287
399 0.000294
400 0.000304
401 0.000312
402 0.000316
403 0.000322
404 0.000326
405 0.000330
406 0.000333
407 0.000337
408 0.000343
409 0.000348
410 0.000346
411 0.000340
412 0.000338
413 0.000338
414 0.000338
415 0.000338
416 0.000338
417 0.000339
418 0.000338
419 0.000339
420 0.000339
421 0.000337
422 0.000337
423 0.000335
424 0.000334
425 0.000335
426 0.000333
427 0.000329
428 0.000324
429 0.000321
430 0.000316
431 0.000313
432 0.000318
433 0.000320
434 0.000322
435 0.000323
436 0.000329
437 0.000330
438 0.000327
439 0.000322
440 0.000316
441 0.000312
442 0.000312
443 0.000314
444 0.000319
445 0.000323
446 0.000327
447 0.000327
448 0.000326
449 0.000329
450 0.000327
451 0.000325
452 0.000324
453 0.000326
454 0.000321
455 0.000320
456 0.000320
457 0.000321
458 0.000320
459 0.000316
460 0.000314
461 0.000313
462 0.000311
463 0.000306
464 0.000300
465 0.000299
466 0.000294
467 0.000291
468 0.000292
469 0.000296
470 0.000299
471 0.000304
472 0.000309
473 0.000309
474 0.000308
475 0.000309
476 0.000309
477 0.000314
478 0.000320
479 0.000331
480 0.000342
481 0.000351
482 0.000355
483 0.000356
484 0.000355
485 0.000355
486 0.000353
487 0.000352
488 0.000351
489 0.000353
490 0.000353
491 0.000352
492 0.000349
493 0.000346
494 0.000340
495 0.000337
496 0.000337
497 0.000337
498 0.000338
499 0.000334
500 0.000329
501 0.000328
502 0.000327
503 0.000325
504 0.000323
505 0.000324
506 0.000321
507 0.000318
508 0.000315
509 0.000315
510 0.000318
511 0.000320
512 0.000320
513 0.000322
514 0.000324
515 0.000324
516 0.000323
517 0.000324
518 0.000329
519 0.000333
520 0.000335
521 0.000335
522 0.000335
523 0.000332
524 0.000330
525 0.000333
526 0.000337
527 0.000338
528 0.000337
529 0.000337
530 0.000338
531 0.000336
532 0.000336
533 0.000339
534 0.000343
535 0.000342
536 0.000340
537 0.000339
538 0.000338
539 0.000335
540 0.000332
541 0.000330
542 0.000328
543 0.000319
544 0.000307
545 0.000293
546 0.000283
547 0.000271
548 0.000266
549 0.000264
550 0.000262
551 0.000258
552 0.000253
553 0.000254
554 0.000255
555 0.000256
556 0.000257
557 0.000261
558 0.000262
559 0.000259
560 0.000252
561 0.000253
562 0.000254
563 0.000254
564 0.000251
565 0.000245
566 0.000240
567 0.000232
568 0.000224
569 0.000218
570 0.000214
571 0.000208
572 0.000206
573 0.000203
574 0.000206
575 0.000207
576 0.000206
577 0.000207
578 0.000207
579 0.000205
580 0.000203
581 0.000202
582 0.000199
583 0.000198
584 0.000198
585 0.000200
586 0.000202
587 0.000204
588 0.000199
589 0.000195
590 0.000193
591 0.000197
592 0.000200
593 0.000205
594 0.000209
595 0.000212
596 0.000210
597 0.000207
598 0.000207
599 0.000207
600 0.000205
601 0.000208
602 0.000211
603 0.000212
604 0.000213
605 0.000208
606 0.000206
607 0.000204
608 0.000202
609 0.000200
610 0.000201
611 0.000205
612 0.000205
613 0.000206
614 0.000209
615 0.000212
616 0.000212
617 0.000210
618 0.000215
619 0.000223
620 0.000230
621 0.000235
622 0.000241
623 0.000246
624 0.000246
625 0.000244
626 0.000246
627 0.000246
628 0.000247
629 0.000247
630 0.000248
631 0.000250
632 0.000248
633 0.000244
634 0.000239
635 0.000237
636 0.000232
637 0.000231
638 0.000234
639 0.000237
640 0.000240
641 0.000236
642 0.000235
643 0.000234
644 0.000236
645 0.000238
646 0.000238
647 0.000240
648 0.000241
649 0.000235
650 0.000232
651 0.000230
652 0.000228
653 0.000227
654 0.000226
655 0.000225
656 0.000222
657 0.000216
658 0.000212
659 0.000211
660 0.000211
661 0.000213
662 0.000216
663 0.000216
664 0.000218
665 0.000222
666 0.000224
667 0.000226
668 0.000228
669 0.000232
670 0.000233
671 0.000233
672 0.000236
673 0.000237
674 0.000239
675 0.000241
676 0.000244
677 0.000244
678 0.000243
679 0.000242
680 0.000239
681 0.000237
682 0.000233
683 0.000232
684 0.000233
685 0.000232
686 0.000231
687 0.000233
688 0.000233
689 0.000232
690 0.000230
691 0.000233
692 0.000238
693 0.000237
694 0.000238
695 0.000237
696 0.000242
697 0.000247
698 0.000251
699 0.000254
700 0.000258
701 0.000257
702 0.000255
703 0.000248
704 0.000245
705 0.000241
706 0.000235
707 0.000230
708 0.000229
709 0.000226
710 0.000223
711 0.000217
712 0.000212
713 0.000210
714 0.000208
715 0.000208
716 0.000208
717 0.000206
718 0.000202
719 0.000203
720 0.000205
721 0.000206
722 0.000207
723 0.000211
724 0.000216
725 0.000217
726 0.000217
727 0.000216
728 0.000216
729 0.000213
730 0.000214
731 0.000217
732 0.000217
733 0.000217
734 0.000215
735 0.000216
736 0.000219
737 0.000222
738 0.000223
739 0.000224
740 0.000223
741 0.000222
742 0.000221
743 0.000223
744 0.000225
745 0.000227
746 0.000228
747 0.000227
748 0.000227
749 0.000226
750 0.000224
751 0.000224
752 0.000223
753 0.000220
754 0.000217
755 0.000214
756 0.000209
757 0.000206
758 0.000204
759 0.000202
760 0.000203
761 0.000204
762 0.000204
763 0.000204
764 0.000203
765 0.000203
766 0.000203
767 0.000206
768 0.000208
769 0.000211
770 0.000212
771 0.000212
772 0.000212
773 0.000214
774 0.000218
775 0.000220
776 0.000222
777 0.000223
778 0.000225
779 0.000224
780 0.000225
781 0.000226
782 0.000228
783 0.000227
784 0.000227
785 0.000226
786 0.000223
787 0.000222
788 0.000219
789 0.000219
790 0.000219
791 0.000219
792 0.000218
793 0.000220
794 0.000217
795 0.000217
796 0.000219
797 0.000223
798 0.000228
799 0.000229
800 0.000228
801 0.000230
802 0.000230
803 0.000232
804 0.000235
805 0.000239
806 0.000241
807 0.000241
808 0.000240
809 0.000237
