# i correlation
1 0.001830
2 0.001782
3 0.001742
4 0.001705
5 0.001669
6 0.001637
7 0.001605
8 0.001582
9 0.001561
10 0.001541
11 0.001526
12 0.001510
13 0.001499
14 0.001483
15 0.001468
16 0.001454
17 0.001437
18 0.001423
19 0.001412
20 0.001399
21 0.001390
22 0.001380
23 0.001369
24 0.001355
25 0.001343
26 0.001334
27 0.001322
28 0.001312
29 0.001302
30 0.001294
31 0.001287
32 0.001284
33 0.001281
34 0.001278
35 0.001279
36 0.001278
37 0.001277
38 0.001272
39 0.001264
40 0.001260
41 0.001262
42 0.001263
43 0.001264
44 0.001267
45 0.001267
46 0.001269
47 0.001261
48 0.001257
49 0.001252
50 0.001246
51 0.001242
52 0.001234
53 0.001219
54 0.001201
55 0.001185
56 0.001168
57 0.001155
58 0.001138
59 0.001124
60 0.001112
61 0.001107
62 0.001105
63 0.001102
64 0.001101
65 0.001099
66 0.001095
67 0.001092
68 0.001089
69 0.001084
70 0.001081
71 0.001075
72 0.001072
73 0.001076
74 0.001077
75 0.001071
76 0.001063
77 0.001064
78 0.001063
79 0.001059
80 0.001053
81 0.001048
82 0.001036
83 0.001028
84 0.001021
85 0.001011
86 0.001004
87 0.001000
88 0.000992
89 0.000990
90 0.000990
91 0.000991
92 0.000986
93 0.000986
94 0.000987
95 0.000985
96 0.000979
97 0.000977
98 0.000974
99 0.000973
100 0.000968
101 0.000963
102 0.000958
103 0.000953
104 0.000951
105 0.000950
106 0.000948
107 0.000945
108 0.000943
109 0.000942
110 0.000942
111 0.000936
112 0.000928
113 0.000927
114 0.000918
115 0.000912
116 0.000907
117 0.000903
118 0.000901
119 0.000901
120 0.000896
121 0.000896
122 0.000890
123 0.000882
124 0.000875
125 0.000870
126 0.000858
127 0.000841
128 0.000824
129 0.000808
130 0.000800
131 0.000794
132 0.000791
133 0.000786
134 0.000786
135 0.000786
136 0.000786
137 0.000782
138 0.000776
139 0.000775
140 0.000777
141 0.000779
142 0.000782
143 0.000784
144 0.000783
145 0.000786
146 0.000788
147 0.000788
148 0.000787
149 0.000782
150 0.000778
151 0.000776
152 0.000771
153 0.000773
154 0.000777
155 0.000780
156 0.000782
157 0.000783
158 0.000784
159 0.000787
160 0.000785
161 0.000783
162 0.000780
163 0.000775
164 0.000772
165 0.000769
166 0.000766
167 0.000766
168 0.000764
169 0.000758
170 0.000754
171 0.000748
172 0.000745
173 0.000735
174 0.000726
175 0.000715
176 0.000710
177 0.000707
178 0.000708
179 0.000703
180 0.000700
181 0.000700
182 0.000703
183 0.000706
184 0.000707
185 0.000707
186 0.000708
187 0.000716
188 0.000720
189 0.000718
190 0.000712
191 0.000708
192 0.000707
193 0.000705
194 0.000703
195 0.000702
196 0.000703
197 0.000703
198 0.000710
199 0.000712
200 0.000715
201 0.000714
202 0.000711
203 0.000708
204 0.000706
205 0.000703
206 0.000697
207 0.000691
208 0.000688
209 0.000684
210 0.000683
211 0.000679
212 0.000675
213 0.000672
214 0.000671
215 0.000670
216 0.000667
217 0.000658
218 0.000653
219 0.000645
220 0.000643
221 0.000640
222 0.000635
223 0.000633
224 0.000628
225 0.000619
226 0.000612
227 0.000605
228 0.000600
229 0.000601
230 0.000603
231 0.000602
232 0.000599
233 0.000602
234 0.000601
235 0.000598
236 0.000597
237 0.000591
238 0.000585
239 0.000584
240 0.000587
241 0.000595
242 0.000597
243 0.000597
244 0.000606
245 0.000609
246 0.000616
247 0.000624
248 0.000629
249 0.000633
250 0.000633
251 0.000634
252 0.000638
253 0.000640
254 0.000637
255 0.000639
256 0.000636
257 0.000630
258 0.000625
259 0.000624
260 0.000626
261 0.000629
262 0.000630
263 0.000629
264 0.000628
265 0.000629
266 0.000629
267 0.000627
268 0.000625
269 0.000619
270 0.000613
271 0.000606
272 0.000601
273 0.000599
274 0.000599
275 0.000595
276 0.000590
277 0.000589
278 0.000588
279 0.000588
280 0.000584
281 0.000580
282 0.000579
283 0.000574
284 0.000566
285 0.000561
286 0.000555
287 0.000549
288 0.000545
289 0.000547
290 0.000547
291 0.000549
292 0.000548
293 0.000551
294 0.000549
295 0.000551
296 0.000550
297 0.000551
298 0.000554
299 0.000555
300 0.000553
301 0.000551
302 0.000549
303 0.000548
304 0.000549
305 0.000547
306 0.000546
307 0.000543
308 0.000542
309 0.000543
310 0.000536
311 0.000534
312 0.000531
313 0.000533
314 0.000541
315 0.000543
316 0.000544
317 0.000549
318 0.000553
319 0.000553
320 0.000555
321 0.000555
322 0.000552
323 0.000545
324 0.000538
325 0.000533
326 0.000531
327 0.000527
328 0.000520
329 0.000512
330 0.000505
331 0.000500
332 0.000490
333 0.000484
334 0.000478
335 0.000474
336 0.000471
337 0.000469
338 0.000466
339 0.000469
340 0.000470
341 0.000474
342 0.000478
343 0.000480
344 0.000477
345 0.000473
346 0.000476
347 0.000474
348 0.000469
349 0.000462
350 0.000458
351 0.000454
352 0.000455
353 0.000451
354 0.000454
355 0.000456
356 0.000453
357 0.000452
358 0.000449
359 0.000453
360 0.000457
361 0.000457
362 0.000455
363 0.000452
364 0.000450
365 0.000452
366 0.000455
367 0.000454
368 0.000457
369 0.000462
370 0.000462
371 0.000459
372 0.000457
373 0.000453
374 0.000450
375 0.000442
376 0.000435
377 0.000430
378 0.000427
379 0.000423
380 0.000419
381 0.000412
382 0.000409
383 0.000407
384 0.000405
385 0.000401
386 0.000399
387 0.000403
388 0.000408
389 0.000409
390 0.000413
391 0.000414
392 0.000419
393 0.000421
394 0.000418
395 0.000420
396 0.000420
397 0.000418
398 0.000415
399 0.000412
400 0.000409
401 0.000406
402 0.000403
403 0.000403
404 0.000398
405 0.000394
406 0.000390
407 0.000385
408 0.000384
409 0.000377
410 0.000371
411 0.000374
412 0.000370
413 0.000367
414 0.000371
415 0.000376
416 0.000381
417 0.000382
418 0.000383
419 0.000383
420 0.000384
421 0.000379
422 0.000371
423 0.000363
424 0.000360
425 0.000356
426 0.000344
427 0.000338
428 0.000333
429 0.000332
430 0.000333
431 0.000332
432 0.000331
433 0.000334
434 0.000336
435 0.000334
436 0.000336
437 0.000335
438 0.000334
439 0.000336
440 0.000337
441 0.000336
442 0.000335
443 0.000335
444 0.000333
445 0.000333
446 0.000334
447 0.000332
448 0.000330
449 0.000330
450 0.000329
451 0.000330
452 0.000334
453 0.000336
454 0.000339
455 0.000343
456 0.000346
457 0.000350
458 0.000349
459 0.000349
460 0.000354
461 0.000360
462 0.000368
463 0.000378
464 0.000383
465 0.000390
466 0.000394
467 0.000398
468 0.000399
469 0.000398
470 0.000396
471 0.000396
472 0.000394
473 0.000391
474 0.000383
475 0.000376
476 0.000369
477 0.000367
478 0.000366
479 0.000365
480 0.000364
481 0.000366
482 0.000368
483 0.000365
484 0.000365
485 0.000366
486 0.000367
487 0.000367
488 0.000367
489 0.000366
490 0.000362
491 0.000355
492 0.000352
493 0.000348
494 0.000345
495 0.000343
496 0.000339
497 0.000336
498 0.000333
499 0.000332
500 0.000330
501 0.000333
502 0.000338
503 0.000345
504 0.000348
505 0.000350
506 0.000351
507 0.000353
508 0.000357
509 0.000364
510 0.000367
511 0.000366
512 0.000364
513 0.000365
514 0.000371
515 0.000374
516 0.000374
517 0.000370
518 0.000366
519 0.000363
520 0.000358
521 0.000352
522 0.000349
523 0.000345
524 0.000349
525 0.000351
526 0.000351
527 0.000352
528 0.000353
529 0.000358
530 0.000362
531 0.000362
532 0.000359
533 0.000360
534 0.000359
535 0.000362
536 0.000364
537 0.000369
538 0.000374
539 0.000376
540 0.000378
541 0.000379
542 0.000378
543 0.000375
544 0.000373
545 0.000368
546 0.000362
547 0.000357
548 0.000350
549 0.000342
550 0.000338
551 0.000339
552 0.000339
553 0.000338
554 0.000335
555 0.000334
556 0.000332
557 0.000330
558 0.000329
559 0.000329
560 0.000331
561 0.000334
562 0.000338
563 0.000338
564 0.000338
565 0.000336
566 0.000333
567 0.000328
568 0.000319
569 0.000312
570 0.000309
571 0.000306
572 0.000303
573 0.000304
574 0.000304
575 0.000304
576 0.000304
577 0.000304
578 0.000301
579 0.000305
580 0.000310
581 0.000315
582 0.000323
583 0.000329
584 0.000332
585 0.000332
586 0.000334
587 0.000338
588 0.000344
589 0.000347
590 0.000353
591 0.000356
592 0.000357
593 0.000357
594 0.000357
595 0.000355
596 0.000354
597 0.000351
598 0.000347
599 0.000344
600 0.000340
601 0.000337
602 0.000337
603 0.000339
604 0.000341
605 0.000344
606 0.000347
607 0.000349
608 0.000353
609 0.000355
610 0.000355
611 0.000350
612 0.000345
613 0.000343
614 0.000341
615 0.000340
616 0.000341
617 0.000342
618 0.000344
619 0.000344
620 0.000343
621 0.000340
622 0.000335
623 0.000330
624 0.000327
625 0.000325
626 0.000326
627 0.000326
628 0.000328
629 0.000331
630 0.000329
631 0.000328
632 0.000330
633 0.000329
634 0.000331
635 0.000334
636 0.000331
637 0.000330
638 0.000328
639 0.000328
640 0.000329
641 0.000329
642 0.000327
643 0.000328
644 0.000333
645 0.000337
646 0.000337
647 0.000337
648 0.000337
649 0.000336
650 0.000334
651 0.000331
652 0.000326
653 0.000319
654 0.000314
655 0.000310
656 0.000305
657 0.000299
658 0.000292
659 0.000285
660 0.000283
661 0.000284
662 0.000281
663 0.000282
664 0.000279
665 0.000276
666 0.000270
667 0.000265
668 0.000260
669 0.000256
670 0.000253
671 0.000252
672 0.000248
673 0.000244
674 0.000238
675 0.000233
676 0.000227
677 0.000223
678 0.000220
679 0.000217
680 0.000215
681 0.000214
682 0.000214
683 0.000215
684 0.000215
685 0.000217
686 0.000220
687 0.000219
688 0.000214
689 0.000207
690 0.000203
691 0.000195
692 0.000188
693 0.000183
694 0.000181
695 0.000177
696 0.000176
697 0.000177
698 0.000176
699 0.000173
700 0.000168
701 0.000166
702 0.000161
703 0.000154
704 0.000147
705 0.000143
706 0.000140
707 0.000139
708 0.000139
709 0.000142
710 0.000144
711 0.000145
712 0.000145
713 0.000150
714 0.000154
715 0.000159
716 0.000163
717 0.000167
718 0.000168
719 0.000170
720 0.000169
721 0.000167
722 0.000169
723 0.000170
724 0.000170
725 0.000171
726 0.000171
727 0.000170
728 0.000171
729 0.000173
730 0.000175
731 0.000174
732 0.000174
733 0.000172
734 0.000172
735 0.000168
736 0.000166
737 0.000160
738 0.000160
739 0.000161
740 0.000160
741 0.000157
742 0.000157
743 0.000153
744 0.000151
745 0.000151
746 0.000147
747 0.000146
748 0.000144
749 0.000144
750 0.000148
751 0.000151
752 0.000155
753 0.000157
754 0.000160
755 0.000161
756 0.000161
757 0.000161
758 0.000164
759 0.000165
760 0.000166
761 0.000170
762 0.000173
763 0.000179
764 0.000182
765 0.000184
766 0.000186
767 0.000190
768 0.000193
769 0.000194
770 0.000194
771 0.000195
772 0.000193
773 0.000190
774 0.000189
775 0.000190
776 0.000191
777 0.000194
778 0.000192
779 0.000189
780 0.000188
781 0.000187
782 0.000184
783 0.000181
784 0.000180
785 0.000180
786 0.000182
787 0.000183
788 0.000186
789 0.000188
790 0.000189
791 0.000189
792 0.000188
793 0.000190
794 0.000192
795 0.000191
796 0.000192
797 0.000191
798 0.000188
799 0.000186
800 0.000183
801 0.000177
802 0.000174
803 0.000174
804 0.000174
805 0.000172
806 0.000176
807 0.000180
808 0.000183
809 0.000183
