# i correlation
1 0.001700
2 0.001649
3 0.001608
4 0.001569
5 0.001535
6 0.001502
7 0.001476
8 0.001452
9 0.001430
10 0.001413
11 0.001399
12 0.001378
13 0.001362
14 0.001351
15 0.001337
16 0.001325
17 0.001317
18 0.001309
19 0.001300
20 0.001292
21 0.001288
22 0.001289
23 0.001287
24 0.001286
25 0.001279
26 0.001269
27 0.001258
28 0.001251
29 0.001246
30 0.001235
31 0.001234
32 0.001234
33 0.001231
34 0.001225
35 0.001218
36 0.001209
37 0.001199
38 0.001189
39 0.001184
40 0.001181
41 0.001178
42 0.001174
43 0.001168
44 0.001164
45 0.001162
46 0.001156
47 0.001147
48 0.001137
49 0.001127
50 0.001115
51 0.001102
52 0.001084
53 0.001072
54 0.001063
55 0.001055
56 0.001048
57 0.001040
58 0.001035
59 0.001028
60 0.001029
61 0.001032
62 0.001030
63 0.001023
64 0.001023
65 0.001021
66 0.001018
67 0.001027
68 0.001035
69 0.001041
70 0.001045
71 0.001053
72 0.001064
73 0.001072
74 0.001074
75 0.001072
76 0.001066
77 0.001059
78 0.001060
79 0.001051
80 0.001044
81 0.001034
82 0.001024
83 0.001011
84 0.001007
85 0.001002
86 0.000994
87 0.000990
88 0.000984
89 0.000981
90 0.000977
91 0.000979
92 0.000982
93 0.000975
94 0.000969
95 0.000967
96 0.000966
97 0.000962
98 0.000959
99 0.000956
100 0.000954
101 0.000946
102 0.000943
103 0.000942
104 0.000939
105 0.000932
106 0.000926
107 0.000924
108 0.000918
109 0.000917
110 0.000911
111 0.000904
112 0.000897
113 0.000888
114 0.000881
115 0.000876
116 0.000873
117 0.000872
118 0.000871
119 0.000866
120 0.000865
121 0.000863
122 0.000857
123 0.000856
124 0.000856
125 0.000851
126 0.000840
127 0.000826
128 0.000814
129 0.000805
130 0.000786
131 0.000774
132 0.000766
133 0.000760
134 0.000753
135 0.000749
136 0.000747
137 0.000737
138 0.000733
139 0.000728
140 0.000734
141 0.000736
142 0.000744
143 0.000751
144 0.000749
145 0.000749
146 0.000747
147 0.000742
148 0.000732
149 0.000727
150 0.000725
151 0.000721
152 0.000716
153 0.000712
154 0.000705
155 0.000691
156 0.000686
157 0.000687
158 0.000686
159 0.000685
160 0.000682
161 0.000681
162 0.000676
163 0.000671
164 0.000670
165 0.000672
166 0.000671
167 0.000671
168 0.000675
169 0.000680
170 0.000680
171 0.000678
172 0.000671
173 0.000663
174 0.000656
175 0.000646
176 0.000639
177 0.000633
178 0.000626
179 0.000619
180 0.000608
181 0.000602
182 0.000599
183 0.000600
184 0.000602
185 0.000606
186 0.000606
187 0.000609
188 0.000613
189 0.000620
190 0.000626
191 0.000634
192 0.000640
193 0.000646
194 0.000652
195 0.000654
196 0.000659
197 0.000660
198 0.000659
199 0.000653
200 0.000649
201 0.000647
202 0.000647
203 0.000645
204 0.000642
205 0.000640
206 0.000636
207 0.000634
208 0.000629
209 0.000628
210 0.000627
211 0.000625
212 0.000623
213 0.000624
214 0.000627
215 0.000629
216 0.000638
217 0.000638
218 0.000642
219 0.000650
220 0.000656
221 0.000658
222 0.000652
223 0.000640
224 0.000632
225 0.000628
226 0.000625
227 0.000626
228 0.000623
229 0.000621
230 0.000621
231 0.000622
232 0.000620
233 0.000617
234 0.000612
235 0.000606
236 0.000600
237 0.000596
238 0.000595
239 0.000589
240 0.000580
241 0.000579
242 0.000582
243 0.000585
244 0.000588
245 0.000592
246 0.000589
247 0.000587
248 0.000586
249 0.000587
250 0.000583
251 0.000578
252 0.000582
253 0.000586
254 0.000585
255 0.000581
256 0.000578
257 0.000576
258 0.000572
259 0.000571
260 0.000574
261 0.000579
262 0.000579
263 0.000582
264 0.000584
265 0.000580
266 0.000577
267 0.000578
268 0.000578
269 0.000582
270 0.000587
271 0.000592
272 0.000589
273 0.000586
274 0.000580
275 0.000573
276 0.000571
277 0.000567
278 0.000567
279 0.000562
280 0.000561
281 0.000563
282 0.000562
283 0.000569
284 0.000573
285 0.000578
286 0.000581
287 0.000586
288 0.000593
289 0.000599
290 0.000600
291 0.000599
292 0.000604
293 0.000614
294 0.000625
295 0.000625
296 0.000622
297 0.000621
298 0.000617
299 0.000610
300 0.000603
301 0.000594
302 0.000589
303 0.000587
304 0.000586
305 0.000588
306 0.000589
307 0.000591
308 0.000592
309 0.000589
310 0.000589
311 0.000587
312 0.000587
313 0.000585
314 0.000581
315 0.000578
316 0.000576
317 0.000571
318 0.000565
319 0.000558
320 0.000551
321 0.000546
322 0.000541
323 0.000535
324 0.000532
325 0.000532
326 0.000532
327 0.000530
328 0.000526
329 0.000525
330 0.000527
331 0.000524
332 0.000521
333 0.000513
334 0.000512
335 0.000508
336 0.000506
337 0.000504
338 0.000499
339 0.000498
340 0.000497
341 0.000498
342 0.000495
343 0.000488
344 0.000483
345 0.000483
346 0.000476
347 0.000470
348 0.000466
349 0.000465
350 0.000462
351 0.000462
352 0.000462
353 0.000461
354 0.000463
355 0.000463
356 0.000464
357 0.000462
358 0.000462
359 0.000466
360 0.000469
361 0.000473
362 0.000479
363 0.000478
364 0.000475
365 0.000470
366 0.000462
367 0.000452
368 0.000443
369 0.000435
370 0.000429
371 0.000424
372 0.000419
373 0.000419
374 0.000418
375 0.000415
376 0.000411
377 0.000408
378 0.000410
379 0.000410
380 0.000410
381 0.000413
382 0.000418
383 0.000417
384 0.000424
385 0.000432
386 0.000434
387 0.000435
388 0.000437
389 0.000439
390 0.000443
391 0.000439
392 0.000438
393 0.000436
394 0.000433
395 0.000433
396 0.000436
397 0.000435
398 0.000435
399 0.000434
400 0.000430
401 0.000424
402 0.000419
403 0.000417
404 0.000418
405 0.000419
406 0.000419
407 0.000418
408 0.000412
409 0.000408
410 0.000404
411 0.000398
412 0.000394
413 0.000394
414 0.000399
415 0.000397
416 0.000397
417 0.000396
418 0.000396
419 0.000396
420 0.000395
421 0.000399
422 0.000401
423 0.000403
424 0.000404
425 0.000402
426 0.000400
427 0.000395
428 0.000394
429 0.000397
430 0.000400
431 0.000401
432 0.000399
433 0.000396
434 0.000396
435 0.000397
436 0.000399
437 0.000401
438 0.000405
439 0.000410
440 0.000413
441 0.000412
442 0.000407
443 0.000401
444 0.000394
445 0.000390
446 0.000389
447 0.000386
448 0.000383
449 0.000381
450 0.000383
451 0.000385
452 0.000387
453 0.000387
454 0.000390
455 0.000391
456 0.000390
457 0.000390
458 0.000395
459 0.000397
460 0.000402
461 0.000401
462 0.000403
463 0.000408
464 0.000412
465 0.000414
466 0.000415
467 0.000415
468 0.000410
469 0.000406
470 0.000405
471 0.000404
472 0.000401
473 0.000398
474 0.000399
475 0.000397
476 0.000399
477 0.000400
478 0.000398
479 0.000392
480 0.000387
481 0.000384
482 0.000384
483 0.000382
484 0.000381
485 0.000381
486 0.000381
487 0.000380
488 0.000371
489 0.000366
490 0.000364
491 0.000361
492 0.000359
493 0.000353
494 0.000351
495 0.000347
496 0.000344
497 0.000344
498 0.000345
499 0.000344
500 0.000342
501 0.000339
502 0.000342
503 0.000341
504 0.000339
505 0.000340
506 0.000340
507 0.000341
508 0.000345
509 0.000348
510 0.000350
511 0.000348
512 0.000342
513 0.000343
514 0.000340
515 0.000339
516 0.000338
517 0.000333
518 0.000328
519 0.000326
520 0.000323
521 0.000323
522 0.000322
523 0.000324
524 0.000329
525 0.000334
526 0.000340
527 0.000346
528 0.000352
529 0.000351
530 0.000350
531 0.000355
532 0.000360
533 0.000363
534 0.000365
535 0.000365
536 0.000365
537 0.000362
538 0.000361
539 0.000357
540 0.000351
541 0.000348
542 0.000347
543 0.000348
544 0.000346
545 0.000346
546 0.000348
547 0.000356
548 0.000360
549 0.000363
550 0.000365
551 0.000369
552 0.000370
553 0.000365
554 0.000365
555 0.000364
556 0.000367
557 0.000372
558 0.000375
559 0.000378
560 0.000377
561 0.000375
562 0.000372
563 0.000369
564 0.000367
565 0.000365
566 0.000364
567 0.000362
568 0.000357
569 0.000351
570 0.000345
571 0.000339
572 0.000329
573 0.000321
574 0.000315
575 0.000312
576 0.000309
577 0.000306
578 0.000303
579 0.000301
580 0.000300
581 0.000302
582 0.000304
583 0.000307
584 0.000307
585 0.000303
586 0.000300
587 0.000297
588 0.000296
589 0.000298
590 0.000298
591 0.000297
592 0.000294
593 0.000291
594 0.000290
595 0.000286
596 0.000281
597 0.000279
598 0.000278
599 0.000275
600 0.000272
601 0.000269
602 0.000267
603 0.000267
604 0.000268
605 0.000270
606 0.000274
607 0.000277
608 0.000283
609 0.000287
610 0.000291
611 0.000291
612 0.000289
613 0.000287
614 0.000282
615 0.000281
616 0.000281
617 0.000281
618 0.000280
619 0.000281
620 0.000284
621 0.000282
622 0.000277
623 0.000277
624 0.000272
625 0.000268
626 0.000266
627 0.000261
628 0.000258
629 0.000256
630 0.000254
631 0.000251
632 0.000249
633 0.000245
634 0.000247
635 0.000249
636 0.000249
637 0.000248
638 0.000247
639 0.000245
640 0.000244
641 0.000239
642 0.000236
643 0.000233
644 0.000231
645 0.000230
646 0.000227
647 0.000224
648 0.000223
649 0.000225
650 0.000224
651 0.000229
652 0.000232
653 0.000231
654 0.000229
655 0.000231
656 0.000233
657 0.000235
658 0.000236
659 0.000237
660 0.000233
661 0.000230
662 0.000225
663 0.000219
664 0.000211
665 0.000202
666 0.000196
667 0.000192
668 0.000191
669 0.000192
670 0.000192
671 0.000192
672 0.000193
673 0.000190
674 0.000187
675 0.000183
676 0.000181
677 0.000176
678 0.000174
679 0.000171
680 0.000170
681 0.000171
682 0.000173
683 0.000175
684 0.000178
685 0.000181
686 0.000185
687 0.000184
688 0.000182
689 0.000180
690 0.000182
691 0.000183
692 0.000186
693 0.000191
694 0.000195
695 0.000195
696 0.000195
697 0.000195
698 0.000196
699 0.000194
700 0.000192
701 0.000192
702 0.000190
703 0.000189
704 0.000188
705 0.000186
706 0.000186
707 0.000185
708 0.000184
709 0.000181
710 0.000178
711 0.000175
712 0.000173
713 0.000171
714 0.000170
715 0.000169
716 0.000169
717 0.000166
718 0.000164
719 0.000165
720 0.000164
721 0.000160
722 0.000155
723 0.000152
724 0.000150
725 0.000147
726 0.000145
727 0.000144
728 0.000144
729 0.000147
730 0.000151
731 0.000156
732 0.000157
733 0.000159
734 0.000159
735 0.000161
736 0.000162
737 0.000160
738 0.000158
739 0.000157
740 0.000156
741 0.000156
742 0.000154
743 0.000157
744 0.000160
745 0.000161
746 0.000163
747 0.000166
748 0.000168
749 0.000166
750 0.000163
751 0.000160
752 0.000158
753 0.000157
754 0.000158
755 0.000162
756 0.000160
757 0.000157
758 0.000155
759 0.000152
760 0.000151
761 0.000153
762 0.000151
763 0.000151
764 0.000149
765 0.000148
766 0.000146
767 0.000142
768 0.000141
769 0.000139
770 0.000137
771 0.000132
772 0.000127
773 0.000121
774 0.000117
775 0.000113
776 0.000112
777 0.000110
778 0.000111
779 0.000110
780 0.000112
781 0.000112
782 0.000106
783 0.000100
784 0.000092
785 0.000085
786 0.000079
787 0.000075
788 0.000071
789 0.000066
790 0.000059
791 0.000052
792 0.000047
793 0.000041
794 0.000037
795 0.000033
796 0.000026
797 0.000019
798 0.000014
799 0.000010
800 0.000006
801 0.000006
802 0.000006
803 0.000003
804 0.000003
805 0.000004
806 0.000001
807 -0.000000
808 0.000000
809 0.000001
