# i correlation
1 0.001731
2 0.001676
3 0.001627
4 0.001579
5 0.001539
6 0.001501
7 0.001470
8 0.001440
9 0.001412
10 0.001385
11 0.001365
12 0.001350
13 0.001338
14 0.001324
15 0.001313
16 0.001301
17 0.001289
18 0.001285
19 0.001278
20 0.001273
21 0.001265
22 0.001260
23 0.001247
24 0.001243
25 0.001230
26 0.001226
27 0.001225
28 0.001224
29 0.001220
30 0.001216
31 0.001207
32 0.001199
33 0.001193
34 0.001183
35 0.001182
36 0.001183
37 0.001186
38 0.001187
39 0.001190
40 0.001196
41 0.001195
42 0.001197
43 0.001198
44 0.001198
45 0.001200
46 0.001198
47 0.001189
48 0.001182
49 0.001170
50 0.001163
51 0.001159
52 0.001154
53 0.001148
54 0.001148
55 0.001148
56 0.001143
57 0.001141
58 0.001135
59 0.001130
60 0.001123
61 0.001112
62 0.001101
63 0.001093
64 0.001083
65 0.001072
66 0.001063
67 0.001057
68 0.001053
69 0.001046
70 0.001042
71 0.001037
72 0.001034
73 0.001033
74 0.001024
75 0.001015
76 0.001006
77 0.000990
78 0.000980
79 0.000971
80 0.000961
81 0.000955
82 0.000951
83 0.000946
84 0.000941
85 0.000937
86 0.000930
87 0.000922
88 0.000915
89 0.000906
90 0.000896
91 0.000894
92 0.000894
93 0.000889
94 0.000883
95 0.000870
96 0.000860
97 0.000849
98 0.000834
99 0.000825
100 0.000821
101 0.000817
102 0.000819
103 0.000815
104 0.000815
105 0.000813
106 0.000808
107 0.000803
108 0.000798
109 0.000792
110 0.000784
111 0.000780
112 0.000776
113 0.000778
114 0.000784
115 0.000791
116 0.000799
117 0.000808
118 0.000819
119 0.000827
120 0.000834
121 0.000842
122 0.000847
123 0.000849
124 0.000848
125 0.000847
126 0.000847
127 0.000846
128 0.000847
129 0.000851
130 0.000851
131 0.000847
132 0.000844
133 0.000841
134 0.000840
135 0.000840
136 0.000837
137 0.000834
138 0.000831
139 0.000832
140 0.000822
141 0.000814
142 0.000812
143 0.000804
144 0.000798
145 0.000795
146 0.000789
147 0.000788
148 0.000785
149 0.000786
150 0.000785
151 0.000780
152 0.000772
153 0.000759
154 0.000752
155 0.000749
156 0.000746
157 0.000748
158 0.000749
159 0.000751
160 0.000752
161 0.000754
162 0.000754
163 0.000750
164 0.000750
165 0.000749
166 0.000751
167 0.000753
168 0.000757
169 0.000758
170 0.000758
171 0.000760
172 0.000761
173 0.000760
174 0.000762
175 0.000764
176 0.000765
177 0.000768
178 0.000764
179 0.000763
180 0.000756
181 0.000749
182 0.000736
183 0.000721
184 0.000711
185 0.000701
186 0.000694
187 0.000692
188 0.000694
189 0.000695
190 0.000700
191 0.000698
192 0.000695
193 0.000697
194 0.000700
195 0.000702
196 0.000697
197 0.000697
198 0.000695
199 0.000689
200 0.000679
201 0.000678
202 0.000673
203 0.000667
204 0.000660
205 0.000651
206 0.000645
207 0.000647
208 0.000647
209 0.000646
210 0.000648
211 0.000650
212 0.000654
213 0.000652
214 0.000653
215 0.000653
216 0.000653
217 0.000651
218 0.000643
219 0.000633
220 0.000622
221 0.000619
222 0.000620
223 0.000627
224 0.000630
225 0.000635
226 0.000635
227 0.000634
228 0.000636
229 0.000639
230 0.000643
231 0.000646
232 0.000643
233 0.000635
234 0.000633
235 0.000628
236 0.000622
237 0.000614
238 0.000608
239 0.000603
240 0.000593
241 0.000585
242 0.000577
243 0.000573
244 0.000569
245 0.000564
246 0.000557
247 0.000550
248 0.000540
249 0.000539
250 0.000538
251 0.000533
252 0.000531
253 0.000532
254 0.000535
255 0.000534
256 0.000534
257 0.000537
258 0.000543
259 0.000545
260 0.000542
261 0.000543
262 0.000543
263 0.000545
264 0.000545
265 0.000546
266 0.000545
267 0.000541
268 0.000541
269 0.000542
270 0.000538
271 0.000536
272 0.000528
273 0.000526
274 0.000519
275 0.000517
276 0.000515
277 0.000514
278 0.000511
279 0.000512
280 0.000515
281 0.000520
282 0.000524
283 0.000528
284 0.000531
285 0.000534
286 0.000541
287 0.000549
288 0.000550
289 0.000553
290 0.000553
291 0.000551
292 0.000543
293 0.000538
294 0.000534
295 0.000535
296 0.000535
297 0.000537
298 0.000535
299 0.000533
300 0.000529
301 0.000527
302 0.000519
303 0.000509
304 0.000501
305 0.000493
306 0.000489
307 0.000487
308 0.000490
309 0.000498
310 0.000503
311 0.000506
312 0.000502
313 0.000500
314 0.000498
315 0.000498
316 0.000498
317 0.000501
318 0.000502
319 0.000504
320 0.000504
321 0.000501
322 0.000497
323 0.000493
324 0.000488
325 0.000482
326 0.000476
327 0.000467
328 0.000463
329 0.000457
330 0.000454
331 0.000451
332 0.000448
333 0.000449
334 0.000451
335 0.000454
336 0.000461
337 0.000469
338 0.000474
339 0.000481
340 0.000485
341 0.000488
342 0.000490
343 0.000489
344 0.000489
345 0.000489
346 0.000495
347 0.000501
348 0.000505
349 0.000509
350 0.000512
351 0.000515
352 0.000521
353 0.000523
354 0.000528
355 0.000530
356 0.000528
357 0.000525
358 0.000522
359 0.000517
360 0.000515
361 0.000511
362 0.000506
363 0.000503
364 0.000496
365 0.000492
366 0.000490
367 0.000488
368 0.000488
369 0.000487
370 0.000488
371 0.000486
372 0.000486
373 0.000486
374 0.000484
375 0.000480
376 0.000473
377 0.000462
378 0.000456
379 0.000451
380 0.000448
381 0.000446
382 0.000445
383 0.000444
384 0.000446
385 0.000444
386 0.000438
387 0.000434
388 0.000434
389 0.000436
390 0.000437
391 0.000442
392 0.000449
393 0.000453
394 0.000455
395 0.000454
396 0.000456
397 0.000457
398 0.000456
399 0.000453
400 0.000451
401 0.000450
402 0.000454
403 0.000456
404 0.000460
405 0.000466
406 0.000471
407 0.000473
408 0.000478
409 0.000484
410 0.000488
411 0.000492
412 0.000495
413 0.000498
414 0.000492
415 0.000493
416 0.000488
417 0.000481
418 0.000473
419 0.000466
420 0.000465
421 0.000457
422 0.000448
423 0.000438
424 0.000434
425 0.000431
426 0.000429
427 0.000428
428 0.000427
429 0.000430
430 0.000434
431 0.000435
432 0.000432
433 0.000435
434 0.000429
435 0.000424
436 0.000420
437 0.000420
438 0.000421
439 0.000423
440 0.000426
441 0.000430
442 0.000434
443 0.000433
444 0.000430
445 0.000426
446 0.000424
447 0.000423
448 0.000424
449 0.000417
450 0.000405
451 0.000396
452 0.000391
453 0.000385
454 0.000379
455 0.000377
456 0.000376
457 0.000378
458 0.000375
459 0.000374
460 0.000378
461 0.000378
462 0.000371
463 0.000364
464 0.000359
465 0.000356
466 0.000356
467 0.000354
468 0.000351
469 0.000345
470 0.000343
471 0.000336
472 0.000334
473 0.000329
474 0.000324
475 0.000320
476 0.000320
477 0.000323
478 0.000324
479 0.000321
480 0.000318
481 0.000317
482 0.000312
483 0.000307
484 0.000305
485 0.000308
486 0.000306
487 0.000305
488 0.000304
489 0.000297
490 0.000289
491 0.000278
492 0.000269
493 0.000265
494 0.000259
495 0.000250
496 0.000248
497 0.000244
498 0.000241
499 0.000241
500 0.000244
501 0.000242
502 0.000241
503 0.000236
504 0.000235
505 0.000235
506 0.000231
507 0.000227
508 0.000223
509 0.000218
510 0.000211
511 0.000206
512 0.000209
513 0.000211
514 0.000211
515 0.000214
516 0.000209
517 0.000205
518 0.000203
519 0.000199
520 0.000202
521 0.000201
522 0.000199
523 0.000198
524 0.000198
525 0.000198
526 0.000196
527 0.000199
528 0.000202
529 0.000202
530 0.000204
531 0.000205
532 0.000207
533 0.000207
534 0.000208
535 0.000208
536 0.000204
537 0.000200
538 0.000195
539 0.000192
540 0.000192
541 0.000192
542 0.000192
543 0.000188
544 0.000186
545 0.000187
546 0.000185
547 0.000186
548 0.000192
549 0.000194
550 0.000198
551 0.000202
552 0.000201
553 0.000200
554 0.000196
555 0.000190
556 0.000184
557 0.000173
558 0.000164
559 0.000160
560 0.000157
561 0.000155
562 0.000155
563 0.000158
564 0.000162
565 0.000164
566 0.000166
567 0.000167
568 0.000169
569 0.000176
570 0.000185
571 0.000188
572 0.000193
573 0.000196
574 0.000197
575 0.000200
576 0.000202
577 0.000206
578 0.000212
579 0.000216
580 0.000220
581 0.000221
582 0.000223
583 0.000225
584 0.000224
585 0.000223
586 0.000222
587 0.000218
588 0.000215
589 0.000215
590 0.000216
591 0.000217
592 0.000221
593 0.000225
594 0.000227
595 0.000228
596 0.000231
597 0.000237
598 0.000241
599 0.000246
600 0.000249
601 0.000253
602 0.000253
603 0.000250
604 0.000250
605 0.000252
606 0.000257
607 0.000263
608 0.000265
609 0.000267
610 0.000271
611 0.000270
612 0.000269
613 0.000265
614 0.000260
615 0.000259
616 0.000254
617 0.000251
618 0.000246
619 0.000244
620 0.000243
621 0.000247
622 0.000252
623 0.000259
624 0.000261
625 0.000258
626 0.000255
627 0.000251
628 0.000249
629 0.000247
630 0.000244
631 0.000243
632 0.000242
633 0.000236
634 0.000236
635 0.000238
636 0.000243
637 0.000245
638 0.000247
639 0.000250
640 0.000250
641 0.000253
642 0.000253
643 0.000253
644 0.000251
645 0.000249
646 0.000245
647 0.000243
648 0.000240
649 0.000236
650 0.000232
651 0.000226
652 0.000221
653 0.000218
654 0.000221
655 0.000226
656 0.000230
657 0.000228
658 0.000227
659 0.000226
660 0.000226
661 0.000228
662 0.000230
663 0.000233
664 0.000234
665 0.000240
666 0.000240
667 0.000242
668 0.000244
669 0.000249
670 0.000253
671 0.000255
672 0.000256
673 0.000253
674 0.000251
675 0.000250
676 0.000248
677 0.000251
678 0.000251
679 0.000249
680 0.000244
681 0.000238
682 0.000233
683 0.000231
684 0.000227
685 0.000222
686 0.000215
687 0.000205
688 0.000195
689 0.000185
690 0.000176
691 0.000172
692 0.000170
693 0.000168
694 0.000162
695 0.000159
696 0.000155
697 0.000150
698 0.000149
699 0.000148
700 0.000145
701 0.000144
702 0.000145
703 0.000143
704 0.000139
705 0.000137
706 0.000139
707 0.000140
708 0.000141
709 0.000143
710 0.000146
711 0.000148
712 0.000151
713 0.000150
714 0.000150
715 0.000151
716 0.000148
717 0.000148
718 0.000144
719 0.000138
720 0.000134
721 0.000131
722 0.000129
723 0.000127
724 0.000128
725 0.000129
726 0.000129
727 0.000132
728 0.000135
729 0.000137
730 0.000139
731 0.000140
732 0.000140
733 0.000136
734 0.000132
735 0.000131
736 0.000129
737 0.000128
738 0.000129
739 0.000129
740 0.000129
741 0.000128
742 0.000127
743 0.000131
744 0.000136
745 0.000141
746 0.000147
747 0.000151
748 0.000152
749 0.000155
750 0.000158
751 0.000163
752 0.000166
753 0.000167
754 0.000168
755 0.000164
756 0.000161
757 0.000164
758 0.000164
759 0.000164
760 0.000163
761 0.000160
762 0.000157
763 0.000153
764 0.000150
765 0.000151
766 0.000150
767 0.000152
768 0.000149
769 0.000148
770 0.000148
771 0.000148
772 0.000148
773 0.000149
774 0.000150
775 0.000147
776 0.000146
777 0.000143
778 0.000141
779 0.000139
780 0.000137
781 0.000135
782 0.000131
783 0.000128
784 0.000125
785 0.000125
786 0.000126
787 0.000128
788 0.000130
789 0.000133
790 0.000136
791 0.000138
792 0.000138
793 0.000136
794 0.000137
795 0.000140
796 0.000144
797 0.000149
798 0.000151
799 0.000153
800 0.000157
801 0.000159
802 0.000162
803 0.000165
804 0.000168
805 0.000170
806 0.000169
807 0.000168
808 0.000168
809 0.000167
