# i correlation
1 0.001862
2 0.001811
3 0.001767
4 0.001723
5 0.001688
6 0.001656
7 0.001629
8 0.001604
9 0.001583
10 0.001565
11 0.001554
12 0.001541
13 0.001527
14 0.001515
15 0.001500
16 0.001483
17 0.001470
18 0.001453
19 0.001434
20 0.001419
21 0.001400
22 0.001383
23 0.001375
24 0.001362
25 0.001347
26 0.001338
27 0.001324
28 0.001313
29 0.001309
30 0.001304
31 0.001298
32 0.001289
33 0.001288
34 0.001288
35 0.001282
36 0.001275
37 0.001269
38 0.001258
39 0.001249
40 0.001245
41 0.001244
42 0.001240
43 0.001234
44 0.001223
45 0.001211
46 0.001205
47 0.001205
48 0.001202
49 0.001200
50 0.001201
51 0.001191
52 0.001187
53 0.001182
54 0.001177
55 0.001166
56 0.001155
57 0.001144
58 0.001133
59 0.001120
60 0.001104
61 0.001097
62 0.001086
63 0.001072
64 0.001066
65 0.001060
66 0.001052
67 0.001051
68 0.001044
69 0.001044
70 0.001045
71 0.001040
72 0.001033
73 0.001027
74 0.001023
75 0.001014
76 0.001008
77 0.001003
78 0.000995
79 0.000985
80 0.000976
81 0.000966
82 0.000959
83 0.000952
84 0.000951
85 0.000951
86 0.000953
87 0.000956
88 0.000954
89 0.000948
90 0.000945
91 0.000944
92 0.000939
93 0.000930
94 0.000921
95 0.000917
96 0.000915
97 0.000910
98 0.000904
99 0.000898
100 0.000893
101 0.000889
102 0.000888
103 0.000887
104 0.000890
105 0.000892
106 0.000897
107 0.000902
108 0.000905
109 0.000905
110 0.000897
111 0.000893
112 0.000892
113 0.000891
114 0.000893
115 0.000893
116 0.000896
117 0.000895
118 0.000894
119 0.000893
120 0.000892
121 0.000888
122 0.000884
123 0.000882
124 0.000884
125 0.000885
126 0.000880
127 0.000874
128 0.000870
129 0.000875
130 0.000879
131 0.000884
132 0.000887
133 0.000887
134 0.000879
135 0.000868
136 0.000859
137 0.000849
138 0.000841
139 0.000833
140 0.000823
141 0.000809
142 0.000799
143 0.000793
144 0.000783
145 0.000778
146 0.000769
147 0.000756
148 0.000747
149 0.000736
150 0.000727
151 0.000721
152 0.000714
153 0.000704
154 0.000700
155 0.000697
156 0.000693
157 0.000692
158 0.000688
159 0.000685
160 0.000681
161 0.000678
162 0.000679
163 0.000681
164 0.000679
165 0.000678
166 0.000681
167 0.000679
168 0.000676
169 0.000677
170 0.000674
171 0.000672
172 0.000669
173 0.000662
174 0.000657
175 0.000649
176 0.000643
177 0.000647
178 0.000648
179 0.000651
180 0.000654
181 0.000661
182 0.000662
183 0.000667
184 0.000669
185 0.000674
186 0.000680
187 0.000680
188 0.000679
189 0.000679
190 0.000675
191 0.000673
192 0.000673
193 0.000669
194 0.000667
195 0.000667
196 0.000666
197 0.000660
198 0.000655
199 0.000652
200 0.000650
201 0.000652
202 0.000649
203 0.000648
204 0.000643
205 0.000637
206 0.000637
207 0.000636
208 0.000638
209 0.000636
210 0.000639
211 0.000634
212 0.000630
213 0.000623
214 0.000617
215 0.000614
216 0.000612
217 0.000608
218 0.000604
219 0.000603
220 0.000607
221 0.000615
222 0.000621
223 0.000622
224 0.000622
225 0.000622
226 0.000619
227 0.000611
228 0.000601
229 0.000593
230 0.000581
231 0.000570
232 0.000569
233 0.000571
234 0.000571
235 0.000568
236 0.000573
237 0.000575
238 0.000580
239 0.000588
240 0.000590
241 0.000589
242 0.000591
243 0.000591
244 0.000592
245 0.000587
246 0.000581
247 0.000579
248 0.000574
249 0.000571
250 0.000566
251 0.000564
252 0.000552
253 0.000541
254 0.000530
255 0.000523
256 0.000514
257 0.000510
258 0.000509
259 0.000511
260 0.000513
261 0.000507
262 0.000505
263 0.000504
264 0.000497
265 0.000486
266 0.000475
267 0.000460
268 0.000449
269 0.000446
270 0.000441
271 0.000437
272 0.000433
273 0.000433
274 0.000434
275 0.000432
276 0.000432
277 0.000426
278 0.000420
279 0.000415
280 0.000407
281 0.000397
282 0.000388
283 0.000382
284 0.000372
285 0.000362
286 0.000363
287 0.000365
288 0.000366
289 0.000369
290 0.000373
291 0.000377
292 0.000385
293 0.000393
294 0.000400
295 0.000407
296 0.000412
297 0.000418
298 0.000419
299 0.000418
300 0.000420
301 0.000422
302 0.000423
303 0.000428
304 0.000428
305 0.000429
306 0.000427
307 0.000426
308 0.000428
309 0.000436
310 0.000441
311 0.000443
312 0.000449
313 0.000456
314 0.000457
315 0.000455
316 0.000451
317 0.000446
318 0.000442
319 0.000439
320 0.000440
321 0.000437
322 0.000433
323 0.000430
324 0.000431
325 0.000432
326 0.000432
327 0.000429
328 0.000431
329 0.000432
330 0.000432
331 0.000431
332 0.000431
333 0.000431
334 0.000429
335 0.000426
336 0.000420
337 0.000409
338 0.000401
339 0.000394
340 0.000387
341 0.000384
342 0.000379
343 0.000382
344 0.000380
345 0.000378
346 0.000378
347 0.000378
348 0.000379
349 0.000378
350 0.000383
351 0.000385
352 0.000383
353 0.000383
354 0.000382
355 0.000382
356 0.000379
357 0.000374
358 0.000369
359 0.000366
360 0.000366
361 0.000368
362 0.000374
363 0.000378
364 0.000382
365 0.000390
366 0.000396
367 0.000403
368 0.000406
369 0.000408
370 0.000402
371 0.000394
372 0.000388
373 0.000385
374 0.000384
375 0.000380
376 0.000380
377 0.000380
378 0.000386
379 0.000388
380 0.000393
381 0.000395
382 0.000393
383 0.000392
384 0.000389
385 0.000384
386 0.000375
387 0.000368
388 0.000357
389 0.000346
390 0.000336
391 0.000327
392 0.000317
393 0.000309
394 0.000304
395 0.000303
396 0.000300
397 0.000298
398 0.000295
399 0.000294
400 0.000298
401 0.000302
402 0.000310
403 0.000319
404 0.000322
405 0.000330
406 0.000335
407 0.000338
408 0.000343
409 0.000345
410 0.000348
411 0.000350
412 0.000354
413 0.000352
414 0.000352
415 0.000351
416 0.000350
417 0.000354
418 0.000354
419 0.000354
420 0.000357
421 0.000358
422 0.000359
423 0.000359
424 0.000355
425 0.000354
426 0.000356
427 0.000353
428 0.000358
429 0.000358
430 0.000359
431 0.000363
432 0.000363
433 0.000360
434 0.000366
435 0.000374
436 0.000375
437 0.000377
438 0.000375
439 0.000373
440 0.000375
441 0.000378
442 0.000383
443 0.000392
444 0.000395
445 0.000403
446 0.000411
447 0.000416
448 0.000424
449 0.000430
450 0.000432
451 0.000434
452 0.000436
453 0.000435
454 0.000434
455 0.000435
456 0.000428
457 0.000426
458 0.000426
459 0.000426
460 0.000428
461 0.000427
462 0.000421
463 0.000412
464 0.000409
465 0.000406
466 0.000400
467 0.000393
468 0.000387
469 0.000383
470 0.000377
471 0.000372
472 0.000368
473 0.000362
474 0.000354
475 0.000347
476 0.000341
477 0.000334
478 0.000324
479 0.000313
480 0.000300
481 0.000292
482 0.000286
483 0.000280
484 0.000282
485 0.000283
486 0.000286
487 0.000290
488 0.000288
489 0.000290
490 0.000289
491 0.000286
492 0.000287
493 0.000288
494 0.000287
495 0.000289
496 0.000294
497 0.000299
498 0.000309
499 0.000316
500 0.000324
501 0.000330
502 0.000333
503 0.000329
504 0.000323
505 0.000318
506 0.000307
507 0.000300
508 0.000295
509 0.000293
510 0.000292
511 0.000293
512 0.000297
513 0.000304
514 0.000308
515 0.000313
516 0.000314
517 0.000314
518 0.000314
519 0.000315
520 0.000315
521 0.000313
522 0.000309
523 0.000304
524 0.000297
525 0.000288
526 0.000288
527 0.000286
528 0.000283
529 0.000280
530 0.000278
531 0.000280
532 0.000284
533 0.000286
534 0.000293
535 0.000298
536 0.000301
537 0.000303
538 0.000303
539 0.000305
540 0.000304
541 0.000303
542 0.000305
543 0.000304
544 0.000300
545 0.000296
546 0.000296
547 0.000298
548 0.000300
549 0.000298
550 0.000295
551 0.000297
552 0.000300
553 0.000302
554 0.000305
555 0.000307
556 0.000311
557 0.000313
558 0.000315
559 0.000316
560 0.000319
561 0.000319
562 0.000321
563 0.000321
564 0.000319
565 0.000320
566 0.000323
567 0.000328
568 0.000334
569 0.000339
570 0.000341
571 0.000342
572 0.000344
573 0.000344
574 0.000340
575 0.000339
576 0.000339
577 0.000340
578 0.000333
579 0.000329
580 0.000324
581 0.000313
582 0.000302
583 0.000294
584 0.000290
585 0.000289
586 0.000286
587 0.000283
588 0.000281
589 0.000281
590 0.000282
591 0.000281
592 0.000277
593 0.000274
594 0.000273
595 0.000268
596 0.000260
597 0.000252
598 0.000246
599 0.000236
600 0.000229
601 0.000225
602 0.000221
603 0.000222
604 0.000222
605 0.000222
606 0.000227
607 0.000231
608 0.000235
609 0.000239
610 0.000240
611 0.000238
612 0.000234
613 0.000231
614 0.000228
615 0.000224
616 0.000223
617 0.000222
618 0.000222
619 0.000221
620 0.000222
621 0.000220
622 0.000219
623 0.000219
624 0.000221
625 0.000222
626 0.000221
627 0.000225
628 0.000226
629 0.000233
630 0.000238
631 0.000241
632 0.000239
633 0.000237
634 0.000237
635 0.000237
636 0.000238
637 0.000236
638 0.000238
639 0.000234
640 0.000231
641 0.000227
642 0.000222
643 0.000219
644 0.000219
645 0.000214
646 0.000210
647 0.000209
648 0.000204
649 0.000200
650 0.000197
651 0.000195
652 0.000192
653 0.000189
654 0.000186
655 0.000186
656 0.000189
657 0.000190
658 0.000190
659 0.000190
660 0.000187
661 0.000185
662 0.000177
663 0.000173
664 0.000176
665 0.000178
666 0.000179
667 0.000183
668 0.000183
669 0.000177
670 0.000174
671 0.000174
672 0.000174
673 0.000170
674 0.000169
675 0.000165
676 0.000161
677 0.000159
678 0.000157
679 0.000155
680 0.000151
681 0.000149
682 0.000150
683 0.000149
684 0.000149
685 0.000152
686 0.000155
687 0.000153
688 0.000150
689 0.000147
690 0.000143
691 0.000141
692 0.000143
693 0.000143
694 0.000146
695 0.000144
696 0.000142
697 0.000143
698 0.000144
699 0.000144
700 0.000145
701 0.000150
702 0.000151
703 0.000148
704 0.000145
705 0.000142
706 0.000138
707 0.000131
708 0.000133
709 0.000135
710 0.000132
711 0.000130
712 0.000128
713 0.000126
714 0.000122
715 0.000122
716 0.000123
717 0.000121
718 0.000118
719 0.000112
720 0.000105
721 0.000099
722 0.000095
723 0.000091
724 0.000086
725 0.000082
726 0.000079
727 0.000075
728 0.000075
729 0.000073
730 0.000070
731 0.000069
732 0.000064
733 0.000061
734 0.000062
735 0.000063
736 0.000064
737 0.000063
738 0.000063
739 0.000063
740 0.000062
741 0.000062
742 0.000062
743 0.000062
744 0.000066
745 0.000069
746 0.000072
747 0.000075
748 0.000080
749 0.000085
750 0.000091
751 0.000097
752 0.000102
753 0.000106
754 0.000108
755 0.000108
756 0.000112
757 0.000114
758 0.000117
759 0.000121
760 0.000126
761 0.000128
762 0.000135
763 0.000142
764 0.000145
765 0.000150
766 0.000150
767 0.000148
768 0.000150
769 0.000149
770 0.000152
771 0.000153
772 0.000154
773 0.000155
774 0.000156
775 0.000155
776 0.000154
777 0.000153
778 0.000152
779 0.000154
780 0.000158
781 0.000162
782 0.000165
783 0.000167
784 0.000168
785 0.000168
786 0.000169
787 0.000170
788 0.000171
789 0.000172
790 0.000174
791 0.000176
792 0.000177
793 0.000177
794 0.000178
795 0.000179
796 0.000182
797 0.000185
798 0.000187
799 0.000186
800 0.000187
801 0.000188
802 0.000188
803 0.000187
804 0.000187
805 0.000187
806 0.000187
807 0.000189
808 0.000187
809 0.000189
