# i correlation
1 0.001615
2 0.001572
3 0.001541
4 0.001510
5 0.001483
6 0.001459
7 0.001436
8 0.001417
9 0.001398
10 0.001384
11 0.001373
12 0.001367
13 0.001358
14 0.001347
15 0.001339
16 0.001334
17 0.001328
18 0.001322
19 0.001317
20 0.001315
21 0.001313
22 0.001308
23 0.001301
24 0.001290
25 0.001282
26 0.001273
27 0.001265
28 0.001260
29 0.001254
30 0.001244
31 0.001234
32 0.001230
33 0.001224
34 0.001220
35 0.001211
36 0.001200
37 0.001195
38 0.001191
39 0.001184
40 0.001176
41 0.001169
42 0.001163
43 0.001153
44 0.001147
45 0.001140
46 0.001137
47 0.001134
48 0.001125
49 0.001117
50 0.001111
51 0.001106
52 0.001099
53 0.001095
54 0.001094
55 0.001094
56 0.001091
57 0.001084
58 0.001082
59 0.001084
60 0.001079
61 0.001080
62 0.001080
63 0.001068
64 0.001057
65 0.001049
66 0.001045
67 0.001040
68 0.001034
69 0.001029
70 0.001022
71 0.001016
72 0.001002
73 0.000985
74 0.000969
75 0.000959
76 0.000950
77 0.000943
78 0.000937
79 0.000936
80 0.000931
81 0.000931
82 0.000934
83 0.000935
84 0.000939
85 0.000939
86 0.000933
87 0.000925
88 0.000923
89 0.000923
90 0.000924
91 0.000926
92 0.000924
93 0.000918
94 0.000914
95 0.000903
96 0.000898
97 0.000894
98 0.000892
99 0.000890
100 0.000887
101 0.000882
102 0.000881
103 0.000876
104 0.000875
105 0.000877
106 0.000879
107 0.000875
108 0.000873
109 0.000870
110 0.000867
111 0.000861
112 0.000853
113 0.000845
114 0.000834
115 0.000826
116 0.000821
117 0.000820
118 0.000817
119 0.000811
120 0.000806
121 0.000806
122 0.000803
123 0.000803
124 0.000797
125 0.000795
126 0.000792
127 0.000795
128 0.000799
129 0.000796
130 0.000794
131 0.000799
132 0.000798
133 0.000793
134 0.000789
135 0.000782
136 0.000782
137 0.000780
138 0.000780
139 0.000783
140 0.000782
141 0.000782
142 0.000777
143 0.000777
144 0.000778
145 0.000776
146 0.000774
147 0.000772
148 0.000768
149 0.000765
150 0.000760
151 0.000759
152 0.000761
153 0.000760
154 0.000759
155 0.000761
156 0.000760
157 0.000756
158 0.000755
159 0.000755
160 0.000755
161 0.000753
162 0.000752
163 0.000750
164 0.000750
165 0.000750
166 0.000747
167 0.000743
168 0.000743
169 0.000744
170 0.000744
171 0.000741
172 0.000731
173 0.000725
174 0.000720
175 0.000714
176 0.000710
177 0.000707
178 0.000707
179 0.000707
180 0.000702
181 0.000702
182 0.000699
183 0.000699
184 0.000693
185 0.000686
186 0.000679
187 0.000680
188 0.000679
189 0.000678
190 0.000684
191 0.000690
192 0.000694
193 0.000700
194 0.000705
195 0.000707
196 0.000703
197 0.000703
198 0.000705
199 0.000703
200 0.000701
201 0.000698
202 0.000700
203 0.000701
204 0.000696
205 0.000692
206 0.000685
207 0.000680
208 0.000672
209 0.000667
210 0.000664
211 0.000655
212 0.000647
213 0.000644
214 0.000638
215 0.000634
216 0.000629
217 0.000626
218 0.000624
219 0.000621
220 0.000624
221 0.000625
222 0.000625
223 0.000628
224 0.000625
225 0.000624
226 0.000624
227 0.000621
228 0.000618
229 0.000619
230 0.000621
231 0.000617
232 0.000613
233 0.000613
234 0.000612
235 0.000608
236 0.000608
237 0.000611
238 0.000610
239 0.000610
240 0.000610
241 0.000610
242 0.000609
243 0.000608
244 0.000609
245 0.000612
246 0.000614
247 0.000615
248 0.000613
249 0.000617
250 0.000614
251 0.000610
252 0.000606
253 0.000608
254 0.000608
255 0.000606
256 0.000601
257 0.000598
258 0.000595
259 0.000594
260 0.000596
261 0.000596
262 0.000596
263 0.000593
264 0.000590
265 0.000586
266 0.000583
267 0.000578
268 0.000574
269 0.000570
270 0.000562
271 0.000555
272 0.000552
273 0.000549
274 0.000548
275 0.000546
276 0.000546
277 0.000545
278 0.000541
279 0.000538
280 0.000538
281 0.000538
282 0.000540
283 0.000543
284 0.000546
285 0.000548
286 0.000549
287 0.000551
288 0.000553
289 0.000556
290 0.000549
291 0.000546
292 0.000545
293 0.000540
294 0.000535
295 0.000529
296 0.000523
297 0.000519
298 0.000512
299 0.000509
300 0.000506
301 0.000503
302 0.000499
303 0.000493
304 0.000489
305 0.000486
306 0.000486
307 0.000489
308 0.000493
309 0.000495
310 0.000494
311 0.000491
312 0.000493
313 0.000492
314 0.000494
315 0.000501
316 0.000501
317 0.000501
318 0.000502
319 0.000505
320 0.000508
321 0.000508
322 0.000508
323 0.000503
324 0.000503
325 0.000505
326 0.000502
327 0.000498
328 0.000498
329 0.000498
330 0.000499
331 0.000495
332 0.000490
333 0.000487
334 0.000481
335 0.000479
336 0.000477
337 0.000477
338 0.000480
339 0.000483
340 0.000482
341 0.000484
342 0.000485
343 0.000483
344 0.000481
345 0.000482
346 0.000485
347 0.000487
348 0.000487
349 0.000486
350 0.000481
351 0.000479
352 0.000473
353 0.000467
354 0.000465
355 0.000463
356 0.000457
357 0.000452
358 0.000447
359 0.000442
360 0.000438
361 0.000434
362 0.000432
363 0.000431
364 0.000429
365 0.000427
366 0.000427
367 0.000427
368 0.000431
369 0.000427
370 0.000423
371 0.000419
372 0.000412
373 0.000405
374 0.000402
375 0.000399
376 0.000401
377 0.000400
378 0.000398
379 0.000396
380 0.000397
381 0.000399
382 0.000397
383 0.000396
384 0.000394
385 0.000393
386 0.000393
387 0.000390
388 0.000390
389 0.000392
390 0.000393
391 0.000396
392 0.000396
393 0.000395
394 0.000392
395 0.000384
396 0.000379
397 0.000379
398 0.000377
399 0.000376
400 0.000379
401 0.000383
402 0.000379
403 0.000374
404 0.000371
405 0.000366
406 0.000361
407 0.000357
408 0.000356
409 0.000355
410 0.000352
411 0.000347
412 0.000343
413 0.000342
414 0.000343
415 0.000343
416 0.000339
417 0.000334
418 0.000332
419 0.000331
420 0.000329
421 0.000330
422 0.000327
423 0.000326
424 0.000327
425 0.000326
426 0.000325
427 0.000327
428 0.000327
429 0.000326
430 0.000328
431 0.000329
432 0.000331
433 0.000329
434 0.000327
435 0.000328
436 0.000327
437 0.000325
438 0.000325
439 0.000323
440 0.000323
441 0.000318
442 0.000313
443 0.000313
444 0.000308
445 0.000304
446 0.000306
447 0.000312
448 0.000316
449 0.000319
450 0.000320
451 0.000325
452 0.000327
453 0.000332
454 0.000333
455 0.000332
456 0.000332
457 0.000329
458 0.000325
459 0.000322
460 0.000322
461 0.000318
462 0.000315
463 0.000312
464 0.000305
465 0.000298
466 0.000294
467 0.000292
468 0.000296
469 0.000297
470 0.000296
471 0.000296
472 0.000299
473 0.000296
474 0.000297
475 0.000298
476 0.000302
477 0.000303
478 0.000302
479 0.000303
480 0.000306
481 0.000308
482 0.000309
483 0.000311
484 0.000311
485 0.000313
486 0.000315
487 0.000315
488 0.000314
489 0.000308
490 0.000304
491 0.000302
492 0.000297
493 0.000292
494 0.000292
495 0.000291
496 0.000287
497 0.000286
498 0.000287
499 0.000290
500 0.000290
501 0.000290
502 0.000291
503 0.000292
504 0.000292
505 0.000289
506 0.000287
507 0.000287
508 0.000287
509 0.000290
510 0.000291
511 0.000291
512 0.000291
513 0.000291
514 0.000289
515 0.000292
516 0.000294
517 0.000295
518 0.000294
519 0.000295
520 0.000296
521 0.000295
522 0.000300
523 0.000301
524 0.000299
525 0.000298
526 0.000295
527 0.000289
528 0.000286
529 0.000286
530 0.000285
531 0.000286
532 0.000286
533 0.000284
534 0.000282
535 0.000279
536 0.000281
537 0.000285
538 0.000289
539 0.000289
540 0.000290
541 0.000293
542 0.000298
543 0.000298
544 0.000299
545 0.000298
546 0.000296
547 0.000293
548 0.000290
549 0.000288
550 0.000283
551 0.000274
552 0.000266
553 0.000258
554 0.000249
555 0.000241
556 0.000234
557 0.000228
558 0.000225
559 0.000226
560 0.000224
561 0.000222
562 0.000222
563 0.000221
564 0.000219
565 0.000217
566 0.000216
567 0.000214
568 0.000212
569 0.000212
570 0.000215
571 0.000221
572 0.000223
573 0.000225
574 0.000228
575 0.000228
576 0.000226
577 0.000223
578 0.000225
579 0.000225
580 0.000222
581 0.000218
582 0.000215
583 0.000213
584 0.000217
585 0.000221
586 0.000219
587 0.000219
588 0.000214
589 0.000207
590 0.000198
591 0.000194
592 0.000189
593 0.000187
594 0.000185
595 0.000183
596 0.000180
597 0.000178
598 0.000175
599 0.000173
600 0.000171
601 0.000167
602 0.000162
603 0.000159
604 0.000155
605 0.000151
606 0.000149
607 0.000148
608 0.000147
609 0.000146
610 0.000141
611 0.000137
612 0.000135
613 0.000136
614 0.000133
615 0.000131
616 0.000126
617 0.000122
618 0.000117
619 0.000111
620 0.000104
621 0.000098
622 0.000091
623 0.000085
624 0.000080
625 0.000077
626 0.000076
627 0.000076
628 0.000080
629 0.000083
630 0.000089
631 0.000094
632 0.000098
633 0.000104
634 0.000110
635 0.000112
636 0.000113
637 0.000111
638 0.000110
639 0.000108
640 0.000112
641 0.000116
642 0.000116
643 0.000116
644 0.000116
645 0.000117
646 0.000115
647 0.000113
648 0.000110
649 0.000108
650 0.000109
651 0.000107
652 0.000100
653 0.000100
654 0.000101
655 0.000098
656 0.000097
657 0.000098
658 0.000096
659 0.000091
660 0.000087
661 0.000082
662 0.000079
663 0.000078
664 0.000079
665 0.000079
666 0.000080
667 0.000080
668 0.000083
669 0.000087
670 0.000090
671 0.000088
672 0.000083
673 0.000080
674 0.000077
675 0.000078
676 0.000079
677 0.000082
678 0.000084
679 0.000086
680 0.000090
681 0.000096
682 0.000101
683 0.000105
684 0.000106
685 0.000109
686 0.000112
687 0.000114
688 0.000112
689 0.000112
690 0.000111
691 0.000111
692 0.000111
693 0.000111
694 0.000107
695 0.000106
696 0.000107
697 0.000108
698 0.000111
699 0.000112
700 0.000115
701 0.000120
702 0.000124
703 0.000127
704 0.000130
705 0.000133
706 0.000136
707 0.000141
708 0.000143
709 0.000145
710 0.000147
711 0.000147
712 0.000148
713 0.000147
714 0.000147
715 0.000150
716 0.000150
717 0.000151
718 0.000152
719 0.000151
720 0.000151
721 0.000151
722 0.000150
723 0.000151
724 0.000150
725 0.000150
726 0.000150
727 0.000147
728 0.000144
729 0.000142
730 0.000142
731 0.000141
732 0.000141
733 0.000137
734 0.000134
735 0.000133
736 0.000133
737 0.000133
738 0.000132
739 0.000135
740 0.000140
741 0.000144
742 0.000147
743 0.000150
744 0.000151
745 0.000151
746 0.000151
747 0.000151
748 0.000150
749 0.000149
750 0.000145
751 0.000140
752 0.000139
753 0.000135
754 0.000131
755 0.000125
756 0.000120
757 0.000116
758 0.000110
759 0.000104
760 0.000097
761 0.000093
762 0.000090
763 0.000087
764 0.000085
765 0.000083
766 0.000081
767 0.000081
768 0.000083
769 0.000086
770 0.000087
771 0.000088
772 0.000088
773 0.000088
774 0.000088
775 0.000088
776 0.000091
777 0.000094
778 0.000094
779 0.000094
780 0.000092
781 0.000090
782 0.000089
783 0.000088
784 0.000087
785 0.000086
786 0.000085
787 0.000085
788 0.000084
789 0.000087
790 0.000085
791 0.000085
792 0.000087
793 0.000086
794 0.000086
795 0.000083
796 0.000082
797 0.000084
798 0.000086
799 0.000087
800 0.000087
801 0.000086
802 0.000085
803 0.000084
804 0.000082
805 0.000083
806 0.000084
807 0.000084
808 0.000084
809 0.000088
