# i correlation
1 0.001916
2 0.001858
3 0.001812
4 0.001770
5 0.001728
6 0.001689
7 0.001651
8 0.001623
9 0.001597
10 0.001570
11 0.001541
12 0.001518
13 0.001499
14 0.001486
15 0.001474
16 0.001466
17 0.001457
18 0.001453
19 0.001448
20 0.001433
21 0.001425
22 0.001422
23 0.001419
24 0.001408
25 0.001400
26 0.001392
27 0.001386
28 0.001377
29 0.001366
30 0.001356
31 0.001343
32 0.001334
33 0.001327
34 0.001311
35 0.001290
36 0.001273
37 0.001259
38 0.001244
39 0.001232
40 0.001220
41 0.001211
42 0.001206
43 0.001201
44 0.001197
45 0.001185
46 0.001174
47 0.001168
48 0.001165
49 0.001163
50 0.001158
51 0.001151
52 0.001143
53 0.001139
54 0.001138
55 0.001141
56 0.001145
57 0.001146
58 0.001143
59 0.001134
60 0.001126
61 0.001126
62 0.001128
63 0.001137
64 0.001141
65 0.001144
66 0.001146
67 0.001145
68 0.001143
69 0.001140
70 0.001134
71 0.001129
72 0.001126
73 0.001124
74 0.001116
75 0.001104
76 0.001095
77 0.001088
78 0.001074
79 0.001059
80 0.001046
81 0.001032
82 0.001022
83 0.001009
84 0.000999
85 0.000989
86 0.000984
87 0.000986
88 0.000985
89 0.000980
90 0.000976
91 0.000973
92 0.000969
93 0.000960
94 0.000947
95 0.000944
96 0.000943
97 0.000944
98 0.000945
99 0.000944
100 0.000942
101 0.000943
102 0.000938
103 0.000928
104 0.000927
105 0.000933
106 0.000936
107 0.000938
108 0.000932
109 0.000921
110 0.000914
111 0.000907
112 0.000898
113 0.000889
114 0.000888
115 0.000882
116 0.000877
117 0.000870
118 0.000858
119 0.000848
120 0.000846
121 0.000846
122 0.000845
123 0.000843
124 0.000841
125 0.000837
126 0.000832
127 0.000830
128 0.000826
129 0.000828
130 0.000832
131 0.000834
132 0.000835
133 0.000832
134 0.000835
135 0.000832
136 0.000826
137 0.000821
138 0.000823
139 0.000828
140 0.000834
141 0.000837
142 0.000841
143 0.000845
144 0.000845
145 0.000840
146 0.000832
147 0.000821
148 0.000819
149 0.000814
150 0.000808
151 0.000796
152 0.000782
153 0.000779
154 0.000773
155 0.000764
156 0.000757
157 0.000754
158 0.000749
159 0.000743
160 0.000742
161 0.000747
162 0.000752
163 0.000758
164 0.000761
165 0.000763
166 0.000766
167 0.000765
168 0.000763
169 0.000762
170 0.000766
171 0.000778
172 0.000786
173 0.000789
174 0.000793
175 0.000798
176 0.000802
177 0.000802
178 0.000804
179 0.000802
180 0.000800
181 0.000794
182 0.000781
183 0.000766
184 0.000749
185 0.000730
186 0.000715
187 0.000706
188 0.000702
189 0.000694
190 0.000689
191 0.000684
192 0.000681
193 0.000683
194 0.000690
195 0.000693
196 0.000698
197 0.000705
198 0.000716
199 0.000721
200 0.000725
201 0.000721
202 0.000717
203 0.000715
204 0.000714
205 0.000716
206 0.000715
207 0.000710
208 0.000703
209 0.000688
210 0.000671
211 0.000655
212 0.000645
213 0.000635
214 0.000627
215 0.000617
216 0.000612
217 0.000610
218 0.000606
219 0.000609
220 0.000613
221 0.000620
222 0.000627
223 0.000627
224 0.000626
225 0.000626
226 0.000621
227 0.000618
228 0.000614
229 0.000609
230 0.000605
231 0.000602
232 0.000595
233 0.000588
234 0.000582
235 0.000579
236 0.000582
237 0.000584
238 0.000587
239 0.000589
240 0.000587
241 0.000587
242 0.000584
243 0.000584
244 0.000590
245 0.000593
246 0.000592
247 0.000589
248 0.000584
249 0.000583
250 0.000582
251 0.000580
252 0.000577
253 0.000571
254 0.000568
255 0.000563
256 0.000554
257 0.000541
258 0.000530
259 0.000521
260 0.000514
261 0.000511
262 0.000510
263 0.000514
264 0.000522
265 0.000525
266 0.000528
267 0.000530
268 0.000537
269 0.000545
270 0.000552
271 0.000560
272 0.000569
273 0.000569
274 0.000567
275 0.000568
276 0.000565
277 0.000566
278 0.000568
279 0.000567
280 0.000566
281 0.000563
282 0.000565
283 0.000565
284 0.000560
285 0.000559
286 0.000558
287 0.000559
288 0.000559
289 0.000553
290 0.000543
291 0.000534
292 0.000526
293 0.000523
294 0.000520
295 0.000519
296 0.000516
297 0.000509
298 0.000501
299 0.000493
300 0.000485
301 0.000478
302 0.000471
303 0.000467
304 0.000470
305 0.000478
306 0.000484
307 0.000489
308 0.000489
309 0.000489
310 0.000491
311 0.000492
312 0.000493
313 0.000492
314 0.000492
315 0.000492
316 0.000490
317 0.000486
318 0.000489
319 0.000491
320 0.000492
321 0.000496
322 0.000500
323 0.000499
324 0.000495
325 0.000486
326 0.000484
327 0.000484
328 0.000485
329 0.000487
330 0.000486
331 0.000483
332 0.000478
333 0.000474
334 0.000471
335 0.000464
336 0.000461
337 0.000466
338 0.000468
339 0.000468
340 0.000470
341 0.000471
342 0.000473
343 0.000479
344 0.000487
345 0.000496
346 0.000500
347 0.000501
348 0.000504
349 0.000512
350 0.000519
351 0.000530
352 0.000542
353 0.000551
354 0.000555
355 0.000553
356 0.000552
357 0.000547
358 0.000534
359 0.000527
360 0.000521
361 0.000518
362 0.000513
363 0.000504
364 0.000488
365 0.000479
366 0.000468
367 0.000456
368 0.000446
369 0.000437
370 0.000437
371 0.000439
372 0.000441
373 0.000442
374 0.000442
375 0.000445
376 0.000449
377 0.000453
378 0.000457
379 0.000460
380 0.000465
381 0.000466
382 0.000465
383 0.000465
384 0.000468
385 0.000471
386 0.000478
387 0.000481
388 0.000478
389 0.000472
390 0.000463
391 0.000452
392 0.000443
393 0.000439
394 0.000439
395 0.000439
396 0.000435
397 0.000431
398 0.000430
399 0.000429
400 0.000427
401 0.000427
402 0.000429
403 0.000432
404 0.000436
405 0.000437
406 0.000433
407 0.000429
408 0.000422
409 0.000418
410 0.000412
411 0.000404
412 0.000401
413 0.000401
414 0.000402
415 0.000404
416 0.000403
417 0.000406
418 0.000406
419 0.000408
420 0.000408
421 0.000410
422 0.000413
423 0.000416
424 0.000415
425 0.000415
426 0.000418
427 0.000420
428 0.000419
429 0.000414
430 0.000409
431 0.000405
432 0.000398
433 0.000388
434 0.000382
435 0.000379
436 0.000378
437 0.000374
438 0.000371
439 0.000371
440 0.000372
441 0.000375
442 0.000384
443 0.000392
444 0.000403
445 0.000405
446 0.000408
447 0.000412
448 0.000414
449 0.000419
450 0.000420
451 0.000419
452 0.000421
453 0.000424
454 0.000424
455 0.000419
456 0.000417
457 0.000414
458 0.000413
459 0.000415
460 0.000415
461 0.000415
462 0.000413
463 0.000412
464 0.000408
465 0.000400
466 0.000398
467 0.000399
468 0.000399
469 0.000399
470 0.000399
471 0.000401
472 0.000400
473 0.000396
474 0.000387
475 0.000378
476 0.000370
477 0.000363
478 0.000353
479 0.000343
480 0.000335
481 0.000328
482 0.000322
483 0.000318
484 0.000311
485 0.000306
486 0.000304
487 0.000301
488 0.000294
489 0.000285
490 0.000280
491 0.000277
492 0.000274
493 0.000275
494 0.000279
495 0.000282
496 0.000283
497 0.000286
498 0.000284
499 0.000281
500 0.000279
501 0.000278
502 0.000276
503 0.000271
504 0.000266
505 0.000264
506 0.000261
507 0.000253
508 0.000243
509 0.000234
510 0.000232
511 0.000230
512 0.000230
513 0.000227
514 0.000229
515 0.000236
516 0.000246
517 0.000250
518 0.000253
519 0.000259
520 0.000264
521 0.000267
522 0.000267
523 0.000268
524 0.000271
525 0.000272
526 0.000274
527 0.000276
528 0.000281
529 0.000286
530 0.000288
531 0.000291
532 0.000293
533 0.000294
534 0.000297
535 0.000296
536 0.000294
537 0.000293
538 0.000290
539 0.000287
540 0.000281
541 0.000274
542 0.000268
543 0.000269
544 0.000272
545 0.000271
546 0.000270
547 0.000273
548 0.000281
549 0.000290
550 0.000296
551 0.000301
552 0.000302
553 0.000305
554 0.000308
555 0.000306
556 0.000306
557 0.000309
558 0.000311
559 0.000317
560 0.000321
561 0.000318
562 0.000315
563 0.000310
564 0.000305
565 0.000301
566 0.000294
567 0.000288
568 0.000280
569 0.000272
570 0.000264
571 0.000256
572 0.000243
573 0.000236
574 0.000228
575 0.000226
576 0.000226
577 0.000225
578 0.000227
579 0.000228
580 0.000225
581 0.000224
582 0.000226
583 0.000232
584 0.000237
585 0.000242
586 0.000243
587 0.000246
588 0.000246
589 0.000245
590 0.000238
591 0.000227
592 0.000223
593 0.000223
594 0.000223
595 0.000221
596 0.000215
597 0.000209
598 0.000206
599 0.000200
600 0.000192
601 0.000190
602 0.000191
603 0.000194
604 0.000194
605 0.000195
606 0.000198
607 0.000200
608 0.000204
609 0.000205
610 0.000201
611 0.000204
612 0.000206
613 0.000205
614 0.000202
615 0.000200
616 0.000199
617 0.000199
618 0.000194
619 0.000191
620 0.000192
621 0.000197
622 0.000205
623 0.000215
624 0.000219
625 0.000224
626 0.000233
627 0.000238
628 0.000238
629 0.000239
630 0.000237
631 0.000233
632 0.000229
633 0.000225
634 0.000223
635 0.000217
636 0.000212
637 0.000207
638 0.000206
639 0.000203
640 0.000203
641 0.000202
642 0.000201
643 0.000198
644 0.000198
645 0.000195
646 0.000192
647 0.000186
648 0.000181
649 0.000176
650 0.000173
651 0.000172
652 0.000169
653 0.000164
654 0.000155
655 0.000149
656 0.000147
657 0.000143
658 0.000138
659 0.000137
660 0.000137
661 0.000139
662 0.000139
663 0.000137
664 0.000136
665 0.000136
666 0.000139
667 0.000140
668 0.000140
669 0.000135
670 0.000131
671 0.000131
672 0.000131
673 0.000132
674 0.000135
675 0.000135
676 0.000133
677 0.000133
678 0.000132
679 0.000129
680 0.000131
681 0.000133
682 0.000135
683 0.000134
684 0.000132
685 0.000130
686 0.000127
687 0.000129
688 0.000125
689 0.000123
690 0.000125
691 0.000129
692 0.000131
693 0.000135
694 0.000142
695 0.000146
696 0.000148
697 0.000150
698 0.000151
699 0.000153
700 0.000156
701 0.000154
702 0.000150
703 0.000147
704 0.000142
705 0.000136
706 0.000131
707 0.000127
708 0.000124
709 0.000125
710 0.000129
711 0.000129
712 0.000127
713 0.000125
714 0.000126
715 0.000125
716 0.000122
717 0.000123
718 0.000120
719 0.000119
720 0.000118
721 0.000118
722 0.000120
723 0.000122
724 0.000126
725 0.000130
726 0.000132
727 0.000135
728 0.000138
729 0.000140
730 0.000143
731 0.000150
732 0.000154
733 0.000158
734 0.000158
735 0.000157
736 0.000160
737 0.000165
738 0.000168
739 0.000169
740 0.000169
741 0.000166
742 0.000164
743 0.000164
744 0.000161
745 0.000158
746 0.000157
747 0.000156
748 0.000155
749 0.000157
750 0.000159
751 0.000160
752 0.000159
753 0.000160
754 0.000163
755 0.000164
756 0.000165
757 0.000166
758 0.000166
759 0.000166
760 0.000161
761 0.000156
762 0.000149
763 0.000141
764 0.000135
765 0.000133
766 0.000131
767 0.000129
768 0.000129
769 0.000131
770 0.000129
771 0.000126
772 0.000125
773 0.000123
774 0.000119
775 0.000115
776 0.000112
777 0.000108
778 0.000107
779 0.000105
780 0.000103
781 0.000101
782 0.000097
783 0.000098
784 0.000097
785 0.000096
786 0.000096
787 0.000100
788 0.000107
789 0.000112
790 0.000115
791 0.000117
792 0.000121
793 0.000123
794 0.000125
795 0.000126
796 0.000123
797 0.000120
798 0.000119
799 0.000118
800 0.000115
801 0.000118
802 0.000121
803 0.000125
804 0.000131
805 0.000135
806 0.000141
807 0.000145
808 0.000147
809 0.000149
