# i correlation
1 0.001795
2 0.001746
3 0.001708
4 0.001673
5 0.001647
6 0.001622
7 0.001593
8 0.001566
9 0.001544
10 0.001522
11 0.001505
12 0.001494
13 0.001480
14 0.001468
15 0.001455
16 0.001443
17 0.001434
18 0.001425
19 0.001410
20 0.001395
21 0.001388
22 0.001378
23 0.001373
24 0.001364
25 0.001354
26 0.001347
27 0.001339
28 0.001330
29 0.001325
30 0.001321
31 0.001313
32 0.001303
33 0.001292
34 0.001285
35 0.001276
36 0.001265
37 0.001253
38 0.001244
39 0.001240
40 0.001236
41 0.001233
42 0.001229
43 0.001224
44 0.001217
45 0.001213
46 0.001206
47 0.001195
48 0.001192
49 0.001186
50 0.001171
51 0.001168
52 0.001170
53 0.001168
54 0.001167
55 0.001163
56 0.001159
57 0.001153
58 0.001146
59 0.001135
60 0.001127
61 0.001117
62 0.001114
63 0.001109
64 0.001106
65 0.001100
66 0.001097
67 0.001096
68 0.001098
69 0.001101
70 0.001102
71 0.001098
72 0.001097
73 0.001092
74 0.001086
75 0.001086
76 0.001084
77 0.001082
78 0.001080
79 0.001074
80 0.001073
81 0.001072
82 0.001066
83 0.001064
84 0.001063
85 0.001063
86 0.001057
87 0.001056
88 0.001051
89 0.001046
90 0.001039
91 0.001033
92 0.001028
93 0.001023
94 0.001020
95 0.001015
96 0.001011
97 0.001010
98 0.001007
99 0.000998
100 0.000990
101 0.000980
102 0.000970
103 0.000966
104 0.000961
105 0.000952
106 0.000947
107 0.000942
108 0.000937
109 0.000928
110 0.000924
111 0.000919
112 0.000914
113 0.000907
114 0.000900
115 0.000895
116 0.000894
117 0.000888
118 0.000880
119 0.000875
120 0.000866
121 0.000862
122 0.000854
123 0.000846
124 0.000843
125 0.000848
126 0.000853
127 0.000853
128 0.000853
129 0.000853
130 0.000852
131 0.000848
132 0.000847
133 0.000848
134 0.000848
135 0.000848
136 0.000849
137 0.000849
138 0.000849
139 0.000853
140 0.000857
141 0.000855
142 0.000851
143 0.000848
144 0.000841
145 0.000836
146 0.000831
147 0.000825
148 0.000824
149 0.000826
150 0.000825
151 0.000826
152 0.000829
153 0.000828
154 0.000824
155 0.000828
156 0.000830
157 0.000830
158 0.000833
159 0.000829
160 0.000827
161 0.000827
162 0.000825
163 0.000826
164 0.000827
165 0.000825
166 0.000826
167 0.000824
168 0.000816
169 0.000807
170 0.000805
171 0.000797
172 0.000790
173 0.000783
174 0.000774
175 0.000769
176 0.000765
177 0.000757
178 0.000756
179 0.000756
180 0.000751
181 0.000750
182 0.000752
183 0.000754
184 0.000755
185 0.000755
186 0.000748
187 0.000748
188 0.000749
189 0.000750
190 0.000749
191 0.000750
192 0.000748
193 0.000750
194 0.000751
195 0.000748
196 0.000747
197 0.000749
198 0.000745
199 0.000739
200 0.000731
201 0.000724
202 0.000713
203 0.000704
204 0.000700
205 0.000695
206 0.000689
207 0.000688
208 0.000683
209 0.000683
210 0.000680
211 0.000672
212 0.000668
213 0.000667
214 0.000668
215 0.000668
216 0.000665
217 0.000659
218 0.000652
219 0.000646
220 0.000642
221 0.000638
222 0.000636
223 0.000632
224 0.000633
225 0.000633
226 0.000627
227 0.000622
228 0.000619
229 0.000614
230 0.000611
231 0.000610
232 0.000609
233 0.000608
234 0.000607
235 0.000609
236 0.000613
237 0.000617
238 0.000617
239 0.000617
240 0.000620
241 0.000622
242 0.000624
243 0.000625
244 0.000623
245 0.000626
246 0.000628
247 0.000632
248 0.000631
249 0.000630
250 0.000627
251 0.000627
252 0.000630
253 0.000636
254 0.000637
255 0.000638
256 0.000639
257 0.000634
258 0.000632
259 0.000632
260 0.000631
261 0.000631
262 0.000629
263 0.000625
264 0.000618
265 0.000617
266 0.000616
267 0.000618
268 0.000620
269 0.000622
270 0.000620
271 0.000619
272 0.000618
273 0.000617
274 0.000615
275 0.000611
276 0.000612
277 0.000612
278 0.000610
279 0.000606
280 0.000602
281 0.000597
282 0.000597
283 0.000600
284 0.000601
285 0.000600
286 0.000597
287 0.000592
288 0.000592
289 0.000594
290 0.000595
291 0.000595
292 0.000596
293 0.000596
294 0.000602
295 0.000604
296 0.000604
297 0.000611
298 0.000616
299 0.000620
300 0.000620
301 0.000627
302 0.000630
303 0.000630
304 0.000628
305 0.000626
306 0.000625
307 0.000626
308 0.000627
309 0.000628
310 0.000630
311 0.000630
312 0.000630
313 0.000631
314 0.000630
315 0.000628
316 0.000623
317 0.000616
318 0.000612
319 0.000608
320 0.000606
321 0.000603
322 0.000595
323 0.000591
324 0.000593
325 0.000597
326 0.000597
327 0.000592
328 0.000589
329 0.000583
330 0.000578
331 0.000579
332 0.000577
333 0.000574
334 0.000566
335 0.000558
336 0.000551
337 0.000550
338 0.000548
339 0.000544
340 0.000543
341 0.000542
342 0.000546
343 0.000548
344 0.000546
345 0.000545
346 0.000549
347 0.000546
348 0.000544
349 0.000546
350 0.000555
351 0.000561
352 0.000567
353 0.000571
354 0.000574
355 0.000577
356 0.000580
357 0.000578
358 0.000574
359 0.000569
360 0.000563
361 0.000555
362 0.000545
363 0.000532
364 0.000520
365 0.000510
366 0.000503
367 0.000504
368 0.000505
369 0.000504
370 0.000505
371 0.000506
372 0.000509
373 0.000515
374 0.000519
375 0.000519
376 0.000516
377 0.000514
378 0.000508
379 0.000505
380 0.000503
381 0.000503
382 0.000498
383 0.000493
384 0.000488
385 0.000488
386 0.000492
387 0.000494
388 0.000497
389 0.000498
390 0.000498
391 0.000500
392 0.000496
393 0.000494
394 0.000492
395 0.000492
396 0.000492
397 0.000491
398 0.000492
399 0.000491
400 0.000486
401 0.000482
402 0.000483
403 0.000481
404 0.000480
405 0.000480
406 0.000477
407 0.000471
408 0.000466
409 0.000460
410 0.000454
411 0.000451
412 0.000450
413 0.000447
414 0.000442
415 0.000436
416 0.000432
417 0.000424
418 0.000418
419 0.000412
420 0.000409
421 0.000403
422 0.000398
423 0.000396
424 0.000392
425 0.000388
426 0.000384
427 0.000380
428 0.000381
429 0.000383
430 0.000382
431 0.000379
432 0.000375
433 0.000366
434 0.000362
435 0.000357
436 0.000349
437 0.000345
438 0.000343
439 0.000342
440 0.000344
441 0.000348
442 0.000349
443 0.000351
444 0.000356
445 0.000359
446 0.000362
447 0.000364
448 0.000361
449 0.000356
450 0.000356
451 0.000352
452 0.000347
453 0.000346
454 0.000344
455 0.000341
456 0.000340
457 0.000341
458 0.000341
459 0.000341
460 0.000340
461 0.000339
462 0.000337
463 0.000331
464 0.000327
465 0.000321
466 0.000322
467 0.000323
468 0.000320
469 0.000317
470 0.000309
471 0.000306
472 0.000302
473 0.000301
474 0.000299
475 0.000294
476 0.000291
477 0.000292
478 0.000290
479 0.000288
480 0.000287
481 0.000285
482 0.000283
483 0.000283
484 0.000283
485 0.000282
486 0.000285
487 0.000286
488 0.000282
489 0.000282
490 0.000277
491 0.000275
492 0.000277
493 0.000280
494 0.000280
495 0.000280
496 0.000280
497 0.000282
498 0.000291
499 0.000296
500 0.000299
501 0.000304
502 0.000307
503 0.000309
504 0.000308
505 0.000305
506 0.000303
507 0.000307
508 0.000314
509 0.000319
510 0.000326
511 0.000326
512 0.000327
513 0.000332
514 0.000337
515 0.000345
516 0.000350
517 0.000349
518 0.000350
519 0.000350
520 0.000352
521 0.000354
522 0.000359
523 0.000360
524 0.000358
525 0.000359
526 0.000358
527 0.000357
528 0.000356
529 0.000352
530 0.000344
531 0.000338
532 0.000335
533 0.000329
534 0.000325
535 0.000318
536 0.000311
537 0.000309
538 0.000308
539 0.000310
540 0.000309
541 0.000310
542 0.000312
543 0.000313
544 0.000315
545 0.000317
546 0.000319
547 0.000319
548 0.000316
549 0.000316
550 0.000318
551 0.000320
552 0.000316
553 0.000312
554 0.000309
555 0.000309
556 0.000312
557 0.000314
558 0.000313
559 0.000309
560 0.000306
561 0.000303
562 0.000304
563 0.000302
564 0.000302
565 0.000303
566 0.000305
567 0.000306
568 0.000307
569 0.000305
570 0.000304
571 0.000302
572 0.000301
573 0.000300
574 0.000300
575 0.000298
576 0.000297
577 0.000299
578 0.000303
579 0.000307
580 0.000309
581 0.000306
582 0.000304
583 0.000307
584 0.000313
585 0.000316
586 0.000318
587 0.000320
588 0.000318
589 0.000313
590 0.000313
591 0.000315
592 0.000317
593 0.000317
594 0.000316
595 0.000321
596 0.000327
597 0.000330
598 0.000335
599 0.000340
600 0.000340
601 0.000336
602 0.000336
603 0.000334
604 0.000332
605 0.000331
606 0.000329
607 0.000327
608 0.000327
609 0.000328
610 0.000330
611 0.000332
612 0.000331
613 0.000335
614 0.000337
615 0.000338
616 0.000339
617 0.000338
618 0.000337
619 0.000337
620 0.000337
621 0.000334
622 0.000337
623 0.000336
624 0.000334
625 0.000330
626 0.000328
627 0.000326
628 0.000324
629 0.000323
630 0.000322
631 0.000318
632 0.000312
633 0.000305
634 0.000300
635 0.000293
636 0.000287
637 0.000279
638 0.000273
639 0.000269
640 0.000268
641 0.000268
642 0.000269
643 0.000269
644 0.000272
645 0.000270
646 0.000263
647 0.000260
648 0.000258
649 0.000258
650 0.000260
651 0.000261
652 0.000261
653 0.000266
654 0.000270
655 0.000274
656 0.000278
657 0.000281
658 0.000283
659 0.000287
660 0.000287
661 0.000286
662 0.000288
663 0.000288
664 0.000289
665 0.000291
666 0.000291
667 0.000293
668 0.000296
669 0.000292
670 0.000288
671 0.000290
672 0.000290
673 0.000292
674 0.000294
675 0.000293
676 0.000296
677 0.000296
678 0.000293
679 0.000291
680 0.000292
681 0.000292
682 0.000296
683 0.000301
684 0.000304
685 0.000306
686 0.000308
687 0.000306
688 0.000307
689 0.000306
690 0.000305
691 0.000303
692 0.000302
693 0.000301
694 0.000303
695 0.000306
696 0.000309
697 0.000310
698 0.000311
699 0.000312
700 0.000314
701 0.000316
702 0.000318
703 0.000321
704 0.000322
705 0.000321
706 0.000324
707 0.000327
708 0.000327
709 0.000325
710 0.000320
711 0.000317
712 0.000314
713 0.000311
714 0.000309
715 0.000302
716 0.000296
717 0.000291
718 0.000285
719 0.000279
720 0.000273
721 0.000265
722 0.000259
723 0.000254
724 0.000250
725 0.000246
726 0.000241
727 0.000234
728 0.000228
729 0.000227
730 0.000226
731 0.000222
732 0.000216
733 0.000208
734 0.000199
735 0.000192
736 0.000184
737 0.000179
738 0.000172
739 0.000166
740 0.000160
741 0.000158
742 0.000156
743 0.000155
744 0.000155
745 0.000154
746 0.000153
747 0.000153
748 0.000156
749 0.000160
750 0.000162
751 0.000165
752 0.000166
753 0.000165
754 0.000164
755 0.000166
756 0.000168
757 0.000169
758 0.000168
759 0.000165
760 0.000162
761 0.000158
762 0.000156
763 0.000155
764 0.000151
765 0.000150
766 0.000150
767 0.000147
768 0.000143
769 0.000141
770 0.000140
771 0.000141
772 0.000142
773 0.000141
774 0.000143
775 0.000145
776 0.000146
777 0.000145
778 0.000145
779 0.000144
780 0.000144
781 0.000146
782 0.000147
783 0.000149
784 0.000151
785 0.000150
786 0.000149
787 0.000151
788 0.000150
789 0.000147
790 0.000143
791 0.000137
792 0.000137
793 0.000137
794 0.000137
795 0.000135
796 0.000130
797 0.000127
798 0.000123
799 0.000121
800 0.000120
801 0.000118
802 0.000113
803 0.000107
804 0.000101
805 0.000095
806 0.000090
807 0.000086
808 0.000082
809 0.000079
