# i correlation
1 0.001773
2 0.001717
3 0.001663
4 0.001618
5 0.001578
6 0.001542
7 0.001515
8 0.001498
9 0.001487
10 0.001474
11 0.001458
12 0.001444
13 0.001424
14 0.001409
15 0.001395
16 0.001376
17 0.001364
18 0.001355
19 0.001344
20 0.001335
21 0.001325
22 0.001312
23 0.001303
24 0.001296
25 0.001291
26 0.001287
27 0.001283
28 0.001282
29 0.001284
30 0.001289
31 0.001288
32 0.001284
33 0.001284
34 0.001281
35 0.001278
36 0.001268
37 0.001254
38 0.001242
39 0.001232
40 0.001224
41 0.001216
42 0.001213
43 0.001212
44 0.001213
45 0.001210
46 0.001205
47 0.001203
48 0.001210
49 0.001210
50 0.001210
51 0.001207
52 0.001199
53 0.001192
54 0.001181
55 0.001164
56 0.001150
57 0.001140
58 0.001133
59 0.001126
60 0.001125
61 0.001125
62 0.001125
63 0.001125
64 0.001120
65 0.001116
66 0.001112
67 0.001098
68 0.001095
69 0.001093
70 0.001091
71 0.001087
72 0.001082
73 0.001081
74 0.001076
75 0.001066
76 0.001050
77 0.001035
78 0.001025
79 0.001013
80 0.001002
81 0.000993
82 0.000980
83 0.000976
84 0.000977
85 0.000972
86 0.000969
87 0.000960
88 0.000954
89 0.000950
90 0.000941
91 0.000933
92 0.000930
93 0.000925
94 0.000920
95 0.000914
96 0.000914
97 0.000911
98 0.000904
99 0.000900
100 0.000888
101 0.000883
102 0.000874
103 0.000864
104 0.000855
105 0.000846
106 0.000843
107 0.000836
108 0.000826
109 0.000820
110 0.000813
111 0.000811
112 0.000804
113 0.000794
114 0.000782
115 0.000772
116 0.000765
117 0.000760
118 0.000754
119 0.000749
120 0.000743
121 0.000743
122 0.000739
123 0.000738
124 0.000740
125 0.000743
126 0.000749
127 0.000754
128 0.000756
129 0.000759
130 0.000754
131 0.000752
132 0.000750
133 0.000748
134 0.000752
135 0.000756
136 0.000758
137 0.000753
138 0.000746
139 0.000738
140 0.000734
141 0.000738
142 0.000741
143 0.000745
144 0.000750
145 0.000755
146 0.000758
147 0.000759
148 0.000749
149 0.000739
150 0.000731
151 0.000721
152 0.000709
153 0.000698
154 0.000692
155 0.000686
156 0.000678
157 0.000669
158 0.000656
159 0.000650
160 0.000646
161 0.000641
162 0.000642
163 0.000644
164 0.000650
165 0.000654
166 0.000646
167 0.000632
168 0.000616
169 0.000607
170 0.000603
171 0.000597
172 0.000595
173 0.000590
174 0.000590
175 0.000592
176 0.000590
177 0.000593
178 0.000593
179 0.000597
180 0.000603
181 0.000604
182 0.000602
183 0.000601
184 0.000598
185 0.000597
186 0.000596
187 0.000598
188 0.000595
189 0.000593
190 0.000595
191 0.000600
192 0.000604
193 0.000605
194 0.000605
195 0.000612
196 0.000611
197 0.000606
198 0.000605
199 0.000608
200 0.000606
201 0.000603
202 0.000593
203 0.000584
204 0.000576
205 0.000567
206 0.000557
207 0.000549
208 0.000542
209 0.000540
210 0.000541
211 0.000534
212 0.000526
213 0.000523
214 0.000524
215 0.000523
216 0.000523
217 0.000518
218 0.000515
219 0.000509
220 0.000509
221 0.000510
222 0.000510
223 0.000512
224 0.000516
225 0.000517
226 0.000513
227 0.000511
228 0.000509
229 0.000510
230 0.000510
231 0.000509
232 0.000506
233 0.000501
234 0.000499
235 0.000505
236 0.000506
237 0.000505
238 0.000505
239 0.000504
240 0.000505
241 0.000503
242 0.000500
243 0.000499
244 0.000503
245 0.000507
246 0.000509
247 0.000510
248 0.000516
249 0.000520
250 0.000522
251 0.000522
252 0.000521
253 0.000523
254 0.000524
255 0.000526
256 0.000525
257 0.000523
258 0.000520
259 0.000519
260 0.000517
261 0.000518
262 0.000518
263 0.000517
264 0.000519
265 0.000523
266 0.000526
267 0.000526
268 0.000526
269 0.000528
270 0.000529
271 0.000530
272 0.000533
273 0.000530
274 0.000530
275 0.000527
276 0.000527
277 0.000529
278 0.000530
279 0.000532
280 0.000535
281 0.000538
282 0.000542
283 0.000541
284 0.000540
285 0.000532
286 0.000522
287 0.000511
288 0.000504
289 0.000501
290 0.000502
291 0.000506
292 0.000512
293 0.000518
294 0.000521
295 0.000525
296 0.000529
297 0.000532
298 0.000536
299 0.000540
300 0.000545
301 0.000549
302 0.000549
303 0.000543
304 0.000534
305 0.000524
306 0.000516
307 0.000514
308 0.000510
309 0.000508
310 0.000506
311 0.000506
312 0.000504
313 0.000502
314 0.000498
315 0.000494
316 0.000488
317 0.000481
318 0.000472
319 0.000471
320 0.000471
321 0.000473
322 0.000474
323 0.000475
324 0.000478
325 0.000480
326 0.000482
327 0.000481
328 0.000484
329 0.000489
330 0.000492
331 0.000494
332 0.000498
333 0.000503
334 0.000510
335 0.000517
336 0.000527
337 0.000533
338 0.000538
339 0.000532
340 0.000527
341 0.000519
342 0.000517
343 0.000513
344 0.000509
345 0.000511
346 0.000510
347 0.000510
348 0.000508
349 0.000507
350 0.000507
351 0.000504
352 0.000502
353 0.000493
354 0.000487
355 0.000483
356 0.000478
357 0.000477
358 0.000475
359 0.000470
360 0.000462
361 0.000454
362 0.000444
363 0.000437
364 0.000435
365 0.000435
366 0.000436
367 0.000432
368 0.000429
369 0.000427
370 0.000428
371 0.000428
372 0.000423
373 0.000421
374 0.000412
375 0.000402
376 0.000390
377 0.000377
378 0.000363
379 0.000349
380 0.000342
381 0.000338
382 0.000334
383 0.000334
384 0.000336
385 0.000341
386 0.000346
387 0.000347
388 0.000348
389 0.000349
390 0.000347
391 0.000342
392 0.000336
393 0.000332
394 0.000328
395 0.000328
396 0.000327
397 0.000326
398 0.000325
399 0.000326
400 0.000328
401 0.000331
402 0.000331
403 0.000330
404 0.000330
405 0.000329
406 0.000328
407 0.000325
408 0.000325
409 0.000325
410 0.000322
411 0.000319
412 0.000316
413 0.000312
414 0.000307
415 0.000304
416 0.000301
417 0.000296
418 0.000293
419 0.000292
420 0.000291
421 0.000289
422 0.000285
423 0.000284
424 0.000280
425 0.000275
426 0.000270
427 0.000267
428 0.000266
429 0.000262
430 0.000261
431 0.000261
432 0.000259
433 0.000260
434 0.000262
435 0.000267
436 0.000273
437 0.000278
438 0.000281
439 0.000285
440 0.000288
441 0.000292
442 0.000296
443 0.000299
444 0.000300
445 0.000303
446 0.000309
447 0.000313
448 0.000314
449 0.000319
450 0.000317
451 0.000314
452 0.000305
453 0.000296
454 0.000293
455 0.000291
456 0.000286
457 0.000279
458 0.000270
459 0.000258
460 0.000249
461 0.000241
462 0.000232
463 0.000223
464 0.000216
465 0.000208
466 0.000203
467 0.000198
468 0.000188
469 0.000179
470 0.000172
471 0.000167
472 0.000166
473 0.000165
474 0.000165
475 0.000163
476 0.000163
477 0.000160
478 0.000159
479 0.000160
480 0.000160
481 0.000164
482 0.000165
483 0.000165
484 0.000165
485 0.000167
486 0.000167
487 0.000164
488 0.000160
489 0.000155
490 0.000154
491 0.000151
492 0.000154
493 0.000159
494 0.000166
495 0.000170
496 0.000174
497 0.000175
498 0.000175
499 0.000177
500 0.000181
501 0.000182
502 0.000182
503 0.000179
504 0.000178
505 0.000174
506 0.000172
507 0.000168
508 0.000164
509 0.000157
510 0.000151
511 0.000146
512 0.000147
513 0.000142
514 0.000143
515 0.000147
516 0.000153
517 0.000162
518 0.000166
519 0.000168
520 0.000171
521 0.000170
522 0.000166
523 0.000159
524 0.000156
525 0.000151
526 0.000145
527 0.000142
528 0.000140
529 0.000146
530 0.000153
531 0.000154
532 0.000154
533 0.000154
534 0.000152
535 0.000155
536 0.000155
537 0.000156
538 0.000158
539 0.000158
540 0.000157
541 0.000157
542 0.000151
543 0.000146
544 0.000144
545 0.000143
546 0.000145
547 0.000150
548 0.000155
549 0.000158
550 0.000164
551 0.000168
552 0.000174
553 0.000176
554 0.000173
555 0.000167
556 0.000162
557 0.000158
558 0.000155
559 0.000153
560 0.000156
561 0.000161
562 0.000163
563 0.000165
564 0.000167
565 0.000171
566 0.000175
567 0.000176
568 0.000181
569 0.000184
570 0.000186
571 0.000185
572 0.000184
573 0.000185
574 0.000186
575 0.000184
576 0.000182
577 0.000185
578 0.000195
579 0.000201
580 0.000212
581 0.000222
582 0.000233
583 0.000243
584 0.000252
585 0.000259
586 0.000261
587 0.000266
588 0.000269
589 0.000273
590 0.000281
591 0.000287
592 0.000295
593 0.000304
594 0.000309
595 0.000313
596 0.000311
597 0.000306
598 0.000303
599 0.000299
600 0.000297
601 0.000297
602 0.000297
603 0.000297
604 0.000296
605 0.000292
606 0.000285
607 0.000279
608 0.000274
609 0.000269
610 0.000266
611 0.000264
612 0.000262
613 0.000263
614 0.000268
615 0.000269
616 0.000271
617 0.000271
618 0.000273
619 0.000275
620 0.000275
621 0.000275
622 0.000276
623 0.000273
624 0.000272
625 0.000270
626 0.000272
627 0.000273
628 0.000275
629 0.000278
630 0.000280
631 0.000284
632 0.000285
633 0.000287
634 0.000285
635 0.000286
636 0.000289
637 0.000294
638 0.000297
639 0.000296
640 0.000298
641 0.000302
642 0.000304
643 0.000305
644 0.000306
645 0.000305
646 0.000305
647 0.000306
648 0.000303
649 0.000303
650 0.000305
651 0.000307
652 0.000308
653 0.000310
654 0.000306
655 0.000303
656 0.000297
657 0.000293
658 0.000291
659 0.000287
660 0.000281
661 0.000277
662 0.000273
663 0.000271
664 0.000270
665 0.000270
666 0.000272
667 0.000276
668 0.000276
669 0.000273
670 0.000270
671 0.000269
672 0.000266
673 0.000260
674 0.000255
675 0.000248
676 0.000246
677 0.000245
678 0.000243
679 0.000244
680 0.000245
681 0.000247
682 0.000247
683 0.000245
684 0.000243
685 0.000241
686 0.000241
687 0.000241
688 0.000241
689 0.000239
690 0.000235
691 0.000231
692 0.000226
693 0.000219
694 0.000215
695 0.000216
696 0.000214
697 0.000214
698 0.000211
699 0.000211
700 0.000208
701 0.000206
702 0.000203
703 0.000201
704 0.000198
705 0.000197
706 0.000198
707 0.000197
708 0.000196
709 0.000195
710 0.000195
711 0.000197
712 0.000199
713 0.000197
714 0.000194
715 0.000195
716 0.000198
717 0.000198
718 0.000196
719 0.000193
720 0.000190
721 0.000193
722 0.000195
723 0.000195
724 0.000196
725 0.000197
726 0.000196
727 0.000191
728 0.000186
729 0.000180
730 0.000178
731 0.000177
732 0.000175
733 0.000173
734 0.000172
735 0.000169
736 0.000164
737 0.000159
738 0.000154
739 0.000150
740 0.000144
741 0.000138
742 0.000135
743 0.000132
744 0.000131
745 0.000130
746 0.000129
747 0.000131
748 0.000134
749 0.000136
750 0.000135
751 0.000133
752 0.000132
753 0.000130
754 0.000127
755 0.000125
756 0.000124
757 0.000125
758 0.000124
759 0.000121
760 0.000120
761 0.000116
762 0.000112
763 0.000106
764 0.000100
765 0.000098
766 0.000096
767 0.000094
768 0.000091
769 0.000091
770 0.000090
771 0.000087
772 0.000085
773 0.000083
774 0.000085
775 0.000089
776 0.000093
777 0.000098
778 0.000105
779 0.000113
780 0.000119
781 0.000124
782 0.000129
783 0.000136
784 0.000142
785 0.000146
786 0.000149
787 0.000151
788 0.000153
789 0.000152
790 0.000150
791 0.000147
792 0.000147
793 0.000146
794 0.000148
795 0.000148
796 0.000150
797 0.000150
798 0.000149
799 0.000146
800 0.000143
801 0.000141
802 0.000136
803 0.000130
804 0.000123
805 0.000118
806 0.000113
807 0.000110
808 0.000108
809 0.000107
