# i correlation
1 0.002059
2 0.002005
3 0.001961
4 0.001922
5 0.001890
6 0.001859
7 0.001829
8 0.001805
9 0.001780
10 0.001756
11 0.001743
12 0.001728
13 0.001719
14 0.001712
15 0.001708
16 0.001706
17 0.001704
18 0.001702
19 0.001697
20 0.001689
21 0.001687
22 0.001682
23 0.001667
24 0.001649
25 0.001634
26 0.001626
27 0.001614
28 0.001598
29 0.001580
30 0.001562
31 0.001541
32 0.001527
33 0.001520
34 0.001511
35 0.001500
36 0.001487
37 0.001475
38 0.001462
39 0.001450
40 0.001438
41 0.001428
42 0.001420
43 0.001412
44 0.001405
45 0.001397
46 0.001390
47 0.001384
48 0.001379
49 0.001370
50 0.001358
51 0.001346
52 0.001337
53 0.001331
54 0.001327
55 0.001323
56 0.001322
57 0.001324
58 0.001321
59 0.001320
60 0.001320
61 0.001317
62 0.001313
63 0.001312
64 0.001308
65 0.001308
66 0.001307
67 0.001309
68 0.001307
69 0.001307
70 0.001304
71 0.001297
72 0.001287
73 0.001279
74 0.001273
75 0.001269
76 0.001260
77 0.001247
78 0.001234
79 0.001222
80 0.001215
81 0.001210
82 0.001207
83 0.001202
84 0.001200
85 0.001198
86 0.001199
87 0.001202
88 0.001202
89 0.001202
90 0.001205
91 0.001206
92 0.001203
93 0.001199
94 0.001193
95 0.001189
96 0.001188
97 0.001185
98 0.001181
99 0.001175
100 0.001168
101 0.001161
102 0.001157
103 0.001160
104 0.001159
105 0.001155
106 0.001151
107 0.001150
108 0.001149
109 0.001148
110 0.001143
111 0.001146
112 0.001145
113 0.001141
114 0.001142
115 0.001143
116 0.001142
117 0.001144
118 0.001146
119 0.001150
120 0.001151
121 0.001155
122 0.001159
123 0.001162
124 0.001164
125 0.001166
126 0.001163
127 0.001155
128 0.001148
129 0.001146
130 0.001148
131 0.001147
132 0.001148
133 0.001145
134 0.001142
135 0.001141
136 0.001139
137 0.001136
138 0.001131
139 0.001128
140 0.001129
141 0.001131
142 0.001129
143 0.001121
144 0.001114
145 0.001108
146 0.001100
147 0.001096
148 0.001089
149 0.001077
150 0.001061
151 0.001048
152 0.001034
153 0.001027
154 0.001023
155 0.001020
156 0.001020
157 0.001022
158 0.001024
159 0.001022
160 0.001025
161 0.001025
162 0.001025
163 0.001019
164 0.001012
165 0.001008
166 0.001002
167 0.000996
168 0.000990
169 0.000979
170 0.000966
171 0.000949
172 0.000928
173 0.000909
174 0.000895
175 0.000885
176 0.000874
177 0.000863
178 0.000857
179 0.000854
180 0.000852
181 0.000852
182 0.000851
183 0.000853
184 0.000852
185 0.000849
186 0.000850
187 0.000849
188 0.000851
189 0.000854
190 0.000860
191 0.000861
192 0.000861
193 0.000856
194 0.000847
195 0.000837
196 0.000824
197 0.000819
198 0.000812
199 0.000805
200 0.000797
201 0.000794
202 0.000796
203 0.000795
204 0.000794
205 0.000797
206 0.000799
207 0.000799
208 0.000806
209 0.000811
210 0.000816
211 0.000819
212 0.000819
213 0.000816
214 0.000815
215 0.000813
216 0.000814
217 0.000812
218 0.000809
219 0.000804
220 0.000803
221 0.000800
222 0.000791
223 0.000786
224 0.000779
225 0.000770
226 0.000763
227 0.000761
228 0.000762
229 0.000766
230 0.000770
231 0.000775
232 0.000778
233 0.000782
234 0.000787
235 0.000792
236 0.000797
237 0.000798
238 0.000795
239 0.000786
240 0.000775
241 0.000764
242 0.000756
243 0.000748
244 0.000742
245 0.000733
246 0.000726
247 0.000719
248 0.000713
249 0.000709
250 0.000711
251 0.000720
252 0.000724
253 0.000724
254 0.000724
255 0.000722
256 0.000720
257 0.000717
258 0.000714
259 0.000713
260 0.000711
261 0.000705
262 0.000704
263 0.000704
264 0.000707
265 0.000716
266 0.000720
267 0.000720
268 0.000724
269 0.000729
270 0.000730
271 0.000731
272 0.000731
273 0.000728
274 0.000721
275 0.000709
276 0.000701
277 0.000700
278 0.000701
279 0.000705
280 0.000713
281 0.000719
282 0.000717
283 0.000719
284 0.000720
285 0.000716
286 0.000717
287 0.000714
288 0.000714
289 0.000709
290 0.000705
291 0.000703
292 0.000702
293 0.000700
294 0.000698
295 0.000692
296 0.000685
297 0.000674
298 0.000670
299 0.000671
300 0.000671
301 0.000668
302 0.000664
303 0.000658
304 0.000650
305 0.000642
306 0.000635
307 0.000628
308 0.000621
309 0.000613
310 0.000603
311 0.000595
312 0.000586
313 0.000578
314 0.000571
315 0.000561
316 0.000557
317 0.000554
318 0.000547
319 0.000536
320 0.000529
321 0.000521
322 0.000516
323 0.000510
324 0.000507
325 0.000507
326 0.000507
327 0.000507
328 0.000504
329 0.000502
330 0.000496
331 0.000487
332 0.000484
333 0.000485
334 0.000485
335 0.000489
336 0.000486
337 0.000484
338 0.000484
339 0.000482
340 0.000482
341 0.000487
342 0.000486
343 0.000487
344 0.000485
345 0.000484
346 0.000488
347 0.000492
348 0.000498
349 0.000501
350 0.000502
351 0.000506
352 0.000506
353 0.000512
354 0.000515
355 0.000522
356 0.000530
357 0.000536
358 0.000542
359 0.000552
360 0.000556
361 0.000556
362 0.000561
363 0.000563
364 0.000561
365 0.000558
366 0.000554
367 0.000553
368 0.000555
369 0.000559
370 0.000566
371 0.000570
372 0.000574
373 0.000582
374 0.000590
375 0.000599
376 0.000611
377 0.000621
378 0.000627
379 0.000626
380 0.000622
381 0.000619
382 0.000615
383 0.000613
384 0.000610
385 0.000608
386 0.000604
387 0.000598
388 0.000596
389 0.000594
390 0.000591
391 0.000589
392 0.000593
393 0.000597
394 0.000603
395 0.000608
396 0.000614
397 0.000621
398 0.000628
399 0.000636
400 0.000639
401 0.000642
402 0.000644
403 0.000643
404 0.000644
405 0.000640
406 0.000636
407 0.000628
408 0.000623
409 0.000620
410 0.000621
411 0.000624
412 0.000627
413 0.000631
414 0.000633
415 0.000636
416 0.000640
417 0.000642
418 0.000645
419 0.000650
420 0.000654
421 0.000658
422 0.000663
423 0.000665
424 0.000666
425 0.000670
426 0.000675
427 0.000677
428 0.000680
429 0.000678
430 0.000676
431 0.000672
432 0.000671
433 0.000669
434 0.000668
435 0.000667
436 0.000664
437 0.000660
438 0.000657
439 0.000653
440 0.000648
441 0.000645
442 0.000642
443 0.000638
444 0.000638
445 0.000635
446 0.000636
447 0.000635
448 0.000633
449 0.000631
450 0.000630
451 0.000627
452 0.000624
453 0.000616
454 0.000611
455 0.000602
456 0.000593
457 0.000584
458 0.000578
459 0.000573
460 0.000568
461 0.000561
462 0.000556
463 0.000551
464 0.000544
465 0.000535
466 0.000527
467 0.000522
468 0.000518
469 0.000517
470 0.000515
471 0.000513
472 0.000513
473 0.000513
474 0.000513
475 0.000514
476 0.000510
477 0.000503
478 0.000495
479 0.000489
480 0.000484
481 0.000482
482 0.000478
483 0.000478
484 0.000479
485 0.000482
486 0.000485
487 0.000481
488 0.000480
489 0.000480
490 0.000479
491 0.000478
492 0.000481
493 0.000480
494 0.000480
495 0.000476
496 0.000472
497 0.000470
498 0.000467
499 0.000460
500 0.000456
501 0.000456
502 0.000458
503 0.000464
504 0.000468
505 0.000467
506 0.000468
507 0.000472
508 0.000474
509 0.000480
510 0.000481
511 0.000480
512 0.000474
513 0.000471
514 0.000470
515 0.000468
516 0.000464
517 0.000463
518 0.000461
519 0.000461
520 0.000460
521 0.000453
522 0.000447
523 0.000443
524 0.000441
525 0.000443
526 0.000444
527 0.000446
528 0.000447
529 0.000446
530 0.000445
531 0.000445
532 0.000445
533 0.000444
534 0.000444
535 0.000447
536 0.000448
537 0.000450
538 0.000453
539 0.000453
540 0.000454
541 0.000453
542 0.000451
543 0.000455
544 0.000457
545 0.000460
546 0.000466
547 0.000466
548 0.000462
549 0.000460
550 0.000456
551 0.000455
552 0.000452
553 0.000451
554 0.000449
555 0.000445
556 0.000440
557 0.000439
558 0.000434
559 0.000429
560 0.000425
561 0.000425
562 0.000426
563 0.000432
564 0.000438
565 0.000443
566 0.000446
567 0.000452
568 0.000458
569 0.000462
570 0.000462
571 0.000458
572 0.000458
573 0.000453
574 0.000448
575 0.000443
576 0.000438
577 0.000429
578 0.000416
579 0.000406
580 0.000400
581 0.000394
582 0.000388
583 0.000383
584 0.000381
585 0.000380
586 0.000377
587 0.000374
588 0.000367
589 0.000361
590 0.000358
591 0.000353
592 0.000346
593 0.000342
594 0.000342
595 0.000340
596 0.000334
597 0.000330
598 0.000328
599 0.000323
600 0.000320
601 0.000316
602 0.000313
603 0.000308
604 0.000302
605 0.000298
606 0.000295
607 0.000294
608 0.000291
609 0.000291
610 0.000293
611 0.000295
612 0.000299
613 0.000300
614 0.000302
615 0.000303
616 0.000303
617 0.000299
618 0.000294
619 0.000288
620 0.000286
621 0.000283
622 0.000279
623 0.000272
624 0.000266
625 0.000262
626 0.000256
627 0.000255
628 0.000258
629 0.000263
630 0.000265
631 0.000269
632 0.000275
633 0.000280
634 0.000287
635 0.000290
636 0.000291
637 0.000295
638 0.000300
639 0.000306
640 0.000308
641 0.000308
642 0.000310
643 0.000316
644 0.000319
645 0.000319
646 0.000316
647 0.000314
648 0.000309
649 0.000306
650 0.000304
651 0.000302
652 0.000298
653 0.000294
654 0.000292
655 0.000290
656 0.000287
657 0.000288
658 0.000287
659 0.000288
660 0.000291
661 0.000290
662 0.000291
663 0.000289
664 0.000290
665 0.000292
666 0.000295
667 0.000297
668 0.000300
669 0.000298
670 0.000295
671 0.000293
672 0.000291
673 0.000289
674 0.000284
675 0.000279
676 0.000275
677 0.000271
678 0.000267
679 0.000263
680 0.000261
681 0.000257
682 0.000254
683 0.000252
684 0.000249
685 0.000248
686 0.000245
687 0.000243
688 0.000240
689 0.000236
690 0.000233
691 0.000229
692 0.000224
693 0.000218
694 0.000217
695 0.000213
696 0.000211
697 0.000209
698 0.000207
699 0.000203
700 0.000200
701 0.000196
702 0.000191
703 0.000187
704 0.000187
705 0.000191
706 0.000196
707 0.000196
708 0.000194
709 0.000192
710 0.000191
711 0.000186
712 0.000185
713 0.000184
714 0.000181
715 0.000177
716 0.000173
717 0.000168
718 0.000163
719 0.000160
720 0.000155
721 0.000152
722 0.000147
723 0.000145
724 0.000142
725 0.000141
726 0.000142
727 0.000143
728 0.000145
729 0.000148
730 0.000151
731 0.000152
732 0.000155
733 0.000153
734 0.000154
735 0.000158
736 0.000158
737 0.000157
738 0.000155
739 0.000152
740 0.000150
741 0.000145
742 0.000139
743 0.000135
744 0.000129
745 0.000127
746 0.000125
747 0.000123
748 0.000119
749 0.000111
750 0.000105
751 0.000102
752 0.000100
753 0.000097
754 0.000095
755 0.000092
756 0.000091
757 0.000090
758 0.000090
759 0.000088
760 0.000085
761 0.000082
762 0.000081
763 0.000081
764 0.000080
765 0.000079
766 0.000078
767 0.000078
768 0.000078
769 0.000081
770 0.000080
771 0.000079
772 0.000078
773 0.000079
774 0.000082
775 0.000086
776 0.000087
777 0.000086
778 0.000084
779 0.000081
780 0.000079
781 0.000076
782 0.000072
783 0.000068
784 0.000065
785 0.000065
786 0.000066
787 0.000065
788 0.000065
789 0.000063
790 0.000063
791 0.000062
792 0.000064
793 0.000065
794 0.000065
795 0.000067
796 0.000069
797 0.000073
798 0.000076
799 0.000080
800 0.000082
801 0.000086
802 0.000089
803 0.000092
804 0.000094
805 0.000097
806 0.000097
807 0.000094
808 0.000095
809 0.000095
