# i correlation
1 0.001937
2 0.001877
3 0.001833
4 0.001796
5 0.001758
6 0.001719
7 0.001682
8 0.001644
9 0.001609
10 0.001578
11 0.001546
12 0.001510
13 0.001481
14 0.001459
15 0.001433
16 0.001407
17 0.001383
18 0.001362
19 0.001348
20 0.001333
21 0.001315
22 0.001302
23 0.001297
24 0.001302
25 0.001296
26 0.001292
27 0.001287
28 0.001281
29 0.001274
30 0.001268
31 0.001258
32 0.001250
33 0.001244
34 0.001240
35 0.001239
36 0.001235
37 0.001232
38 0.001230
39 0.001225
40 0.001218
41 0.001210
42 0.001202
43 0.001195
44 0.001189
45 0.001183
46 0.001174
47 0.001168
48 0.001163
49 0.001154
50 0.001144
51 0.001134
52 0.001126
53 0.001120
54 0.001114
55 0.001113
56 0.001108
57 0.001098
58 0.001089
59 0.001075
60 0.001064
61 0.001055
62 0.001047
63 0.001032
64 0.001019
65 0.001008
66 0.000996
67 0.000985
68 0.000975
69 0.000963
70 0.000953
71 0.000950
72 0.000946
73 0.000942
74 0.000940
75 0.000947
76 0.000954
77 0.000955
78 0.000954
79 0.000957
80 0.000962
81 0.000959
82 0.000955
83 0.000944
84 0.000934
85 0.000923
86 0.000908
87 0.000894
88 0.000885
89 0.000876
90 0.000865
91 0.000853
92 0.000841
93 0.000829
94 0.000816
95 0.000804
96 0.000791
97 0.000779
98 0.000766
99 0.000762
100 0.000763
101 0.000765
102 0.000769
103 0.000774
104 0.000785
105 0.000792
106 0.000798
107 0.000805
108 0.000805
109 0.000801
110 0.000798
111 0.000794
112 0.000790
113 0.000787
114 0.000784
115 0.000774
116 0.000765
117 0.000759
118 0.000750
119 0.000737
120 0.000728
121 0.000715
122 0.000701
123 0.000695
124 0.000695
125 0.000691
126 0.000686
127 0.000681
128 0.000686
129 0.000692
130 0.000694
131 0.000694
132 0.000693
133 0.000693
134 0.000697
135 0.000694
136 0.000690
137 0.000692
138 0.000694
139 0.000694
140 0.000691
141 0.000686
142 0.000685
143 0.000683
144 0.000680
145 0.000670
146 0.000663
147 0.000660
148 0.000658
149 0.000650
150 0.000645
151 0.000638
152 0.000633
153 0.000631
154 0.000626
155 0.000626
156 0.000630
157 0.000630
158 0.000626
159 0.000619
160 0.000617
161 0.000619
162 0.000624
163 0.000628
164 0.000635
165 0.000634
166 0.000637
167 0.000642
168 0.000644
169 0.000643
170 0.000635
171 0.000625
172 0.000620
173 0.000611
174 0.000594
175 0.000575
176 0.000559
177 0.000547
178 0.000536
179 0.000529
180 0.000527
181 0.000524
182 0.000526
183 0.000529
184 0.000534
185 0.000535
186 0.000537
187 0.000535
188 0.000532
189 0.000526
190 0.000521
191 0.000522
192 0.000525
193 0.000528
194 0.000526
195 0.000525
196 0.000529
197 0.000535
198 0.000536
199 0.000538
200 0.000537
201 0.000534
202 0.000533
203 0.000529
204 0.000528
205 0.000531
206 0.000537
207 0.000539
208 0.000547
209 0.000553
210 0.000557
211 0.000562
212 0.000567
213 0.000573
214 0.000578
215 0.000580
216 0.000584
217 0.000590
218 0.000594
219 0.000598
220 0.000598
221 0.000598
222 0.000598
223 0.000598
224 0.000591
225 0.000582
226 0.000576
227 0.000571
228 0.000564
229 0.000553
230 0.000539
231 0.000523
232 0.000510
233 0.000502
234 0.000488
235 0.000473
236 0.000464
237 0.000460
238 0.000453
239 0.000443
240 0.000434
241 0.000427
242 0.000423
243 0.000425
244 0.000431
245 0.000432
246 0.000429
247 0.000428
248 0.000428
249 0.000430
250 0.000430
251 0.000426
252 0.000421
253 0.000414
254 0.000410
255 0.000406
256 0.000405
257 0.000411
258 0.000419
259 0.000426
260 0.000432
261 0.000438
262 0.000445
263 0.000452
264 0.000462
265 0.000465
266 0.000465
267 0.000466
268 0.000473
269 0.000475
270 0.000479
271 0.000481
272 0.000484
273 0.000489
274 0.000500
275 0.000507
276 0.000514
277 0.000521
278 0.000523
279 0.000517
280 0.000510
281 0.000509
282 0.000501
283 0.000492
284 0.000489
285 0.000489
286 0.000487
287 0.000481
288 0.000475
289 0.000471
290 0.000466
291 0.000461
292 0.000458
293 0.000462
294 0.000468
295 0.000470
296 0.000471
297 0.000474
298 0.000478
299 0.000486
300 0.000495
301 0.000506
302 0.000512
303 0.000517
304 0.000522
305 0.000525
306 0.000523
307 0.000520
308 0.000515
309 0.000509
310 0.000504
311 0.000499
312 0.000495
313 0.000491
314 0.000486
315 0.000480
316 0.000475
317 0.000474
318 0.000470
319 0.000466
320 0.000462
321 0.000456
322 0.000454
323 0.000452
324 0.000443
325 0.000441
326 0.000440
327 0.000441
328 0.000442
329 0.000443
330 0.000445
331 0.000443
332 0.000441
333 0.000446
334 0.000455
335 0.000458
336 0.000461
337 0.000469
338 0.000478
339 0.000491
340 0.000501
341 0.000514
342 0.000521
343 0.000525
344 0.000530
345 0.000532
346 0.000536
347 0.000543
348 0.000547
349 0.000549
350 0.000552
351 0.000556
352 0.000562
353 0.000569
354 0.000573
355 0.000574
356 0.000573
357 0.000572
358 0.000568
359 0.000559
360 0.000550
361 0.000547
362 0.000540
363 0.000533
364 0.000524
365 0.000517
366 0.000516
367 0.000513
368 0.000507
369 0.000503
370 0.000495
371 0.000487
372 0.000484
373 0.000476
374 0.000473
375 0.000471
376 0.000471
377 0.000475
378 0.000480
379 0.000484
380 0.000488
381 0.000490
382 0.000494
383 0.000497
384 0.000499
385 0.000503
386 0.000501
387 0.000494
388 0.000491
389 0.000490
390 0.000489
391 0.000486
392 0.000485
393 0.000483
394 0.000483
395 0.000483
396 0.000482
397 0.000474
398 0.000467
399 0.000466
400 0.000467
401 0.000466
402 0.000465
403 0.000463
404 0.000455
405 0.000453
406 0.000455
407 0.000455
408 0.000453
409 0.000453
410 0.000455
411 0.000450
412 0.000450
413 0.000449
414 0.000451
415 0.000452
416 0.000454
417 0.000454
418 0.000451
419 0.000450
420 0.000447
421 0.000442
422 0.000442
423 0.000443
424 0.000444
425 0.000444
426 0.000442
427 0.000443
428 0.000443
429 0.000447
430 0.000447
431 0.000445
432 0.000443
433 0.000443
434 0.000442
435 0.000440
436 0.000438
437 0.000431
438 0.000422
439 0.000413
440 0.000406
441 0.000401
442 0.000398
443 0.000396
444 0.000396
445 0.000392
446 0.000390
447 0.000389
448 0.000386
449 0.000377
450 0.000369
451 0.000362
452 0.000353
453 0.000344
454 0.000336
455 0.000325
456 0.000315
457 0.000309
458 0.000303
459 0.000294
460 0.000286
461 0.000283
462 0.000282
463 0.000278
464 0.000273
465 0.000272
466 0.000268
467 0.000266
468 0.000263
469 0.000259
470 0.000258
471 0.000258
472 0.000254
473 0.000250
474 0.000247
475 0.000243
476 0.000240
477 0.000240
478 0.000241
479 0.000241
480 0.000240
481 0.000244
482 0.000246
483 0.000248
484 0.000250
485 0.000255
486 0.000259
487 0.000262
488 0.000265
489 0.000275
490 0.000283
491 0.000289
492 0.000294
493 0.000294
494 0.000294
495 0.000300
496 0.000305
497 0.000308
498 0.000307
499 0.000300
500 0.000299
501 0.000297
502 0.000297
503 0.000303
504 0.000304
505 0.000302
506 0.000300
507 0.000300
508 0.000302
509 0.000305
510 0.000306
511 0.000303
512 0.000301
513 0.000300
514 0.000298
515 0.000294
516 0.000289
517 0.000285
518 0.000279
519 0.000277
520 0.000278
521 0.000274
522 0.000273
523 0.000273
524 0.000277
525 0.000281
526 0.000289
527 0.000299
528 0.000305
529 0.000305
530 0.000306
531 0.000308
532 0.000307
533 0.000307
534 0.000308
535 0.000307
536 0.000307
537 0.000305
538 0.000304
539 0.000302
540 0.000299
541 0.000294
542 0.000288
543 0.000282
544 0.000274
545 0.000268
546 0.000264
547 0.000260
548 0.000250
549 0.000240
550 0.000235
551 0.000232
552 0.000230
553 0.000225
554 0.000219
555 0.000213
556 0.000209
557 0.000203
558 0.000197
559 0.000194
560 0.000193
561 0.000192
562 0.000195
563 0.000198
564 0.000200
565 0.000204
566 0.000209
567 0.000214
568 0.000213
569 0.000213
570 0.000214
571 0.000220
572 0.000224
573 0.000224
574 0.000225
575 0.000225
576 0.000223
577 0.000221
578 0.000222
579 0.000221
580 0.000220
581 0.000219
582 0.000218
583 0.000214
584 0.000209
585 0.000210
586 0.000214
587 0.000213
588 0.000214
589 0.000213
590 0.000214
591 0.000217
592 0.000217
593 0.000213
594 0.000208
595 0.000207
596 0.000206
597 0.000205
598 0.000202
599 0.000197
600 0.000188
601 0.000179
602 0.000175
603 0.000173
604 0.000170
605 0.000166
606 0.000161
607 0.000159
608 0.000159
609 0.000159
610 0.000158
611 0.000161
612 0.000164
613 0.000167
614 0.000172
615 0.000177
616 0.000183
617 0.000189
618 0.000196
619 0.000200
620 0.000203
621 0.000209
622 0.000218
623 0.000225
624 0.000231
625 0.000231
626 0.000233
627 0.000234
628 0.000239
629 0.000242
630 0.000241
631 0.000241
632 0.000243
633 0.000249
634 0.000253
635 0.000256
636 0.000259
637 0.000259
638 0.000259
639 0.000258
640 0.000258
641 0.000260
642 0.000265
643 0.000269
644 0.000275
645 0.000278
646 0.000285
647 0.000292
648 0.000296
649 0.000298
650 0.000302
651 0.000306
652 0.000310
653 0.000318
654 0.000323
655 0.000322
656 0.000324
657 0.000325
658 0.000323
659 0.000322
660 0.000322
661 0.000319
662 0.000313
663 0.000306
664 0.000298
665 0.000287
666 0.000278
667 0.000269
668 0.000259
669 0.000247
670 0.000240
671 0.000234
672 0.000228
673 0.000223
674 0.000217
675 0.000211
676 0.000207
677 0.000206
678 0.000205
679 0.000203
680 0.000206
681 0.000209
682 0.000209
683 0.000209
684 0.000211
685 0.000212
686 0.000213
687 0.000213
688 0.000216
689 0.000219
690 0.000224
691 0.000232
692 0.000238
693 0.000247
694 0.000258
695 0.000270
696 0.000281
697 0.000292
698 0.000300
699 0.000309
700 0.000320
701 0.000331
702 0.000339
703 0.000346
704 0.000353
705 0.000354
706 0.000353
707 0.000351
708 0.000353
709 0.000354
710 0.000354
711 0.000352
712 0.000350
713 0.000346
714 0.000339
715 0.000332
716 0.000324
717 0.000316
718 0.000312
719 0.000310
720 0.000308
721 0.000304
722 0.000302
723 0.000302
724 0.000302
725 0.000304
726 0.000305
727 0.000304
728 0.000307
729 0.000313
730 0.000316
731 0.000315
732 0.000316
733 0.000318
734 0.000319
735 0.000319
736 0.000320
737 0.000320
738 0.000320
739 0.000321
740 0.000320
741 0.000319
742 0.000315
743 0.000309
744 0.000303
745 0.000295
746 0.000291
747 0.000290
748 0.000288
749 0.000288
750 0.000285
751 0.000282
752 0.000276
753 0.000274
754 0.000271
755 0.000268
756 0.000265
757 0.000262
758 0.000263
759 0.000261
760 0.000262
761 0.000262
762 0.000263
763 0.000264
764 0.000267
765 0.000270
766 0.000271
767 0.000273
768 0.000272
769 0.000270
770 0.000270
771 0.000268
772 0.000265
773 0.000260
774 0.000254
775 0.000249
776 0.000244
777 0.000244
778 0.000244
779 0.000240
780 0.000237
781 0.000234
782 0.000228
783 0.000224
784 0.000224
785 0.000224
786 0.000225
787 0.000224
788 0.000225
789 0.000226
790 0.000229
791 0.000233
792 0.000236
793 0.000236
794 0.000238
795 0.000241
796 0.000247
797 0.000252
798 0.000251
799 0.000247
800 0.000243
801 0.000242
802 0.000242
803 0.000242
804 0.000244
805 0.000248
806 0.000249
807 0.000245
808 0.000245
809 0.000245
