# i correlation
1 0.001724
2 0.001675
3 0.001633
4 0.001595
5 0.001566
6 0.001538
7 0.001516
8 0.001499
9 0.001482
10 0.001469
11 0.001455
12 0.001437
13 0.001418
14 0.001405
15 0.001393
16 0.001381
17 0.001368
18 0.001349
19 0.001335
20 0.001325
21 0.001315
22 0.001308
23 0.001299
24 0.001292
25 0.001293
26 0.001295
27 0.001294
28 0.001289
29 0.001283
30 0.001275
31 0.001268
32 0.001257
33 0.001247
34 0.001235
35 0.001232
36 0.001232
37 0.001236
38 0.001234
39 0.001232
40 0.001231
41 0.001225
42 0.001222
43 0.001219
44 0.001217
45 0.001214
46 0.001208
47 0.001202
48 0.001199
49 0.001192
50 0.001182
51 0.001173
52 0.001163
53 0.001153
54 0.001146
55 0.001138
56 0.001131
57 0.001129
58 0.001120
59 0.001110
60 0.001099
61 0.001086
62 0.001076
63 0.001067
64 0.001056
65 0.001050
66 0.001044
67 0.001038
68 0.001033
69 0.001024
70 0.001014
71 0.001011
72 0.001005
73 0.001004
74 0.000998
75 0.000993
76 0.000992
77 0.000992
78 0.000986
79 0.000980
80 0.000973
81 0.000967
82 0.000961
83 0.000955
84 0.000946
85 0.000941
86 0.000937
87 0.000939
88 0.000946
89 0.000949
90 0.000954
91 0.000958
92 0.000956
93 0.000964
94 0.000968
95 0.000966
96 0.000967
97 0.000968
98 0.000974
99 0.000974
100 0.000971
101 0.000969
102 0.000970
103 0.000966
104 0.000956
105 0.000943
106 0.000930
107 0.000918
108 0.000906
109 0.000897
110 0.000888
111 0.000874
112 0.000861
113 0.000856
114 0.000848
115 0.000840
116 0.000835
117 0.000833
118 0.000829
119 0.000821
120 0.000814
121 0.000803
122 0.000789
123 0.000776
124 0.000763
125 0.000756
126 0.000750
127 0.000745
128 0.000746
129 0.000749
130 0.000752
131 0.000753
132 0.000751
133 0.000753
134 0.000752
135 0.000750
136 0.000747
137 0.000743
138 0.000738
139 0.000737
140 0.000735
141 0.000731
142 0.000732
143 0.000733
144 0.000735
145 0.000745
146 0.000754
147 0.000757
148 0.000758
149 0.000755
150 0.000749
151 0.000740
152 0.000727
153 0.000719
154 0.000710
155 0.000706
156 0.000701
157 0.000697
158 0.000693
159 0.000683
160 0.000675
161 0.000666
162 0.000658
163 0.000649
164 0.000646
165 0.000642
166 0.000639
167 0.000638
168 0.000638
169 0.000640
170 0.000638
171 0.000640
172 0.000637
173 0.000634
174 0.000630
175 0.000634
176 0.000635
177 0.000634
178 0.000637
179 0.000639
180 0.000639
181 0.000638
182 0.000635
183 0.000634
184 0.000637
185 0.000643
186 0.000651
187 0.000656
188 0.000659
189 0.000663
190 0.000666
191 0.000670
192 0.000670
193 0.000670
194 0.000672
195 0.000674
196 0.000676
197 0.000672
198 0.000672
199 0.000665
200 0.000662
201 0.000658
202 0.000653
203 0.000648
204 0.000647
205 0.000641
206 0.000641
207 0.000634
208 0.000632
209 0.000625
210 0.000620
211 0.000619
212 0.000614
213 0.000616
214 0.000614
215 0.000611
216 0.000608
217 0.000608
218 0.000607
219 0.000607
220 0.000607
221 0.000609
222 0.000609
223 0.000609
224 0.000607
225 0.000599
226 0.000599
227 0.000601
228 0.000604
229 0.000603
230 0.000603
231 0.000606
232 0.000607
233 0.000605
234 0.000607
235 0.000610
236 0.000607
237 0.000607
238 0.000609
239 0.000607
240 0.000606
241 0.000606
242 0.000604
243 0.000606
244 0.000609
245 0.000608
246 0.000607
247 0.000603
248 0.000606
249 0.000609
250 0.000608
251 0.000604
252 0.000597
253 0.000592
254 0.000585
255 0.000576
256 0.000574
257 0.000572
258 0.000573
259 0.000577
260 0.000579
261 0.000581
262 0.000582
263 0.000589
264 0.000592
265 0.000590
266 0.000589
267 0.000586
268 0.000584
269 0.000581
270 0.000577
271 0.000583
272 0.000582
273 0.000582
274 0.000585
275 0.000585
276 0.000584
277 0.000586
278 0.000587
279 0.000593
280 0.000597
281 0.000600
282 0.000599
283 0.000597
284 0.000593
285 0.000594
286 0.000600
287 0.000608
288 0.000620
289 0.000627
290 0.000632
291 0.000637
292 0.000643
293 0.000646
294 0.000649
295 0.000645
296 0.000642
297 0.000640
298 0.000641
299 0.000641
300 0.000640
301 0.000638
302 0.000640
303 0.000641
304 0.000646
305 0.000646
306 0.000641
307 0.000637
308 0.000634
309 0.000631
310 0.000623
311 0.000617
312 0.000613
313 0.000613
314 0.000613
315 0.000613
316 0.000618
317 0.000622
318 0.000626
319 0.000632
320 0.000632
321 0.000639
322 0.000640
323 0.000642
324 0.000640
325 0.000637
326 0.000635
327 0.000628
328 0.000624
329 0.000624
330 0.000628
331 0.000632
332 0.000628
333 0.000627
334 0.000625
335 0.000626
336 0.000628
337 0.000629
338 0.000624
339 0.000620
340 0.000614
341 0.000611
342 0.000606
343 0.000602
344 0.000599
345 0.000593
346 0.000588
347 0.000587
348 0.000586
349 0.000584
350 0.000578
351 0.000579
352 0.000582
353 0.000581
354 0.000578
355 0.000568
356 0.000560
357 0.000554
358 0.000549
359 0.000547
360 0.000543
361 0.000542
362 0.000544
363 0.000542
364 0.000538
365 0.000535
366 0.000536
367 0.000539
368 0.000542
369 0.000543
370 0.000543
371 0.000542
372 0.000532
373 0.000525
374 0.000520
375 0.000516
376 0.000512
377 0.000512
378 0.000511
379 0.000513
380 0.000515
381 0.000518
382 0.000519
383 0.000516
384 0.000515
385 0.000510
386 0.000499
387 0.000490
388 0.000481
389 0.000474
390 0.000476
391 0.000475
392 0.000476
393 0.000473
394 0.000471
395 0.000471
396 0.000472
397 0.000478
398 0.000482
399 0.000485
400 0.000485
401 0.000483
402 0.000481
403 0.000475
404 0.000468
405 0.000464
406 0.000464
407 0.000466
408 0.000469
409 0.000474
410 0.000480
411 0.000483
412 0.000485
413 0.000487
414 0.000484
415 0.000476
416 0.000470
417 0.000463
418 0.000458
419 0.000456
420 0.000451
421 0.000451
422 0.000452
423 0.000454
424 0.000457
425 0.000458
426 0.000461
427 0.000465
428 0.000470
429 0.000472
430 0.000471
431 0.000467
432 0.000467
433 0.000465
434 0.000466
435 0.000470
436 0.000475
437 0.000477
438 0.000481
439 0.000485
440 0.000485
441 0.000481
442 0.000476
443 0.000471
444 0.000464
445 0.000456
446 0.000448
447 0.000440
448 0.000433
449 0.000433
450 0.000437
451 0.000434
452 0.000431
453 0.000426
454 0.000421
455 0.000411
456 0.000402
457 0.000392
458 0.000389
459 0.000386
460 0.000383
461 0.000384
462 0.000383
463 0.000380
464 0.000381
465 0.000385
466 0.000387
467 0.000392
468 0.000395
469 0.000401
470 0.000401
471 0.000401
472 0.000406
473 0.000407
474 0.000404
475 0.000401
476 0.000396
477 0.000391
478 0.000390
479 0.000387
480 0.000385
481 0.000385
482 0.000378
483 0.000373
484 0.000373
485 0.000370
486 0.000365
487 0.000359
488 0.000352
489 0.000344
490 0.000339
491 0.000333
492 0.000330
493 0.000326
494 0.000321
495 0.000317
496 0.000309
497 0.000303
498 0.000301
499 0.000300
500 0.000303
501 0.000305
502 0.000309
503 0.000306
504 0.000303
505 0.000302
506 0.000304
507 0.000307
508 0.000308
509 0.000314
510 0.000316
511 0.000319
512 0.000325
513 0.000324
514 0.000322
515 0.000324
516 0.000328
517 0.000336
518 0.000337
519 0.000337
520 0.000336
521 0.000334
522 0.000332
523 0.000330
524 0.000326
525 0.000323
526 0.000322
527 0.000325
528 0.000325
529 0.000328
530 0.000331
531 0.000330
532 0.000333
533 0.000333
534 0.000330
535 0.000325
536 0.000321
537 0.000322
538 0.000322
539 0.000321
540 0.000319
541 0.000313
542 0.000306
543 0.000304
544 0.000298
545 0.000292
546 0.000285
547 0.000282
548 0.000278
549 0.000275
550 0.000268
551 0.000257
552 0.000247
553 0.000235
554 0.000225
555 0.000219
556 0.000215
557 0.000216
558 0.000216
559 0.000216
560 0.000216
561 0.000215
562 0.000215
563 0.000219
564 0.000218
565 0.000218
566 0.000221
567 0.000223
568 0.000221
569 0.000223
570 0.000221
571 0.000218
572 0.000216
573 0.000212
574 0.000208
575 0.000206
576 0.000200
577 0.000194
578 0.000188
579 0.000183
580 0.000181
581 0.000178
582 0.000177
583 0.000177
584 0.000178
585 0.000180
586 0.000179
587 0.000179
588 0.000177
589 0.000173
590 0.000166
591 0.000156
592 0.000150
593 0.000143
594 0.000137
595 0.000132
596 0.000129
597 0.000130
598 0.000130
599 0.000125
600 0.000122
601 0.000118
602 0.000114
603 0.000111
604 0.000108
605 0.000109
606 0.000111
607 0.000112
608 0.000114
609 0.000116
610 0.000119
611 0.000126
612 0.000130
613 0.000135
614 0.000140
615 0.000145
616 0.000147
617 0.000149
618 0.000156
619 0.000160
620 0.000166
621 0.000168
622 0.000171
623 0.000176
624 0.000177
625 0.000180
626 0.000182
627 0.000185
628 0.000184
629 0.000186
630 0.000191
631 0.000191
632 0.000190
633 0.000188
634 0.000188
635 0.000188
636 0.000187
637 0.000188
638 0.000188
639 0.000189
640 0.000191
641 0.000192
642 0.000192
643 0.000191
644 0.000186
645 0.000181
646 0.000174
647 0.000168
648 0.000161
649 0.000155
650 0.000153
651 0.000150
652 0.000146
653 0.000143
654 0.000141
655 0.000139
656 0.000139
657 0.000142
658 0.000145
659 0.000148
660 0.000154
661 0.000159
662 0.000165
663 0.000170
664 0.000174
665 0.000179
666 0.000182
667 0.000186
668 0.000188
669 0.000191
670 0.000192
671 0.000195
672 0.000199
673 0.000200
674 0.000198
675 0.000196
676 0.000196
677 0.000196
678 0.000195
679 0.000192
680 0.000189
681 0.000187
682 0.000188
683 0.000186
684 0.000186
685 0.000181
686 0.000179
687 0.000179
688 0.000177
689 0.000175
690 0.000172
691 0.000166
692 0.000164
693 0.000156
694 0.000149
695 0.000144
696 0.000142
697 0.000138
698 0.000137
699 0.000135
700 0.000133
701 0.000133
702 0.000131
703 0.000133
704 0.000136
705 0.000136
706 0.000140
707 0.000144
708 0.000148
709 0.000152
710 0.000152
711 0.000149
712 0.000148
713 0.000148
714 0.000149
715 0.000155
716 0.000161
717 0.000164
718 0.000169
719 0.000171
720 0.000172
721 0.000172
722 0.000169
723 0.000166
724 0.000164
725 0.000165
726 0.000164
727 0.000162
728 0.000163
729 0.000164
730 0.000166
731 0.000168
732 0.000172
733 0.000178
734 0.000181
735 0.000182
736 0.000184
737 0.000182
738 0.000179
739 0.000173
740 0.000168
741 0.000167
742 0.000162
743 0.000160
744 0.000161
745 0.000156
746 0.000150
747 0.000144
748 0.000137
749 0.000130
750 0.000124
751 0.000117
752 0.000114
753 0.000114
754 0.000115
755 0.000117
756 0.000117
757 0.000117
758 0.000120
759 0.000122
760 0.000126
761 0.000130
762 0.000131
763 0.000134
764 0.000135
765 0.000137
766 0.000139
767 0.000139
768 0.000137
769 0.000136
770 0.000136
771 0.000138
772 0.000139
773 0.000141
774 0.000140
775 0.000142
776 0.000142
777 0.000143
778 0.000143
779 0.000142
780 0.000147
781 0.000153
782 0.000154
783 0.000156
784 0.000153
785 0.000149
786 0.000148
787 0.000146
788 0.000143
789 0.000141
790 0.000139
791 0.000138
792 0.000136
793 0.000133
794 0.000132
795 0.000129
796 0.000125
797 0.000123
798 0.000124
799 0.000123
800 0.000117
801 0.000113
802 0.000110
803 0.000109
804 0.000108
805 0.000107
806 0.000107
807 0.000109
808 0.000110
809 0.000113
