# i correlation
1 0.001422
2 0.001372
3 0.001335
4 0.001305
5 0.001277
6 0.001249
7 0.001226
8 0.001207
9 0.001186
10 0.001165
11 0.001144
12 0.001122
13 0.001100
14 0.001088
15 0.001078
16 0.001066
17 0.001053
18 0.001038
19 0.001026
20 0.001021
21 0.001013
22 0.001011
23 0.001011
24 0.001006
25 0.001000
26 0.000993
27 0.000988
28 0.000989
29 0.000986
30 0.000980
31 0.000970
32 0.000962
33 0.000958
34 0.000951
35 0.000945
36 0.000937
37 0.000926
38 0.000911
39 0.000895
40 0.000881
41 0.000866
42 0.000853
43 0.000844
44 0.000835
45 0.000831
46 0.000823
47 0.000816
48 0.000806
49 0.000806
50 0.000806
51 0.000805
52 0.000800
53 0.000794
54 0.000786
55 0.000782
56 0.000781
57 0.000783
58 0.000790
59 0.000797
60 0.000800
61 0.000804
62 0.000802
63 0.000802
64 0.000799
65 0.000802
66 0.000805
67 0.000809
68 0.000807
69 0.000808
70 0.000806
71 0.000799
72 0.000797
73 0.000793
74 0.000786
75 0.000779
76 0.000773
77 0.000769
78 0.000763
79 0.000760
80 0.000757
81 0.000759
82 0.000756
83 0.000751
84 0.000747
85 0.000746
86 0.000749
87 0.000749
88 0.000749
89 0.000745
90 0.000746
91 0.000747
92 0.000748
93 0.000751
94 0.000753
95 0.000756
96 0.000760
97 0.000760
98 0.000763
99 0.000763
100 0.000757
101 0.000748
102 0.000743
103 0.000737
104 0.000728
105 0.000722
106 0.000710
107 0.000699
108 0.000695
109 0.000691
110 0.000688
111 0.000683
112 0.000678
113 0.000675
114 0.000669
115 0.000663
116 0.000661
117 0.000660
118 0.000658
119 0.000656
120 0.000648
121 0.000644
122 0.000643
123 0.000641
124 0.000645
125 0.000646
126 0.000648
127 0.000646
128 0.000648
129 0.000645
130 0.000644
131 0.000639
132 0.000633
133 0.000631
134 0.000629
135 0.000628
136 0.000626
137 0.000623
138 0.000626
139 0.000628
140 0.000624
141 0.000619
142 0.000613
143 0.000609
144 0.000609
145 0.000605
146 0.000601
147 0.000600
148 0.000599
149 0.000596
150 0.000591
151 0.000586
152 0.000583
153 0.000581
154 0.000576
155 0.000575
156 0.000573
157 0.000572
158 0.000578
159 0.000577
160 0.000574
161 0.000571
162 0.000571
163 0.000576
164 0.000581
165 0.000583
166 0.000587
167 0.000591
168 0.000594
169 0.000596
170 0.000596
171 0.000596
172 0.000598
173 0.000596
174 0.000595
175 0.000599
176 0.000597
177 0.000592
178 0.000587
179 0.000580
180 0.000572
181 0.000563
182 0.000552
183 0.000542
184 0.000539
185 0.000536
186 0.000530
187 0.000522
188 0.000511
189 0.000503
190 0.000493
191 0.000484
192 0.000478
193 0.000478
194 0.000477
195 0.000475
196 0.000471
197 0.000468
198 0.000467
199 0.000468
200 0.000472
201 0.000473
202 0.000474
203 0.000474
204 0.000477
205 0.000481
206 0.000478
207 0.000475
208 0.000480
209 0.000486
210 0.000486
211 0.000485
212 0.000482
213 0.000483
214 0.000484
215 0.000483
216 0.000482
217 0.000480
218 0.000478
219 0.000476
220 0.000470
221 0.000470
222 0.000471
223 0.000472
224 0.000474
225 0.000471
226 0.000466
227 0.000461
228 0.000461
229 0.000461
230 0.000462
231 0.000463
232 0.000464
233 0.000466
234 0.000468
235 0.000470
236 0.000474
237 0.000479
238 0.000489
239 0.000502
240 0.000513
241 0.000518
242 0.000520
243 0.000520
244 0.000523
245 0.000525
246 0.000526
247 0.000527
248 0.000527
249 0.000524
250 0.000519
251 0.000517
252 0.000512
253 0.000509
254 0.000513
255 0.000513
256 0.000520
257 0.000523
258 0.000523
259 0.000524
260 0.000522
261 0.000515
262 0.000508
263 0.000507
264 0.000503
265 0.000500
266 0.000500
267 0.000502
268 0.000503
269 0.000507
270 0.000510
271 0.000512
272 0.000511
273 0.000509
274 0.000506
275 0.000509
276 0.000507
277 0.000506
278 0.000498
279 0.000491
280 0.000490
281 0.000487
282 0.000486
283 0.000486
284 0.000484
285 0.000480
286 0.000477
287 0.000474
288 0.000466
289 0.000462
290 0.000460
291 0.000461
292 0.000462
293 0.000459
294 0.000455
295 0.000445
296 0.000439
297 0.000433
298 0.000425
299 0.000416
300 0.000410
301 0.000407
302 0.000404
303 0.000405
304 0.000407
305 0.000410
306 0.000411
307 0.000413
308 0.000418
309 0.000421
310 0.000421
311 0.000418
312 0.000415
313 0.000411
314 0.000409
315 0.000410
316 0.000411
317 0.000413
318 0.000417
319 0.000422
320 0.000422
321 0.000420
322 0.000418
323 0.000413
324 0.000409
325 0.000403
326 0.000400
327 0.000394
328 0.000390
329 0.000390
330 0.000392
331 0.000393
332 0.000395
333 0.000399
334 0.000400
335 0.000399
336 0.000395
337 0.000395
338 0.000399
339 0.000401
340 0.000403
341 0.000405
342 0.000405
343 0.000405
344 0.000404
345 0.000400
346 0.000393
347 0.000389
348 0.000385
349 0.000379
350 0.000368
351 0.000359
352 0.000358
353 0.000362
354 0.000362
355 0.000358
356 0.000356
357 0.000358
358 0.000357
359 0.000351
360 0.000338
361 0.000327
362 0.000322
363 0.000323
364 0.000322
365 0.000318
366 0.000314
367 0.000311
368 0.000315
369 0.000318
370 0.000318
371 0.000315
372 0.000307
373 0.000302
374 0.000295
375 0.000292
376 0.000289
377 0.000284
378 0.000279
379 0.000274
380 0.000270
381 0.000266
382 0.000263
383 0.000262
384 0.000264
385 0.000265
386 0.000268
387 0.000270
388 0.000274
389 0.000278
390 0.000280
391 0.000285
392 0.000289
393 0.000292
394 0.000294
395 0.000296
396 0.000298
397 0.000296
398 0.000294
399 0.000296
400 0.000297
401 0.000299
402 0.000299
403 0.000300
404 0.000299
405 0.000294
406 0.000294
407 0.000292
408 0.000292
409 0.000292
410 0.000290
411 0.000286
412 0.000281
413 0.000282
414 0.000285
415 0.000287
416 0.000288
417 0.000293
418 0.000297
419 0.000299
420 0.000301
421 0.000306
422 0.000306
423 0.000307
424 0.000311
425 0.000318
426 0.000324
427 0.000324
428 0.000323
429 0.000320
430 0.000317
431 0.000314
432 0.000310
433 0.000308
434 0.000307
435 0.000308
436 0.000306
437 0.000301
438 0.000297
439 0.000291
440 0.000286
441 0.000282
442 0.000281
443 0.000282
444 0.000279
445 0.000278
446 0.000272
447 0.000268
448 0.000263
449 0.000260
450 0.000256
451 0.000249
452 0.000241
453 0.000233
454 0.000231
455 0.000227
456 0.000227
457 0.000230
458 0.000229
459 0.000228
460 0.000224
461 0.000223
462 0.000223
463 0.000223
464 0.000220
465 0.000216
466 0.000211
467 0.000207
468 0.000207
469 0.000204
470 0.000201
471 0.000197
472 0.000192
473 0.000186
474 0.000178
475 0.000170
476 0.000164
477 0.000162
478 0.000162
479 0.000164
480 0.000168
481 0.000169
482 0.000172
483 0.000175
484 0.000176
485 0.000177
486 0.000181
487 0.000187
488 0.000194
489 0.000198
490 0.000203
491 0.000207
492 0.000214
493 0.000218
494 0.000226
495 0.000231
496 0.000238
497 0.000247
498 0.000257
499 0.000263
500 0.000264
501 0.000264
502 0.000267
503 0.000264
504 0.000261
505 0.000260
506 0.000263
507 0.000266
508 0.000268
509 0.000265
510 0.000264
511 0.000263
512 0.000261
513 0.000261
514 0.000265
515 0.000269
516 0.000274
517 0.000277
518 0.000278
519 0.000282
520 0.000284
521 0.000283
522 0.000285
523 0.000287
524 0.000287
525 0.000286
526 0.000288
527 0.000293
528 0.000293
529 0.000296
530 0.000300
531 0.000303
532 0.000301
533 0.000300
534 0.000299
535 0.000296
536 0.000292
537 0.000287
538 0.000284
539 0.000281
540 0.000276
541 0.000272
542 0.000269
543 0.000269
544 0.000267
545 0.000261
546 0.000257
547 0.000257
548 0.000252
549 0.000249
550 0.000248
551 0.000241
552 0.000235
553 0.000231
554 0.000223
555 0.000214
556 0.000208
557 0.000207
558 0.000204
559 0.000205
560 0.000204
561 0.000200
562 0.000197
563 0.000195
564 0.000194
565 0.000192
566 0.000194
567 0.000199
568 0.000201
569 0.000203
570 0.000202
571 0.000203
572 0.000203
573 0.000203
574 0.000201
575 0.000199
576 0.000197
577 0.000194
578 0.000191
579 0.000188
580 0.000187
581 0.000189
582 0.000187
583 0.000187
584 0.000185
585 0.000182
586 0.000180
587 0.000179
588 0.000179
589 0.000181
590 0.000179
591 0.000176
592 0.000175
593 0.000176
594 0.000178
595 0.000181
596 0.000187
597 0.000192
598 0.000195
599 0.000198
600 0.000200
601 0.000205
602 0.000207
603 0.000210
604 0.000211
605 0.000213
606 0.000212
607 0.000212
608 0.000209
609 0.000209
610 0.000213
611 0.000216
612 0.000218
613 0.000218
614 0.000217
615 0.000215
616 0.000213
617 0.000210
618 0.000204
619 0.000200
620 0.000193
621 0.000183
622 0.000174
623 0.000167
624 0.000164
625 0.000163
626 0.000164
627 0.000164
628 0.000163
629 0.000163
630 0.000163
631 0.000158
632 0.000155
633 0.000149
634 0.000147
635 0.000148
636 0.000147
637 0.000142
638 0.000139
639 0.000138
640 0.000141
641 0.000140
642 0.000139
643 0.000135
644 0.000133
645 0.000130
646 0.000129
647 0.000129
648 0.000128
649 0.000128
650 0.000127
651 0.000122
652 0.000116
653 0.000109
654 0.000105
655 0.000104
656 0.000104
657 0.000107
658 0.000110
659 0.000110
660 0.000109
661 0.000108
662 0.000110
663 0.000112
664 0.000118
665 0.000125
666 0.000132
667 0.000134
668 0.000137
669 0.000140
670 0.000139
671 0.000139
672 0.000143
673 0.000146
674 0.000145
675 0.000146
676 0.000147
677 0.000149
678 0.000150
679 0.000149
680 0.000146
681 0.000144
682 0.000143
683 0.000142
684 0.000140
685 0.000141
686 0.000143
687 0.000143
688 0.000142
689 0.000140
690 0.000134
691 0.000132
692 0.000131
693 0.000131
694 0.000134
695 0.000136
696 0.000137
697 0.000139
698 0.000139
699 0.000142
700 0.000143
701 0.000148
702 0.000152
703 0.000157
704 0.000157
705 0.000157
706 0.000156
707 0.000159
708 0.000163
709 0.000163
710 0.000165
711 0.000169
712 0.000170
713 0.000167
714 0.000161
715 0.000157
716 0.000154
717 0.000150
718 0.000146
719 0.000138
720 0.000129
721 0.000120
722 0.000116
723 0.000110
724 0.000106
725 0.000105
726 0.000102
727 0.000100
728 0.000100
729 0.000098
730 0.000096
731 0.000097
732 0.000101
733 0.000104
734 0.000110
735 0.000114
736 0.000118
737 0.000121
738 0.000123
739 0.000127
740 0.000130
741 0.000133
742 0.000135
743 0.000139
744 0.000142
745 0.000145
746 0.000149
747 0.000149
748 0.000149
749 0.000147
750 0.000145
751 0.000143
752 0.000143
753 0.000140
754 0.000138
755 0.000138
756 0.000134
757 0.000128
758 0.000122
759 0.000118
760 0.000113
761 0.000110
762 0.000107
763 0.000105
764 0.000103
765 0.000100
766 0.000098
767 0.000100
768 0.000102
769 0.000104
770 0.000102
771 0.000103
772 0.000103
773 0.000102
774 0.000101
775 0.000102
776 0.000103
777 0.000104
778 0.000104
779 0.000103
780 0.000101
781 0.000098
782 0.000097
783 0.000100
784 0.000101
785 0.000101
786 0.000100
787 0.000098
788 0.000094
789 0.000091
790 0.000091
791 0.000090
792 0.000088
793 0.000083
794 0.000082
795 0.000081
796 0.000077
797 0.000075
798 0.000075
799 0.000075
800 0.000075
801 0.000074
802 0.000075
803 0.000078
804 0.000080
805 0.000083
806 0.000085
807 0.000087
808 0.000084
809 0.000079
