# i correlation
1 0.001425
2 0.001373
3 0.001330
4 0.001291
5 0.001257
6 0.001227
7 0.001198
8 0.001174
9 0.001148
10 0.001126
11 0.001106
12 0.001080
13 0.001061
14 0.001044
15 0.001028
16 0.001016
17 0.001002
18 0.000984
19 0.000968
20 0.000955
21 0.000951
22 0.000952
23 0.000950
24 0.000949
25 0.000948
26 0.000950
27 0.000955
28 0.000960
29 0.000966
30 0.000975
31 0.000983
32 0.000983
33 0.000981
34 0.000976
35 0.000965
36 0.000956
37 0.000954
38 0.000951
39 0.000949
40 0.000944
41 0.000938
42 0.000936
43 0.000933
44 0.000931
45 0.000936
46 0.000935
47 0.000940
48 0.000941
49 0.000937
50 0.000931
51 0.000925
52 0.000920
53 0.000917
54 0.000914
55 0.000915
56 0.000912
57 0.000910
58 0.000909
59 0.000905
60 0.000903
61 0.000900
62 0.000900
63 0.000898
64 0.000898
65 0.000892
66 0.000885
67 0.000878
68 0.000870
69 0.000862
70 0.000856
71 0.000849
72 0.000841
73 0.000831
74 0.000820
75 0.000816
76 0.000814
77 0.000810
78 0.000807
79 0.000800
80 0.000795
81 0.000788
82 0.000783
83 0.000779
84 0.000773
85 0.000771
86 0.000774
87 0.000775
88 0.000772
89 0.000771
90 0.000767
91 0.000764
92 0.000769
93 0.000777
94 0.000782
95 0.000783
96 0.000776
97 0.000770
98 0.000762
99 0.000755
100 0.000747
101 0.000739
102 0.000732
103 0.000730
104 0.000727
105 0.000724
106 0.000717
107 0.000709
108 0.000703
109 0.000694
110 0.000687
111 0.000683
112 0.000680
113 0.000673
114 0.000670
115 0.000663
116 0.000655
117 0.000648
118 0.000643
119 0.000645
120 0.000646
121 0.000651
122 0.000654
123 0.000658
124 0.000661
125 0.000666
126 0.000661
127 0.000656
128 0.000653
129 0.000648
130 0.000646
131 0.000648
132 0.000645
133 0.000640
134 0.000636
135 0.000633
136 0.000635
137 0.000632
138 0.000628
139 0.000620
140 0.000615
141 0.000611
142 0.000612
143 0.000606
144 0.000595
145 0.000587
146 0.000579
147 0.000577
148 0.000581
149 0.000579
150 0.000581
151 0.000582
152 0.000585
153 0.000591
154 0.000598
155 0.000606
156 0.000611
157 0.000608
158 0.000606
159 0.000605
160 0.000598
161 0.000593
162 0.000587
163 0.000580
164 0.000573
165 0.000565
166 0.000560
167 0.000553
168 0.000541
169 0.000531
170 0.000529
171 0.000522
172 0.000518
173 0.000511
174 0.000502
175 0.000493
176 0.000485
177 0.000475
178 0.000466
179 0.000457
180 0.000449
181 0.000446
182 0.000444
183 0.000439
184 0.000429
185 0.000426
186 0.000425
187 0.000428
188 0.000431
189 0.000436
190 0.000442
191 0.000446
192 0.000450
193 0.000454
194 0.000454
195 0.000457
196 0.000457
197 0.000457
198 0.000460
199 0.000464
200 0.000469
201 0.000473
202 0.000473
203 0.000477
204 0.000480
205 0.000485
206 0.000492
207 0.000500
208 0.000502
209 0.000503
210 0.000505
211 0.000503
212 0.000498
213 0.000494
214 0.000489
215 0.000483
216 0.000476
217 0.000470
218 0.000473
219 0.000472
220 0.000471
221 0.000467
222 0.000462
223 0.000458
224 0.000451
225 0.000445
226 0.000440
227 0.000430
228 0.000419
229 0.000411
230 0.000406
231 0.000398
232 0.000389
233 0.000381
234 0.000374
235 0.000372
236 0.000370
237 0.000368
238 0.000365
239 0.000364
240 0.000365
241 0.000370
242 0.000375
243 0.000378
244 0.000378
245 0.000381
246 0.000381
247 0.000378
248 0.000382
249 0.000386
250 0.000392
251 0.000397
252 0.000404
253 0.000413
254 0.000418
255 0.000420
256 0.000420
257 0.000420
258 0.000418
259 0.000420
260 0.000420
261 0.000422
262 0.000422
263 0.000423
264 0.000421
265 0.000421
266 0.000417
267 0.000415
268 0.000412
269 0.000412
270 0.000411
271 0.000404
272 0.000398
273 0.000394
274 0.000387
275 0.000382
276 0.000380
277 0.000373
278 0.000370
279 0.000366
280 0.000364
281 0.000362
282 0.000363
283 0.000367
284 0.000373
285 0.000381
286 0.000387
287 0.000387
288 0.000386
289 0.000385
290 0.000389
291 0.000392
292 0.000396
293 0.000403
294 0.000407
295 0.000410
296 0.000408
297 0.000404
298 0.000405
299 0.000402
300 0.000402
301 0.000401
302 0.000403
303 0.000407
304 0.000412
305 0.000411
306 0.000409
307 0.000406
308 0.000402
309 0.000394
310 0.000389
311 0.000387
312 0.000388
313 0.000390
314 0.000395
315 0.000396
316 0.000396
317 0.000399
318 0.000403
319 0.000404
320 0.000406
321 0.000408
322 0.000410
323 0.000410
324 0.000407
325 0.000410
326 0.000414
327 0.000414
328 0.000412
329 0.000410
330 0.000408
331 0.000409
332 0.000405
333 0.000400
334 0.000393
335 0.000385
336 0.000376
337 0.000371
338 0.000366
339 0.000356
340 0.000346
341 0.000342
342 0.000339
343 0.000336
344 0.000335
345 0.000337
346 0.000334
347 0.000335
348 0.000341
349 0.000347
350 0.000348
351 0.000348
352 0.000350
353 0.000353
354 0.000357
355 0.000364
356 0.000368
357 0.000373
358 0.000381
359 0.000388
360 0.000396
361 0.000398
362 0.000400
363 0.000399
364 0.000395
365 0.000388
366 0.000382
367 0.000372
368 0.000368
369 0.000363
370 0.000352
371 0.000345
372 0.000336
373 0.000328
374 0.000322
375 0.000316
376 0.000310
377 0.000306
378 0.000303
379 0.000301
380 0.000300
381 0.000302
382 0.000303
383 0.000303
384 0.000305
385 0.000306
386 0.000308
387 0.000311
388 0.000314
389 0.000314
390 0.000316
391 0.000318
392 0.000322
393 0.000324
394 0.000321
395 0.000317
396 0.000316
397 0.000315
398 0.000312
399 0.000310
400 0.000307
401 0.000304
402 0.000298
403 0.000294
404 0.000287
405 0.000283
406 0.000283
407 0.000290
408 0.000296
409 0.000301
410 0.000299
411 0.000297
412 0.000296
413 0.000297
414 0.000296
415 0.000293
416 0.000293
417 0.000297
418 0.000304
419 0.000310
420 0.000313
421 0.000312
422 0.000305
423 0.000300
424 0.000299
425 0.000298
426 0.000300
427 0.000299
428 0.000297
429 0.000294
430 0.000292
431 0.000291
432 0.000285
433 0.000281
434 0.000279
435 0.000277
436 0.000274
437 0.000267
438 0.000261
439 0.000259
440 0.000258
441 0.000260
442 0.000261
443 0.000258
444 0.000254
445 0.000255
446 0.000259
447 0.000257
448 0.000261
449 0.000266
450 0.000274
451 0.000279
452 0.000287
453 0.000290
454 0.000290
455 0.000290
456 0.000294
457 0.000297
458 0.000297
459 0.000296
460 0.000298
461 0.000300
462 0.000301
463 0.000304
464 0.000306
465 0.000304
466 0.000304
467 0.000302
468 0.000302
469 0.000296
470 0.000288
471 0.000283
472 0.000277
473 0.000276
474 0.000281
475 0.000284
476 0.000287
477 0.000287
478 0.000284
479 0.000282
480 0.000284
481 0.000284
482 0.000280
483 0.000281
484 0.000283
485 0.000285
486 0.000284
487 0.000285
488 0.000283
489 0.000278
490 0.000274
491 0.000272
492 0.000271
493 0.000271
494 0.000271
495 0.000268
496 0.000269
497 0.000269
498 0.000267
499 0.000266
500 0.000262
501 0.000258
502 0.000253
503 0.000249
504 0.000245
505 0.000243
506 0.000241
507 0.000235
508 0.000233
509 0.000229
510 0.000227
511 0.000230
512 0.000235
513 0.000244
514 0.000253
515 0.000261
516 0.000268
517 0.000272
518 0.000276
519 0.000279
520 0.000278
521 0.000282
522 0.000286
523 0.000291
524 0.000297
525 0.000302
526 0.000305
527 0.000307
528 0.000311
529 0.000311
530 0.000313
531 0.000311
532 0.000310
533 0.000306
534 0.000303
535 0.000303
536 0.000298
537 0.000293
538 0.000291
539 0.000290
540 0.000288
541 0.000285
542 0.000277
543 0.000276
544 0.000278
545 0.000283
546 0.000282
547 0.000279
548 0.000278
549 0.000281
550 0.000280
551 0.000281
552 0.000277
553 0.000273
554 0.000271
555 0.000269
556 0.000271
557 0.000269
558 0.000264
559 0.000262
560 0.000262
561 0.000261
562 0.000262
563 0.000265
564 0.000266
565 0.000263
566 0.000265
567 0.000269
568 0.000271
569 0.000275
570 0.000280
571 0.000283
572 0.000285
573 0.000288
574 0.000290
575 0.000290
576 0.000290
577 0.000288
578 0.000283
579 0.000278
580 0.000276
581 0.000273
582 0.000271
583 0.000271
584 0.000270
585 0.000269
586 0.000266
587 0.000262
588 0.000262
589 0.000262
590 0.000263
591 0.000264
592 0.000262
593 0.000259
594 0.000254
595 0.000248
596 0.000243
597 0.000240
598 0.000240
599 0.000244
600 0.000249
601 0.000255
602 0.000259
603 0.000262
604 0.000267
605 0.000270
606 0.000277
607 0.000285
608 0.000293
609 0.000298
610 0.000301
611 0.000306
612 0.000312
613 0.000313
614 0.000313
615 0.000313
616 0.000314
617 0.000318
618 0.000319
619 0.000318
620 0.000314
621 0.000309
622 0.000306
623 0.000304
624 0.000299
625 0.000296
626 0.000285
627 0.000277
628 0.000268
629 0.000257
630 0.000249
631 0.000243
632 0.000236
633 0.000233
634 0.000228
635 0.000223
636 0.000219
637 0.000216
638 0.000217
639 0.000218
640 0.000219
641 0.000217
642 0.000216
643 0.000213
644 0.000212
645 0.000211
646 0.000211
647 0.000212
648 0.000213
649 0.000220
650 0.000223
651 0.000226
652 0.000229
653 0.000235
654 0.000240
655 0.000244
656 0.000248
657 0.000250
658 0.000248
659 0.000248
660 0.000249
661 0.000251
662 0.000251
663 0.000249
664 0.000245
665 0.000236
666 0.000230
667 0.000223
668 0.000218
669 0.000211
670 0.000211
671 0.000211
672 0.000211
673 0.000208
674 0.000203
675 0.000204
676 0.000206
677 0.000207
678 0.000207
679 0.000206
680 0.000203
681 0.000201
682 0.000199
683 0.000197
684 0.000195
685 0.000195
686 0.000196
687 0.000199
688 0.000198
689 0.000196
690 0.000193
691 0.000192
692 0.000189
693 0.000188
694 0.000186
695 0.000181
696 0.000173
697 0.000166
698 0.000159
699 0.000152
700 0.000149
701 0.000147
702 0.000147
703 0.000145
704 0.000144
705 0.000145
706 0.000147
707 0.000149
708 0.000147
709 0.000145
710 0.000145
711 0.000145
712 0.000144
713 0.000142
714 0.000139
715 0.000134
716 0.000129
717 0.000125
718 0.000123
719 0.000124
720 0.000123
721 0.000122
722 0.000122
723 0.000122
724 0.000120
725 0.000116
726 0.000115
727 0.000112
728 0.000107
729 0.000101
730 0.000095
731 0.000092
732 0.000089
733 0.000087
734 0.000084
735 0.000083
736 0.000085
737 0.000085
738 0.000087
739 0.000090
740 0.000094
741 0.000098
742 0.000100
743 0.000100
744 0.000101
745 0.000099
746 0.000098
747 0.000098
748 0.000099
749 0.000100
750 0.000100
751 0.000098
752 0.000097
753 0.000095
754 0.000094
755 0.000093
756 0.000093
757 0.000091
758 0.000091
759 0.000090
760 0.000087
761 0.000084
762 0.000081
763 0.000076
764 0.000073
765 0.000070
766 0.000067
767 0.000065
768 0.000063
769 0.000061
770 0.000059
771 0.000057
772 0.000054
773 0.000052
774 0.000050
775 0.000046
776 0.000043
777 0.000040
778 0.000040
779 0.000041
780 0.000040
781 0.000041
782 0.000042
783 0.000043
784 0.000043
785 0.000042
786 0.000040
787 0.000040
788 0.000039
789 0.000036
790 0.000032
791 0.000029
792 0.000024
793 0.000019
794 0.000016
795 0.000013
796 0.000009
797 0.000007
798 0.000006
799 0.000007
800 0.000008
801 0.000007
802 0.000005
803 0.000002
804 0.000001
805 0.000000
806 0.000001
807 0.000000
808 0.000001
809 0.000003
