# i correlation
1 0.001794
2 0.001738
3 0.001689
4 0.001650
5 0.001617
6 0.001590
7 0.001565
8 0.001540
9 0.001517
10 0.001499
11 0.001483
12 0.001470
13 0.001460
14 0.001452
15 0.001442
16 0.001431
17 0.001421
18 0.001413
19 0.001401
20 0.001393
21 0.001386
22 0.001379
23 0.001374
24 0.001373
25 0.001370
26 0.001370
27 0.001366
28 0.001361
29 0.001356
30 0.001351
31 0.001341
32 0.001333
33 0.001329
34 0.001330
35 0.001327
36 0.001325
37 0.001329
38 0.001333
39 0.001334
40 0.001326
41 0.001319
42 0.001318
43 0.001316
44 0.001311
45 0.001303
46 0.001288
47 0.001276
48 0.001265
49 0.001255
50 0.001246
51 0.001241
52 0.001237
53 0.001233
54 0.001230
55 0.001229
56 0.001228
57 0.001222
58 0.001208
59 0.001193
60 0.001177
61 0.001164
62 0.001152
63 0.001145
64 0.001133
65 0.001126
66 0.001120
67 0.001117
68 0.001120
69 0.001120
70 0.001120
71 0.001121
72 0.001116
73 0.001116
74 0.001120
75 0.001122
76 0.001124
77 0.001127
78 0.001126
79 0.001120
80 0.001108
81 0.001094
82 0.001081
83 0.001066
84 0.001055
85 0.001048
86 0.001043
87 0.001033
88 0.001023
89 0.001016
90 0.001013
91 0.001007
92 0.000999
93 0.000993
94 0.000983
95 0.000970
96 0.000961
97 0.000956
98 0.000949
99 0.000943
100 0.000941
101 0.000941
102 0.000941
103 0.000938
104 0.000938
105 0.000931
106 0.000924
107 0.000917
108 0.000914
109 0.000908
110 0.000899
111 0.000898
112 0.000898
113 0.000898
114 0.000901
115 0.000909
116 0.000912
117 0.000911
118 0.000908
119 0.000904
120 0.000902
121 0.000897
122 0.000892
123 0.000891
124 0.000892
125 0.000889
126 0.000883
127 0.000876
128 0.000874
129 0.000878
130 0.000881
131 0.000881
132 0.000881
133 0.000873
134 0.000864
135 0.000859
136 0.000857
137 0.000853
138 0.000849
139 0.000841
140 0.000829
141 0.000823
142 0.000821
143 0.000824
144 0.000827
145 0.000832
146 0.000835
147 0.000833
148 0.000829
149 0.000826
150 0.000823
151 0.000825
152 0.000830
153 0.000835
154 0.000838
155 0.000835
156 0.000830
157 0.000819
158 0.000808
159 0.000802
160 0.000798
161 0.000794
162 0.000791
163 0.000788
164 0.000787
165 0.000785
166 0.000782
167 0.000779
168 0.000779
169 0.000782
170 0.000783
171 0.000783
172 0.000784
173 0.000780
174 0.000777
175 0.000775
176 0.000780
177 0.000779
178 0.000783
179 0.000779
180 0.000777
181 0.000776
182 0.000775
183 0.000776
184 0.000772
185 0.000765
186 0.000762
187 0.000763
188 0.000765
189 0.000767
190 0.000772
191 0.000775
192 0.000782
193 0.000787
194 0.000792
195 0.000798
196 0.000796
197 0.000794
198 0.000797
199 0.000796
200 0.000796
201 0.000795
202 0.000793
203 0.000793
204 0.000792
205 0.000792
206 0.000790
207 0.000790
208 0.000791
209 0.000791
210 0.000793
211 0.000788
212 0.000783
213 0.000777
214 0.000769
215 0.000763
216 0.000758
217 0.000755
218 0.000751
219 0.000750
220 0.000749
221 0.000752
222 0.000755
223 0.000757
224 0.000759
225 0.000759
226 0.000760
227 0.000761
228 0.000764
229 0.000765
230 0.000768
231 0.000768
232 0.000772
233 0.000777
234 0.000780
235 0.000779
236 0.000770
237 0.000764
238 0.000757
239 0.000750
240 0.000745
241 0.000736
242 0.000723
243 0.000712
244 0.000702
245 0.000701
246 0.000697
247 0.000692
248 0.000684
249 0.000684
250 0.000685
251 0.000687
252 0.000691
253 0.000692
254 0.000692
255 0.000694
256 0.000697
257 0.000699
258 0.000705
259 0.000702
260 0.000701
261 0.000699
262 0.000697
263 0.000694
264 0.000692
265 0.000686
266 0.000682
267 0.000677
268 0.000677
269 0.000676
270 0.000675
271 0.000674
272 0.000672
273 0.000671
274 0.000673
275 0.000672
276 0.000669
277 0.000664
278 0.000659
279 0.000654
280 0.000649
281 0.000644
282 0.000639
283 0.000634
284 0.000632
285 0.000626
286 0.000619
287 0.000609
288 0.000603
289 0.000597
290 0.000591
291 0.000584
292 0.000579
293 0.000574
294 0.000571
295 0.000567
296 0.000567
297 0.000569
298 0.000570
299 0.000572
300 0.000570
301 0.000572
302 0.000570
303 0.000567
304 0.000562
305 0.000553
306 0.000550
307 0.000551
308 0.000555
309 0.000558
310 0.000563
311 0.000564
312 0.000568
313 0.000568
314 0.000570
315 0.000568
316 0.000568
317 0.000566
318 0.000561
319 0.000556
320 0.000552
321 0.000545
322 0.000534
323 0.000526
324 0.000520
325 0.000514
326 0.000513
327 0.000510
328 0.000507
329 0.000502
330 0.000503
331 0.000499
332 0.000491
333 0.000483
334 0.000475
335 0.000469
336 0.000466
337 0.000461
338 0.000458
339 0.000455
340 0.000454
341 0.000456
342 0.000463
343 0.000471
344 0.000477
345 0.000479
346 0.000481
347 0.000481
348 0.000479
349 0.000475
350 0.000472
351 0.000465
352 0.000458
353 0.000450
354 0.000450
355 0.000449
356 0.000448
357 0.000443
358 0.000440
359 0.000433
360 0.000426
361 0.000419
362 0.000409
363 0.000398
364 0.000392
365 0.000388
366 0.000388
367 0.000385
368 0.000381
369 0.000378
370 0.000376
371 0.000373
372 0.000371
373 0.000370
374 0.000369
375 0.000369
376 0.000366
377 0.000362
378 0.000359
379 0.000358
380 0.000356
381 0.000355
382 0.000354
383 0.000349
384 0.000344
385 0.000350
386 0.000360
387 0.000367
388 0.000371
389 0.000373
390 0.000370
391 0.000364
392 0.000353
393 0.000341
394 0.000332
395 0.000323
396 0.000311
397 0.000306
398 0.000301
399 0.000302
400 0.000305
401 0.000309
402 0.000307
403 0.000306
404 0.000305
405 0.000306
406 0.000301
407 0.000293
408 0.000282
409 0.000273
410 0.000264
411 0.000256
412 0.000252
413 0.000251
414 0.000250
415 0.000251
416 0.000250
417 0.000249
418 0.000248
419 0.000246
420 0.000246
421 0.000249
422 0.000253
423 0.000259
424 0.000266
425 0.000269
426 0.000272
427 0.000276
428 0.000281
429 0.000286
430 0.000289
431 0.000291
432 0.000290
433 0.000292
434 0.000295
435 0.000296
436 0.000297
437 0.000295
438 0.000294
439 0.000290
440 0.000290
441 0.000284
442 0.000279
443 0.000279
444 0.000282
445 0.000284
446 0.000285
447 0.000288
448 0.000290
449 0.000284
450 0.000278
451 0.000272
452 0.000266
453 0.000261
454 0.000255
455 0.000251
456 0.000251
457 0.000255
458 0.000259
459 0.000258
460 0.000263
461 0.000270
462 0.000282
463 0.000289
464 0.000296
465 0.000303
466 0.000308
467 0.000310
468 0.000314
469 0.000315
470 0.000313
471 0.000313
472 0.000314
473 0.000316
474 0.000316
475 0.000319
476 0.000316
477 0.000314
478 0.000313
479 0.000315
480 0.000319
481 0.000318
482 0.000323
483 0.000323
484 0.000322
485 0.000317
486 0.000316
487 0.000312
488 0.000310
489 0.000309
490 0.000313
491 0.000318
492 0.000324
493 0.000325
494 0.000325
495 0.000322
496 0.000316
497 0.000311
498 0.000307
499 0.000306
500 0.000306
501 0.000306
502 0.000308
503 0.000310
504 0.000311
505 0.000312
506 0.000314
507 0.000312
508 0.000308
509 0.000312
510 0.000313
511 0.000311
512 0.000309
513 0.000305
514 0.000303
515 0.000300
516 0.000298
517 0.000300
518 0.000304
519 0.000308
520 0.000310
521 0.000309
522 0.000305
523 0.000301
524 0.000295
525 0.000291
526 0.000289
527 0.000285
528 0.000282
529 0.000276
530 0.000274
531 0.000274
532 0.000272
533 0.000269
534 0.000266
535 0.000266
536 0.000265
537 0.000265
538 0.000270
539 0.000278
540 0.000283
541 0.000288
542 0.000292
543 0.000296
544 0.000301
545 0.000304
546 0.000303
547 0.000301
548 0.000299
549 0.000297
550 0.000298
551 0.000300
552 0.000300
553 0.000298
554 0.000295
555 0.000295
556 0.000294
557 0.000292
558 0.000292
559 0.000298
560 0.000298
561 0.000294
562 0.000287
563 0.000278
564 0.000271
565 0.000264
566 0.000259
567 0.000254
568 0.000252
569 0.000253
570 0.000253
571 0.000253
572 0.000252
573 0.000255
574 0.000255
575 0.000259
576 0.000264
577 0.000275
578 0.000282
579 0.000286
580 0.000290
581 0.000291
582 0.000296
583 0.000301
584 0.000307
585 0.000306
586 0.000303
587 0.000298
588 0.000296
589 0.000292
590 0.000285
591 0.000279
592 0.000273
593 0.000269
594 0.000269
595 0.000270
596 0.000270
597 0.000268
598 0.000266
599 0.000265
600 0.000263
601 0.000261
602 0.000258
603 0.000255
604 0.000250
605 0.000244
606 0.000237
607 0.000233
608 0.000229
609 0.000229
610 0.000230
611 0.000227
612 0.000224
613 0.000221
614 0.000219
615 0.000218
616 0.000218
617 0.000217
618 0.000220
619 0.000222
620 0.000223
621 0.000224
622 0.000223
623 0.000220
624 0.000218
625 0.000216
626 0.000215
627 0.000217
628 0.000216
629 0.000217
630 0.000214
631 0.000212
632 0.000212
633 0.000211
634 0.000214
635 0.000216
636 0.000220
637 0.000222
638 0.000227
639 0.000229
640 0.000231
641 0.000230
642 0.000227
643 0.000222
644 0.000220
645 0.000218
646 0.000214
647 0.000211
648 0.000209
649 0.000203
650 0.000197
651 0.000187
652 0.000179
653 0.000172
654 0.000165
655 0.000162
656 0.000164
657 0.000166
658 0.000166
659 0.000167
660 0.000168
661 0.000169
662 0.000171
663 0.000175
664 0.000175
665 0.000170
666 0.000171
667 0.000168
668 0.000163
669 0.000160
670 0.000157
671 0.000153
672 0.000148
673 0.000150
674 0.000154
675 0.000158
676 0.000160
677 0.000158
678 0.000156
679 0.000151
680 0.000145
681 0.000142
682 0.000141
683 0.000142
684 0.000144
685 0.000145
686 0.000145
687 0.000146
688 0.000146
689 0.000148
690 0.000152
691 0.000153
692 0.000156
693 0.000158
694 0.000155
695 0.000154
696 0.000155
697 0.000159
698 0.000163
699 0.000167
700 0.000170
701 0.000174
702 0.000180
703 0.000183
704 0.000186
705 0.000188
706 0.000189
707 0.000189
708 0.000188
709 0.000186
710 0.000183
711 0.000183
712 0.000185
713 0.000188
714 0.000189
715 0.000190
716 0.000193
717 0.000196
718 0.000199
719 0.000197
720 0.000195
721 0.000192
722 0.000188
723 0.000184
724 0.000179
725 0.000171
726 0.000165
727 0.000160
728 0.000154
729 0.000151
730 0.000147
731 0.000146
732 0.000142
733 0.000139
734 0.000136
735 0.000133
736 0.000128
737 0.000127
738 0.000128
739 0.000130
740 0.000130
741 0.000128
742 0.000124
743 0.000121
744 0.000118
745 0.000119
746 0.000122
747 0.000126
748 0.000128
749 0.000128
750 0.000127
751 0.000126
752 0.000125
753 0.000126
754 0.000128
755 0.000128
756 0.000127
757 0.000125
758 0.000120
759 0.000117
760 0.000119
761 0.000123
762 0.000121
763 0.000120
764 0.000121
765 0.000123
766 0.000124
767 0.000127
768 0.000129
769 0.000127
770 0.000124
771 0.000120
772 0.000120
773 0.000120
774 0.000121
775 0.000123
776 0.000123
777 0.000123
778 0.000127
779 0.000129
780 0.000127
781 0.000126
782 0.000124
783 0.000118
784 0.000113
785 0.000107
786 0.000101
787 0.000096
788 0.000094
789 0.000092
790 0.000092
791 0.000094
792 0.000096
793 0.000097
794 0.000098
795 0.000096
796 0.000094
797 0.000087
798 0.000082
799 0.000077
800 0.000068
801 0.000059
802 0.000056
803 0.000054
804 0.000053
805 0.000051
806 0.000050
807 0.000046
808 0.000044
809 0.000043
