# i correlation
1 0.001624
2 0.001573
3 0.001524
4 0.001483
5 0.001449
6 0.001417
7 0.001391
8 0.001370
9 0.001354
10 0.001335
11 0.001320
12 0.001304
13 0.001291
14 0.001277
15 0.001262
16 0.001251
17 0.001243
18 0.001239
19 0.001234
20 0.001226
21 0.001213
22 0.001202
23 0.001194
24 0.001185
25 0.001179
26 0.001171
27 0.001167
28 0.001164
29 0.001161
30 0.001161
31 0.001159
32 0.001153
33 0.001145
34 0.001137
35 0.001127
36 0.001118
37 0.001110
38 0.001104
39 0.001102
40 0.001099
41 0.001098
42 0.001100
43 0.001099
44 0.001093
45 0.001086
46 0.001074
47 0.001065
48 0.001054
49 0.001043
50 0.001032
51 0.001024
52 0.001017
53 0.001015
54 0.001010
55 0.001007
56 0.001005
57 0.001003
58 0.000999
59 0.000994
60 0.000992
61 0.000992
62 0.000987
63 0.000979
64 0.000970
65 0.000963
66 0.000960
67 0.000957
68 0.000949
69 0.000942
70 0.000938
71 0.000936
72 0.000928
73 0.000923
74 0.000916
75 0.000912
76 0.000906
77 0.000896
78 0.000887
79 0.000876
80 0.000867
81 0.000854
82 0.000838
83 0.000828
84 0.000821
85 0.000819
86 0.000816
87 0.000816
88 0.000812
89 0.000817
90 0.000818
91 0.000818
92 0.000820
93 0.000819
94 0.000814
95 0.000810
96 0.000808
97 0.000802
98 0.000796
99 0.000787
100 0.000785
101 0.000786
102 0.000786
103 0.000783
104 0.000777
105 0.000777
106 0.000774
107 0.000768
108 0.000766
109 0.000764
110 0.000765
111 0.000765
112 0.000764
113 0.000761
114 0.000755
115 0.000755
116 0.000758
117 0.000762
118 0.000761
119 0.000762
120 0.000767
121 0.000766
122 0.000764
123 0.000760
124 0.000755
125 0.000750
126 0.000744
127 0.000735
128 0.000732
129 0.000736
130 0.000736
131 0.000739
132 0.000738
133 0.000735
134 0.000732
135 0.000727
136 0.000729
137 0.000729
138 0.000729
139 0.000728
140 0.000723
141 0.000718
142 0.000716
143 0.000711
144 0.000707
145 0.000709
146 0.000706
147 0.000709
148 0.000710
149 0.000710
150 0.000709
151 0.000710
152 0.000706
153 0.000701
154 0.000699
155 0.000699
156 0.000703
157 0.000704
158 0.000709
159 0.000714
160 0.000723
161 0.000728
162 0.000730
163 0.000729
164 0.000727
165 0.000723
166 0.000720
167 0.000717
168 0.000717
169 0.000713
170 0.000706
171 0.000694
172 0.000686
173 0.000676
174 0.000663
175 0.000650
176 0.000643
177 0.000632
178 0.000624
179 0.000621
180 0.000611
181 0.000601
182 0.000593
183 0.000584
184 0.000582
185 0.000579
186 0.000576
187 0.000572
188 0.000567
189 0.000564
190 0.000570
191 0.000574
192 0.000582
193 0.000590
194 0.000595
195 0.000599
196 0.000600
197 0.000602
198 0.000601
199 0.000604
200 0.000601
201 0.000595
202 0.000592
203 0.000588
204 0.000585
205 0.000581
206 0.000581
207 0.000581
208 0.000583
209 0.000587
210 0.000590
211 0.000595
212 0.000597
213 0.000598
214 0.000595
215 0.000596
216 0.000594
217 0.000591
218 0.000590
219 0.000584
220 0.000578
221 0.000572
222 0.000567
223 0.000563
224 0.000559
225 0.000557
226 0.000549
227 0.000541
228 0.000530
229 0.000518
230 0.000504
231 0.000495
232 0.000488
233 0.000482
234 0.000479
235 0.000476
236 0.000475
237 0.000475
238 0.000474
239 0.000478
240 0.000482
241 0.000482
242 0.000476
243 0.000470
244 0.000465
245 0.000462
246 0.000457
247 0.000455
248 0.000454
249 0.000453
250 0.000453
251 0.000450
252 0.000445
253 0.000443
254 0.000444
255 0.000447
256 0.000448
257 0.000451
258 0.000451
259 0.000450
260 0.000449
261 0.000446
262 0.000442
263 0.000439
264 0.000437
265 0.000435
266 0.000434
267 0.000438
268 0.000449
269 0.000462
270 0.000472
271 0.000477
272 0.000478
273 0.000478
274 0.000475
275 0.000470
276 0.000465
277 0.000459
278 0.000455
279 0.000452
280 0.000456
281 0.000463
282 0.000469
283 0.000470
284 0.000473
285 0.000472
286 0.000474
287 0.000478
288 0.000482
289 0.000487
290 0.000486
291 0.000488
292 0.000489
293 0.000487
294 0.000485
295 0.000481
296 0.000477
297 0.000466
298 0.000457
299 0.000446
300 0.000439
301 0.000432
302 0.000429
303 0.000426
304 0.000423
305 0.000420
306 0.000416
307 0.000413
308 0.000409
309 0.000408
310 0.000408
311 0.000410
312 0.000411
313 0.000414
314 0.000416
315 0.000420
316 0.000421
317 0.000420
318 0.000420
319 0.000418
320 0.000418
321 0.000418
322 0.000418
323 0.000419
324 0.000421
325 0.000422
326 0.000424
327 0.000421
328 0.000414
329 0.000408
330 0.000402
331 0.000397
332 0.000396
333 0.000393
334 0.000391
335 0.000394
336 0.000396
337 0.000398
338 0.000395
339 0.000387
340 0.000381
341 0.000377
342 0.000375
343 0.000371
344 0.000368
345 0.000366
346 0.000364
347 0.000362
348 0.000358
349 0.000354
350 0.000349
351 0.000345
352 0.000344
353 0.000344
354 0.000343
355 0.000343
356 0.000340
357 0.000340
358 0.000336
359 0.000330
360 0.000326
361 0.000322
362 0.000322
363 0.000320
364 0.000320
365 0.000326
366 0.000331
367 0.000337
368 0.000338
369 0.000338
370 0.000335
371 0.000332
372 0.000328
373 0.000321
374 0.000314
375 0.000307
376 0.000305
377 0.000304
378 0.000305
379 0.000309
380 0.000314
381 0.000318
382 0.000317
383 0.000316
384 0.000315
385 0.000320
386 0.000324
387 0.000326
388 0.000326
389 0.000327
390 0.000326
391 0.000322
392 0.000316
393 0.000308
394 0.000303
395 0.000295
396 0.000286
397 0.000282
398 0.000279
399 0.000277
400 0.000280
401 0.000283
402 0.000293
403 0.000299
404 0.000306
405 0.000311
406 0.000315
407 0.000320
408 0.000324
409 0.000328
410 0.000336
411 0.000345
412 0.000354
413 0.000360
414 0.000356
415 0.000353
416 0.000351
417 0.000349
418 0.000350
419 0.000349
420 0.000348
421 0.000346
422 0.000343
423 0.000340
424 0.000337
425 0.000333
426 0.000330
427 0.000326
428 0.000324
429 0.000325
430 0.000321
431 0.000318
432 0.000313
433 0.000308
434 0.000302
435 0.000297
436 0.000296
437 0.000296
438 0.000298
439 0.000298
440 0.000302
441 0.000305
442 0.000308
443 0.000312
444 0.000313
445 0.000316
446 0.000318
447 0.000322
448 0.000326
449 0.000330
450 0.000331
451 0.000329
452 0.000327
453 0.000326
454 0.000326
455 0.000327
456 0.000330
457 0.000336
458 0.000343
459 0.000347
460 0.000352
461 0.000354
462 0.000352
463 0.000349
464 0.000345
465 0.000343
466 0.000338
467 0.000332
468 0.000331
469 0.000327
470 0.000324
471 0.000319
472 0.000319
473 0.000322
474 0.000324
475 0.000324
476 0.000321
477 0.000320
478 0.000320
479 0.000321
480 0.000323
481 0.000326
482 0.000331
483 0.000336
484 0.000338
485 0.000335
486 0.000331
487 0.000328
488 0.000327
489 0.000325
490 0.000321
491 0.000321
492 0.000322
493 0.000324
494 0.000322
495 0.000317
496 0.000316
497 0.000315
498 0.000313
499 0.000308
500 0.000306
501 0.000300
502 0.000303
503 0.000305
504 0.000308
505 0.000311
506 0.000310
507 0.000310
508 0.000307
509 0.000302
510 0.000296
511 0.000292
512 0.000286
513 0.000281
514 0.000278
515 0.000274
516 0.000270
517 0.000264
518 0.000260
519 0.000257
520 0.000254
521 0.000254
522 0.000255
523 0.000257
524 0.000256
525 0.000255
526 0.000253
527 0.000253
528 0.000254
529 0.000250
530 0.000246
531 0.000245
532 0.000245
533 0.000246
534 0.000243
535 0.000243
536 0.000243
537 0.000239
538 0.000238
539 0.000237
540 0.000238
541 0.000242
542 0.000243
543 0.000239
544 0.000236
545 0.000235
546 0.000232
547 0.000228
548 0.000226
549 0.000230
550 0.000233
551 0.000237
552 0.000238
553 0.000240
554 0.000240
555 0.000242
556 0.000239
557 0.000239
558 0.000242
559 0.000244
560 0.000247
561 0.000252
562 0.000257
563 0.000263
564 0.000270
565 0.000277
566 0.000281
567 0.000281
568 0.000282
569 0.000280
570 0.000281
571 0.000283
572 0.000281
573 0.000279
574 0.000281
575 0.000281
576 0.000281
577 0.000281
578 0.000284
579 0.000287
580 0.000291
581 0.000294
582 0.000298
583 0.000301
584 0.000303
585 0.000303
586 0.000298
587 0.000292
588 0.000287
589 0.000287
590 0.000284
591 0.000281
592 0.000279
593 0.000280
594 0.000282
595 0.000279
596 0.000276
597 0.000273
598 0.000272
599 0.000272
600 0.000269
601 0.000267
602 0.000268
603 0.000267
604 0.000266
605 0.000264
606 0.000265
607 0.000265
608 0.000269
609 0.000271
610 0.000273
611 0.000273
612 0.000275
613 0.000275
614 0.000275
615 0.000274
616 0.000276
617 0.000280
618 0.000284
619 0.000289
620 0.000294
621 0.000300
622 0.000309
623 0.000315
624 0.000320
625 0.000324
626 0.000326
627 0.000327
628 0.000330
629 0.000332
630 0.000335
631 0.000336
632 0.000333
633 0.000333
634 0.000332
635 0.000331
636 0.000331
637 0.000328
638 0.000327
639 0.000324
640 0.000320
641 0.000320
642 0.000317
643 0.000312
644 0.000307
645 0.000301
646 0.000292
647 0.000286
648 0.000277
649 0.000270
650 0.000266
651 0.000263
652 0.000262
653 0.000262
654 0.000259
655 0.000256
656 0.000249
657 0.000243
658 0.000239
659 0.000235
660 0.000238
661 0.000241
662 0.000242
663 0.000241
664 0.000239
665 0.000235
666 0.000230
667 0.000225
668 0.000221
669 0.000217
670 0.000213
671 0.000209
672 0.000209
673 0.000208
674 0.000205
675 0.000200
676 0.000194
677 0.000186
678 0.000182
679 0.000175
680 0.000169
681 0.000166
682 0.000162
683 0.000161
684 0.000160
685 0.000155
686 0.000151
687 0.000148
688 0.000143
689 0.000140
690 0.000138
691 0.000138
692 0.000138
693 0.000138
694 0.000141
695 0.000144
696 0.000148
697 0.000150
698 0.000153
699 0.000156
700 0.000162
701 0.000166
702 0.000169
703 0.000170
704 0.000171
705 0.000171
706 0.000169
707 0.000168
708 0.000166
709 0.000163
710 0.000159
711 0.000152
712 0.000144
713 0.000140
714 0.000140
715 0.000138
716 0.000132
717 0.000127
718 0.000125
719 0.000122
720 0.000122
721 0.000122
722 0.000122
723 0.000123
724 0.000123
725 0.000124
726 0.000122
727 0.000123
728 0.000123
729 0.000125
730 0.000125
731 0.000128
732 0.000130
733 0.000132
734 0.000135
735 0.000135
736 0.000134
737 0.000133
738 0.000133
739 0.000135
740 0.000135
741 0.000136
742 0.000139
743 0.000143
744 0.000146
745 0.000148
746 0.000146
747 0.000144
748 0.000141
749 0.000137
750 0.000134
751 0.000130
752 0.000127
753 0.000125
754 0.000123
755 0.000123
756 0.000121
757 0.000118
758 0.000116
759 0.000113
760 0.000110
761 0.000109
762 0.000111
763 0.000112
764 0.000115
765 0.000118
766 0.000119
767 0.000123
768 0.000125
769 0.000123
770 0.000123
771 0.000120
772 0.000119
773 0.000119
774 0.000119
775 0.000120
776 0.000121
777 0.000122
778 0.000123
779 0.000123
780 0.000124
781 0.000125
782 0.000125
783 0.000127
784 0.000129
785 0.000132
786 0.000135
787 0.000135
788 0.000133
789 0.000133
790 0.000132
791 0.000132
792 0.000134
793 0.000135
794 0.000134
795 0.000133
796 0.000134
797 0.000131
798 0.000130
799 0.000127
800 0.000123
801 0.000119
802 0.000116
803 0.000113
804 0.000109
805 0.000105
806 0.000101
807 0.000097
808 0.000092
809 0.000089
