# i correlation
1 0.001746
2 0.001694
3 0.001647
4 0.001608
5 0.001572
6 0.001540
7 0.001517
8 0.001503
9 0.001490
10 0.001480
11 0.001466
12 0.001453
13 0.001441
14 0.001431
15 0.001421
16 0.001403
17 0.001386
18 0.001369
19 0.001352
20 0.001340
21 0.001326
22 0.001317
23 0.001308
24 0.001299
25 0.001290
26 0.001277
27 0.001264
28 0.001253
29 0.001245
30 0.001239
31 0.001231
32 0.001221
33 0.001211
34 0.001203
35 0.001197
36 0.001191
37 0.001188
38 0.001184
39 0.001182
40 0.001171
41 0.001157
42 0.001147
43 0.001133
44 0.001118
45 0.001105
46 0.001095
47 0.001088
48 0.001081
49 0.001076
50 0.001071
51 0.001065
52 0.001059
53 0.001057
54 0.001050
55 0.001039
56 0.001028
57 0.001019
58 0.001006
59 0.000989
60 0.000971
61 0.000961
62 0.000959
63 0.000959
64 0.000961
65 0.000958
66 0.000956
67 0.000957
68 0.000956
69 0.000953
70 0.000953
71 0.000954
72 0.000954
73 0.000954
74 0.000956
75 0.000954
76 0.000946
77 0.000936
78 0.000929
79 0.000922
80 0.000914
81 0.000909
82 0.000908
83 0.000905
84 0.000905
85 0.000902
86 0.000900
87 0.000900
88 0.000902
89 0.000900
90 0.000891
91 0.000883
92 0.000881
93 0.000882
94 0.000881
95 0.000878
96 0.000879
97 0.000879
98 0.000880
99 0.000876
100 0.000870
101 0.000868
102 0.000865
103 0.000858
104 0.000855
105 0.000855
106 0.000858
107 0.000859
108 0.000862
109 0.000862
110 0.000866
111 0.000866
112 0.000856
113 0.000845
114 0.000836
115 0.000830
116 0.000822
117 0.000820
118 0.000818
119 0.000821
120 0.000818
121 0.000819
122 0.000823
123 0.000822
124 0.000817
125 0.000809
126 0.000799
127 0.000796
128 0.000792
129 0.000791
130 0.000791
131 0.000794
132 0.000794
133 0.000796
134 0.000791
135 0.000787
136 0.000783
137 0.000780
138 0.000778
139 0.000781
140 0.000782
141 0.000782
142 0.000782
143 0.000784
144 0.000789
145 0.000793
146 0.000799
147 0.000800
148 0.000801
149 0.000803
150 0.000808
151 0.000813
152 0.000813
153 0.000807
154 0.000803
155 0.000799
156 0.000795
157 0.000786
158 0.000777
159 0.000775
160 0.000776
161 0.000776
162 0.000772
163 0.000763
164 0.000759
165 0.000754
166 0.000749
167 0.000741
168 0.000735
169 0.000728
170 0.000727
171 0.000722
172 0.000717
173 0.000709
174 0.000704
175 0.000699
176 0.000703
177 0.000701
178 0.000701
179 0.000697
180 0.000700
181 0.000706
182 0.000704
183 0.000699
184 0.000698
185 0.000697
186 0.000698
187 0.000694
188 0.000692
189 0.000693
190 0.000692
191 0.000691
192 0.000691
193 0.000692
194 0.000694
195 0.000699
196 0.000700
197 0.000705
198 0.000711
199 0.000716
200 0.000713
201 0.000710
202 0.000701
203 0.000697
204 0.000692
205 0.000688
206 0.000687
207 0.000686
208 0.000687
209 0.000686
210 0.000687
211 0.000687
212 0.000692
213 0.000696
214 0.000699
215 0.000700
216 0.000702
217 0.000707
218 0.000719
219 0.000727
220 0.000736
221 0.000739
222 0.000737
223 0.000738
224 0.000736
225 0.000732
226 0.000731
227 0.000733
228 0.000743
229 0.000754
230 0.000758
231 0.000756
232 0.000756
233 0.000758
234 0.000759
235 0.000761
236 0.000761
237 0.000761
238 0.000759
239 0.000758
240 0.000755
241 0.000752
242 0.000748
243 0.000748
244 0.000744
245 0.000743
246 0.000737
247 0.000729
248 0.000724
249 0.000719
250 0.000711
251 0.000701
252 0.000693
253 0.000688
254 0.000685
255 0.000681
256 0.000676
257 0.000669
258 0.000663
259 0.000658
260 0.000654
261 0.000648
262 0.000647
263 0.000648
264 0.000646
265 0.000644
266 0.000643
267 0.000639
268 0.000630
269 0.000627
270 0.000625
271 0.000621
272 0.000613
273 0.000606
274 0.000600
275 0.000592
276 0.000586
277 0.000583
278 0.000580
279 0.000573
280 0.000561
281 0.000551
282 0.000544
283 0.000538
284 0.000532
285 0.000528
286 0.000526
287 0.000527
288 0.000523
289 0.000516
290 0.000507
291 0.000500
292 0.000498
293 0.000494
294 0.000488
295 0.000483
296 0.000479
297 0.000471
298 0.000459
299 0.000448
300 0.000444
301 0.000441
302 0.000442
303 0.000448
304 0.000449
305 0.000456
306 0.000463
307 0.000473
308 0.000482
309 0.000485
310 0.000485
311 0.000486
312 0.000482
313 0.000472
314 0.000460
315 0.000448
316 0.000443
317 0.000443
318 0.000444
319 0.000445
320 0.000448
321 0.000451
322 0.000453
323 0.000454
324 0.000451
325 0.000445
326 0.000442
327 0.000440
328 0.000444
329 0.000451
330 0.000457
331 0.000462
332 0.000471
333 0.000477
334 0.000484
335 0.000486
336 0.000488
337 0.000490
338 0.000492
339 0.000493
340 0.000496
341 0.000499
342 0.000501
343 0.000501
344 0.000499
345 0.000498
346 0.000495
347 0.000499
348 0.000499
349 0.000499
350 0.000500
351 0.000503
352 0.000501
353 0.000496
354 0.000489
355 0.000481
356 0.000473
357 0.000467
358 0.000465
359 0.000470
360 0.000475
361 0.000475
362 0.000473
363 0.000470
364 0.000468
365 0.000472
366 0.000470
367 0.000468
368 0.000467
369 0.000467
370 0.000468
371 0.000468
372 0.000466
373 0.000466
374 0.000471
375 0.000475
376 0.000477
377 0.000478
378 0.000479
379 0.000482
380 0.000489
381 0.000496
382 0.000498
383 0.000497
384 0.000496
385 0.000495
386 0.000494
387 0.000491
388 0.000496
389 0.000499
390 0.000498
391 0.000494
392 0.000486
393 0.000478
394 0.000473
395 0.000464
396 0.000458
397 0.000450
398 0.000445
399 0.000440
400 0.000431
401 0.000419
402 0.000408
403 0.000402
404 0.000401
405 0.000401
406 0.000401
407 0.000398
408 0.000397
409 0.000394
410 0.000392
411 0.000392
412 0.000391
413 0.000392
414 0.000390
415 0.000389
416 0.000387
417 0.000387
418 0.000392
419 0.000398
420 0.000400
421 0.000403
422 0.000406
423 0.000409
424 0.000411
425 0.000410
426 0.000413
427 0.000416
428 0.000421
429 0.000426
430 0.000431
431 0.000434
432 0.000433
433 0.000433
434 0.000435
435 0.000437
436 0.000440
437 0.000437
438 0.000439
439 0.000441
440 0.000440
441 0.000441
442 0.000441
443 0.000441
444 0.000440
445 0.000435
446 0.000433
447 0.000431
448 0.000430
449 0.000429
450 0.000424
451 0.000424
452 0.000421
453 0.000420
454 0.000415
455 0.000410
456 0.000406
457 0.000406
458 0.000406
459 0.000407
460 0.000405
461 0.000407
462 0.000411
463 0.000417
464 0.000417
465 0.000413
466 0.000411
467 0.000407
468 0.000406
469 0.000403
470 0.000400
471 0.000396
472 0.000392
473 0.000390
474 0.000385
475 0.000379
476 0.000371
477 0.000365
478 0.000363
479 0.000358
480 0.000354
481 0.000349
482 0.000346
483 0.000345
484 0.000348
485 0.000349
486 0.000348
487 0.000348
488 0.000350
489 0.000352
490 0.000352
491 0.000352
492 0.000351
493 0.000353
494 0.000351
495 0.000345
496 0.000341
497 0.000335
498 0.000331
499 0.000331
500 0.000330
501 0.000328
502 0.000326
503 0.000324
504 0.000324
505 0.000325
506 0.000323
507 0.000319
508 0.000315
509 0.000307
510 0.000303
511 0.000299
512 0.000291
513 0.000284
514 0.000276
515 0.000269
516 0.000262
517 0.000254
518 0.000245
519 0.000241
520 0.000238
521 0.000238
522 0.000240
523 0.000243
524 0.000243
525 0.000245
526 0.000243
527 0.000240
528 0.000235
529 0.000232
530 0.000227
531 0.000227
532 0.000228
533 0.000227
534 0.000225
535 0.000225
536 0.000226
537 0.000227
538 0.000225
539 0.000221
540 0.000220
541 0.000221
542 0.000219
543 0.000218
544 0.000213
545 0.000211
546 0.000213
547 0.000214
548 0.000214
549 0.000216
550 0.000221
551 0.000224
552 0.000224
553 0.000220
554 0.000218
555 0.000214
556 0.000212
557 0.000210
558 0.000210
559 0.000212
560 0.000213
561 0.000213
562 0.000214
563 0.000213
564 0.000209
565 0.000206
566 0.000205
567 0.000204
568 0.000205
569 0.000208
570 0.000212
571 0.000216
572 0.000221
573 0.000228
574 0.000238
575 0.000248
576 0.000257
577 0.000262
578 0.000269
579 0.000275
580 0.000281
581 0.000284
582 0.000284
583 0.000284
584 0.000284
585 0.000285
586 0.000288
587 0.000285
588 0.000287
589 0.000292
590 0.000293
591 0.000286
592 0.000282
593 0.000279
594 0.000278
595 0.000279
596 0.000277
597 0.000278
598 0.000277
599 0.000280
600 0.000283
601 0.000283
602 0.000282
603 0.000284
604 0.000284
605 0.000280
606 0.000271
607 0.000266
608 0.000262
609 0.000256
610 0.000250
611 0.000248
612 0.000247
613 0.000245
614 0.000244
615 0.000242
616 0.000240
617 0.000240
618 0.000241
619 0.000239
620 0.000233
621 0.000227
622 0.000220
623 0.000213
624 0.000210
625 0.000208
626 0.000203
627 0.000200
628 0.000196
629 0.000193
630 0.000190
631 0.000185
632 0.000179
633 0.000175
634 0.000172
635 0.000169
636 0.000165
637 0.000162
638 0.000156
639 0.000155
640 0.000151
641 0.000147
642 0.000145
643 0.000146
644 0.000148
645 0.000146
646 0.000143
647 0.000141
648 0.000141
649 0.000138
650 0.000138
651 0.000138
652 0.000143
653 0.000147
654 0.000150
655 0.000152
656 0.000156
657 0.000157
658 0.000157
659 0.000154
660 0.000153
661 0.000151
662 0.000146
663 0.000141
664 0.000137
665 0.000134
666 0.000133
667 0.000133
668 0.000136
669 0.000138
670 0.000140
671 0.000144
672 0.000146
673 0.000146
674 0.000143
675 0.000141
676 0.000139
677 0.000137
678 0.000136
679 0.000134
680 0.000129
681 0.000129
682 0.000131
683 0.000135
684 0.000137
685 0.000138
686 0.000139
687 0.000139
688 0.000137
689 0.000134
690 0.000128
691 0.000126
692 0.000126
693 0.000123
694 0.000118
695 0.000111
696 0.000107
697 0.000102
698 0.000098
699 0.000095
700 0.000092
701 0.000091
702 0.000089
703 0.000086
704 0.000082
705 0.000080
706 0.000079
707 0.000080
708 0.000080
709 0.000079
710 0.000075
711 0.000072
712 0.000071
713 0.000067
714 0.000062
715 0.000057
716 0.000051
717 0.000050
718 0.000050
719 0.000049
720 0.000048
721 0.000047
722 0.000050
723 0.000052
724 0.000052
725 0.000050
726 0.000048
727 0.000045
728 0.000042
729 0.000039
730 0.000037
731 0.000036
732 0.000036
733 0.000033
734 0.000032
735 0.000031
736 0.000028
737 0.000024
738 0.000018
739 0.000013
740 0.000013
741 0.000012
742 0.000012
743 0.000007
744 0.000002
745 -0.000002
746 -0.000004
747 -0.000007
748 -0.000012
749 -0.000014
750 -0.000015
751 -0.000015
752 -0.000017
753 -0.000019
754 -0.000018
755 -0.000016
756 -0.000015
757 -0.000014
758 -0.000015
759 -0.000016
760 -0.000017
761 -0.000020
762 -0.000024
763 -0.000028
764 -0.000032
765 -0.000035
766 -0.000038
767 -0.000040
768 -0.000043
769 -0.000043
770 -0.000040
771 -0.000035
772 -0.000034
773 -0.000032
774 -0.000031
775 -0.000031
776 -0.000032
777 -0.000035
778 -0.000036
779 -0.000036
780 -0.000034
781 -0.000032
782 -0.000033
783 -0.000035
784 -0.000040
785 -0.000045
786 -0.000048
787 -0.000054
788 -0.000058
789 -0.000059
790 -0.000061
791 -0.000063
792 -0.000064
793 -0.000065
794 -0.000066
795 -0.000066
796 -0.000065
797 -0.000066
798 -0.000065
799 -0.000064
800 -0.000063
801 -0.000060
802 -0.000059
803 -0.000060
804 -0.000057
805 -0.000054
806 -0.000050
807 -0.000046
808 -0.000043
809 -0.000038
