# i correlation
1 0.001663
2 0.001616
3 0.001575
4 0.001528
5 0.001486
6 0.001452
7 0.001422
8 0.001396
9 0.001377
10 0.001367
11 0.001356
12 0.001348
13 0.001343
14 0.001340
15 0.001334
16 0.001323
17 0.001315
18 0.001309
19 0.001302
20 0.001298
21 0.001293
22 0.001276
23 0.001262
24 0.001249
25 0.001238
26 0.001229
27 0.001221
28 0.001217
29 0.001211
30 0.001204
31 0.001200
32 0.001197
33 0.001194
34 0.001194
35 0.001196
36 0.001195
37 0.001188
38 0.001179
39 0.001168
40 0.001159
41 0.001150
42 0.001139
43 0.001132
44 0.001126
45 0.001118
46 0.001119
47 0.001117
48 0.001113
49 0.001107
50 0.001098
51 0.001089
52 0.001082
53 0.001072
54 0.001063
55 0.001052
56 0.001042
57 0.001029
58 0.001015
59 0.001008
60 0.001001
61 0.000993
62 0.000995
63 0.000994
64 0.000987
65 0.000987
66 0.000988
67 0.000985
68 0.000979
69 0.000977
70 0.000972
71 0.000963
72 0.000957
73 0.000952
74 0.000941
75 0.000933
76 0.000932
77 0.000930
78 0.000926
79 0.000924
80 0.000924
81 0.000919
82 0.000913
83 0.000908
84 0.000901
85 0.000891
86 0.000875
87 0.000867
88 0.000861
89 0.000854
90 0.000846
91 0.000838
92 0.000835
93 0.000835
94 0.000838
95 0.000840
96 0.000841
97 0.000847
98 0.000847
99 0.000845
100 0.000847
101 0.000843
102 0.000840
103 0.000837
104 0.000828
105 0.000821
106 0.000815
107 0.000807
108 0.000801
109 0.000798
110 0.000791
111 0.000789
112 0.000788
113 0.000790
114 0.000790
115 0.000789
116 0.000793
117 0.000793
118 0.000791
119 0.000782
120 0.000776
121 0.000770
122 0.000767
123 0.000768
124 0.000767
125 0.000772
126 0.000772
127 0.000775
128 0.000772
129 0.000773
130 0.000778
131 0.000783
132 0.000788
133 0.000786
134 0.000781
135 0.000774
136 0.000767
137 0.000758
138 0.000746
139 0.000734
140 0.000723
141 0.000713
142 0.000711
143 0.000709
144 0.000712
145 0.000713
146 0.000716
147 0.000720
148 0.000721
149 0.000723
150 0.000725
151 0.000722
152 0.000723
153 0.000721
154 0.000715
155 0.000703
156 0.000693
157 0.000684
158 0.000678
159 0.000676
160 0.000671
161 0.000664
162 0.000664
163 0.000663
164 0.000664
165 0.000666
166 0.000668
167 0.000674
168 0.000677
169 0.000682
170 0.000684
171 0.000685
172 0.000685
173 0.000683
174 0.000679
175 0.000670
176 0.000661
177 0.000654
178 0.000651
179 0.000650
180 0.000645
181 0.000644
182 0.000642
183 0.000636
184 0.000635
185 0.000637
186 0.000632
187 0.000628
188 0.000628
189 0.000624
190 0.000614
191 0.000607
192 0.000602
193 0.000599
194 0.000598
195 0.000600
196 0.000600
197 0.000599
198 0.000603
199 0.000601
200 0.000601
201 0.000597
202 0.000596
203 0.000596
204 0.000588
205 0.000584
206 0.000581
207 0.000572
208 0.000569
209 0.000568
210 0.000566
211 0.000563
212 0.000560
213 0.000560
214 0.000565
215 0.000569
216 0.000577
217 0.000583
218 0.000586
219 0.000588
220 0.000592
221 0.000593
222 0.000593
223 0.000588
224 0.000589
225 0.000588
226 0.000583
227 0.000579
228 0.000567
229 0.000564
230 0.000564
231 0.000566
232 0.000571
233 0.000574
234 0.000581
235 0.000587
236 0.000591
237 0.000593
238 0.000594
239 0.000595
240 0.000593
241 0.000594
242 0.000597
243 0.000596
244 0.000601
245 0.000607
246 0.000611
247 0.000619
248 0.000624
249 0.000630
250 0.000635
251 0.000638
252 0.000639
253 0.000635
254 0.000632
255 0.000626
256 0.000621
257 0.000617
258 0.000612
259 0.000604
260 0.000598
261 0.000596
262 0.000596
263 0.000596
264 0.000595
265 0.000597
266 0.000595
267 0.000592
268 0.000594
269 0.000596
270 0.000600
271 0.000603
272 0.000602
273 0.000605
274 0.000608
275 0.000607
276 0.000614
277 0.000616
278 0.000615
279 0.000618
280 0.000616
281 0.000616
282 0.000624
283 0.000632
284 0.000641
285 0.000653
286 0.000659
287 0.000661
288 0.000664
289 0.000661
290 0.000655
291 0.000648
292 0.000640
293 0.000633
294 0.000631
295 0.000630
296 0.000628
297 0.000632
298 0.000640
299 0.000645
300 0.000652
301 0.000660
302 0.000662
303 0.000662
304 0.000658
305 0.000657
306 0.000656
307 0.000650
308 0.000641
309 0.000636
310 0.000630
311 0.000629
312 0.000625
313 0.000618
314 0.000615
315 0.000606
316 0.000598
317 0.000595
318 0.000593
319 0.000594
320 0.000596
321 0.000601
322 0.000604
323 0.000610
324 0.000612
325 0.000615
326 0.000612
327 0.000607
328 0.000596
329 0.000588
330 0.000587
331 0.000585
332 0.000584
333 0.000586
334 0.000588
335 0.000584
336 0.000582
337 0.000578
338 0.000572
339 0.000568
340 0.000563
341 0.000559
342 0.000560
343 0.000554
344 0.000552
345 0.000552
346 0.000549
347 0.000553
348 0.000555
349 0.000557
350 0.000561
351 0.000563
352 0.000564
353 0.000563
354 0.000561
355 0.000552
356 0.000542
357 0.000534
358 0.000530
359 0.000522
360 0.000517
361 0.000514
362 0.000510
363 0.000508
364 0.000509
365 0.000506
366 0.000503
367 0.000505
368 0.000503
369 0.000502
370 0.000503
371 0.000500
372 0.000496
373 0.000494
374 0.000494
375 0.000486
376 0.000484
377 0.000483
378 0.000477
379 0.000479
380 0.000480
381 0.000474
382 0.000472
383 0.000474
384 0.000472
385 0.000469
386 0.000467
387 0.000466
388 0.000466
389 0.000465
390 0.000468
391 0.000468
392 0.000460
393 0.000458
394 0.000455
395 0.000453
396 0.000450
397 0.000449
398 0.000447
399 0.000449
400 0.000447
401 0.000449
402 0.000450
403 0.000449
404 0.000452
405 0.000456
406 0.000458
407 0.000458
408 0.000456
409 0.000456
410 0.000456
411 0.000454
412 0.000448
413 0.000440
414 0.000438
415 0.000438
416 0.000435
417 0.000432
418 0.000435
419 0.000440
420 0.000444
421 0.000445
422 0.000445
423 0.000446
424 0.000441
425 0.000437
426 0.000433
427 0.000430
428 0.000428
429 0.000427
430 0.000432
431 0.000435
432 0.000437
433 0.000442
434 0.000443
435 0.000444
436 0.000447
437 0.000444
438 0.000439
439 0.000436
440 0.000428
441 0.000418
442 0.000413
443 0.000410
444 0.000407
445 0.000406
446 0.000406
447 0.000406
448 0.000407
449 0.000407
450 0.000409
451 0.000408
452 0.000407
453 0.000403
454 0.000399
455 0.000397
456 0.000400
457 0.000403
458 0.000405
459 0.000406
460 0.000407
461 0.000405
462 0.000398
463 0.000395
464 0.000393
465 0.000389
466 0.000388
467 0.000389
468 0.000390
469 0.000392
470 0.000396
471 0.000406
472 0.000412
473 0.000417
474 0.000424
475 0.000424
476 0.000424
477 0.000424
478 0.000421
479 0.000418
480 0.000412
481 0.000408
482 0.000402
483 0.000402
484 0.000402
485 0.000404
486 0.000405
487 0.000406
488 0.000405
489 0.000402
490 0.000403
491 0.000399
492 0.000402
493 0.000403
494 0.000403
495 0.000401
496 0.000402
497 0.000401
498 0.000400
499 0.000402
500 0.000401
501 0.000397
502 0.000393
503 0.000393
504 0.000394
505 0.000392
506 0.000394
507 0.000392
508 0.000389
509 0.000384
510 0.000371
511 0.000365
512 0.000360
513 0.000351
514 0.000343
515 0.000335
516 0.000326
517 0.000317
518 0.000316
519 0.000315
520 0.000316
521 0.000317
522 0.000318
523 0.000318
524 0.000316
525 0.000313
526 0.000308
527 0.000309
528 0.000306
529 0.000305
530 0.000301
531 0.000291
532 0.000286
533 0.000285
534 0.000282
535 0.000281
536 0.000283
537 0.000286
538 0.000286
539 0.000289
540 0.000293
541 0.000295
542 0.000301
543 0.000302
544 0.000301
545 0.000298
546 0.000293
547 0.000291
548 0.000291
549 0.000290
550 0.000288
551 0.000284
552 0.000283
553 0.000277
554 0.000269
555 0.000267
556 0.000266
557 0.000264
558 0.000265
559 0.000266
560 0.000265
561 0.000266
562 0.000264
563 0.000263
564 0.000260
565 0.000260
566 0.000261
567 0.000258
568 0.000257
569 0.000257
570 0.000253
571 0.000250
572 0.000247
573 0.000245
574 0.000242
575 0.000240
576 0.000237
577 0.000235
578 0.000230
579 0.000226
580 0.000220
581 0.000216
582 0.000214
583 0.000214
584 0.000211
585 0.000207
586 0.000208
587 0.000204
588 0.000207
589 0.000209
590 0.000207
591 0.000206
592 0.000202
593 0.000196
594 0.000195
595 0.000197
596 0.000197
597 0.000197
598 0.000197
599 0.000197
600 0.000199
601 0.000202
602 0.000204
603 0.000208
604 0.000210
605 0.000207
606 0.000204
607 0.000202
608 0.000200
609 0.000200
610 0.000201
611 0.000200
612 0.000197
613 0.000192
614 0.000187
615 0.000184
616 0.000178
617 0.000174
618 0.000171
619 0.000165
620 0.000162
621 0.000165
622 0.000167
623 0.000171
624 0.000175
625 0.000179
626 0.000179
627 0.000179
628 0.000177
629 0.000179
630 0.000181
631 0.000185
632 0.000190
633 0.000194
634 0.000194
635 0.000199
636 0.000207
637 0.000210
638 0.000215
639 0.000217
640 0.000215
641 0.000211
642 0.000209
643 0.000205
644 0.000202
645 0.000202
646 0.000197
647 0.000190
648 0.000183
649 0.000175
650 0.000170
651 0.000163
652 0.000157
653 0.000156
654 0.000153
655 0.000155
656 0.000157
657 0.000159
658 0.000159
659 0.000160
660 0.000160
661 0.000156
662 0.000152
663 0.000149
664 0.000146
665 0.000146
666 0.000147
667 0.000150
668 0.000152
669 0.000152
670 0.000153
671 0.000154
672 0.000156
673 0.000159
674 0.000165
675 0.000172
676 0.000176
677 0.000182
678 0.000187
679 0.000189
680 0.000189
681 0.000189
682 0.000186
683 0.000184
684 0.000182
685 0.000179
686 0.000173
687 0.000167
688 0.000163
689 0.000156
690 0.000150
691 0.000149
692 0.000149
693 0.000147
694 0.000147
695 0.000149
696 0.000149
697 0.000150
698 0.000147
699 0.000144
700 0.000142
701 0.000139
702 0.000136
703 0.000131
704 0.000126
705 0.000123
706 0.000119
707 0.000114
708 0.000111
709 0.000110
710 0.000108
711 0.000108
712 0.000109
713 0.000110
714 0.000114
715 0.000119
716 0.000124
717 0.000128
718 0.000129
719 0.000129
720 0.000129
721 0.000133
722 0.000134
723 0.000133
724 0.000133
725 0.000134
726 0.000133
727 0.000129
728 0.000126
729 0.000124
730 0.000123
731 0.000122
732 0.000120
733 0.000121
734 0.000120
735 0.000121
736 0.000121
737 0.000126
738 0.000129
739 0.000129
740 0.000129
741 0.000130
742 0.000128
743 0.000127
744 0.000129
745 0.000127
746 0.000124
747 0.000124
748 0.000123
749 0.000120
750 0.000119
751 0.000119
752 0.000119
753 0.000121
754 0.000124
755 0.000129
756 0.000132
757 0.000138
758 0.000143
759 0.000147
760 0.000151
761 0.000153
762 0.000155
763 0.000156
764 0.000156
765 0.000154
766 0.000149
767 0.000146
768 0.000143
769 0.000146
770 0.000147
771 0.000150
772 0.000153
773 0.000159
774 0.000162
775 0.000165
776 0.000167
777 0.000169
778 0.000170
779 0.000170
780 0.000171
781 0.000176
782 0.000180
783 0.000183
784 0.000188
785 0.000191
786 0.000191
787 0.000190
788 0.000191
789 0.000189
790 0.000187
791 0.000189
792 0.000195
793 0.000194
794 0.000196
795 0.000196
796 0.000192
797 0.000191
798 0.000190
799 0.000189
800 0.000188
801 0.000186
802 0.000185
803 0.000186
804 0.000186
805 0.000185
806 0.000186
807 0.000185
808 0.000185
809 0.000186
