# i correlation
1 0.001662
2 0.001614
3 0.001570
4 0.001533
5 0.001507
6 0.001484
7 0.001460
8 0.001438
9 0.001422
10 0.001417
11 0.001406
12 0.001400
13 0.001390
14 0.001380
15 0.001378
16 0.001372
17 0.001368
18 0.001365
19 0.001363
20 0.001357
21 0.001351
22 0.001341
23 0.001335
24 0.001327
25 0.001313
26 0.001305
27 0.001302
28 0.001300
29 0.001294
30 0.001287
31 0.001284
32 0.001280
33 0.001276
34 0.001269
35 0.001260
36 0.001250
37 0.001238
38 0.001231
39 0.001221
40 0.001211
41 0.001203
42 0.001197
43 0.001194
44 0.001189
45 0.001183
46 0.001177
47 0.001172
48 0.001169
49 0.001164
50 0.001161
51 0.001161
52 0.001157
53 0.001153
54 0.001149
55 0.001147
56 0.001148
57 0.001141
58 0.001135
59 0.001128
60 0.001117
61 0.001108
62 0.001102
63 0.001092
64 0.001087
65 0.001077
66 0.001070
67 0.001061
68 0.001051
69 0.001043
70 0.001032
71 0.001025
72 0.001018
73 0.001012
74 0.001011
75 0.001011
76 0.001013
77 0.001017
78 0.001015
79 0.001013
80 0.001009
81 0.001003
82 0.000999
83 0.000997
84 0.000995
85 0.000992
86 0.000990
87 0.000988
88 0.000991
89 0.000996
90 0.001003
91 0.001007
92 0.001013
93 0.001017
94 0.001018
95 0.001016
96 0.001009
97 0.000995
98 0.000983
99 0.000977
100 0.000972
101 0.000964
102 0.000951
103 0.000939
104 0.000933
105 0.000930
106 0.000930
107 0.000935
108 0.000940
109 0.000941
110 0.000938
111 0.000936
112 0.000931
113 0.000925
114 0.000920
115 0.000918
116 0.000922
117 0.000925
118 0.000927
119 0.000929
120 0.000931
121 0.000932
122 0.000930
123 0.000927
124 0.000923
125 0.000919
126 0.000914
127 0.000913
128 0.000913
129 0.000905
130 0.000895
131 0.000888
132 0.000886
133 0.000882
134 0.000886
135 0.000887
136 0.000890
137 0.000893
138 0.000893
139 0.000890
140 0.000885
141 0.000879
142 0.000873
143 0.000865
144 0.000860
145 0.000848
146 0.000842
147 0.000838
148 0.000828
149 0.000822
150 0.000815
151 0.000809
152 0.000805
153 0.000798
154 0.000795
155 0.000791
156 0.000791
157 0.000787
158 0.000776
159 0.000768
160 0.000759
161 0.000751
162 0.000748
163 0.000745
164 0.000738
165 0.000731
166 0.000726
167 0.000722
168 0.000719
169 0.000718
170 0.000721
171 0.000726
172 0.000734
173 0.000738
174 0.000745
175 0.000749
176 0.000751
177 0.000750
178 0.000748
179 0.000739
180 0.000729
181 0.000719
182 0.000710
183 0.000706
184 0.000704
185 0.000704
186 0.000702
187 0.000698
188 0.000692
189 0.000682
190 0.000677
191 0.000673
192 0.000668
193 0.000667
194 0.000664
195 0.000660
196 0.000651
197 0.000642
198 0.000636
199 0.000629
200 0.000624
201 0.000620
202 0.000613
203 0.000612
204 0.000607
205 0.000603
206 0.000600
207 0.000592
208 0.000583
209 0.000574
210 0.000567
211 0.000563
212 0.000560
213 0.000556
214 0.000555
215 0.000550
216 0.000547
217 0.000543
218 0.000545
219 0.000546
220 0.000546
221 0.000548
222 0.000546
223 0.000546
224 0.000549
225 0.000552
226 0.000556
227 0.000557
228 0.000559
229 0.000558
230 0.000560
231 0.000565
232 0.000569
233 0.000570
234 0.000565
235 0.000559
236 0.000555
237 0.000549
238 0.000546
239 0.000540
240 0.000533
241 0.000528
242 0.000518
243 0.000515
244 0.000506
245 0.000501
246 0.000502
247 0.000502
248 0.000504
249 0.000508
250 0.000509
251 0.000511
252 0.000513
253 0.000517
254 0.000520
255 0.000525
256 0.000528
257 0.000531
258 0.000529
259 0.000525
260 0.000518
261 0.000514
262 0.000514
263 0.000510
264 0.000505
265 0.000499
266 0.000496
267 0.000502
268 0.000501
269 0.000501
270 0.000501
271 0.000498
272 0.000499
273 0.000497
274 0.000495
275 0.000489
276 0.000487
277 0.000487
278 0.000488
279 0.000489
280 0.000488
281 0.000490
282 0.000492
283 0.000496
284 0.000499
285 0.000497
286 0.000494
287 0.000488
288 0.000482
289 0.000477
290 0.000473
291 0.000473
292 0.000470
293 0.000476
294 0.000482
295 0.000493
296 0.000496
297 0.000493
298 0.000488
299 0.000484
300 0.000482
301 0.000481
302 0.000479
303 0.000478
304 0.000478
305 0.000482
306 0.000484
307 0.000486
308 0.000485
309 0.000486
310 0.000494
311 0.000499
312 0.000509
313 0.000511
314 0.000515
315 0.000514
316 0.000516
317 0.000517
318 0.000517
319 0.000517
320 0.000516
321 0.000513
322 0.000514
323 0.000512
324 0.000509
325 0.000506
326 0.000508
327 0.000510
328 0.000509
329 0.000506
330 0.000498
331 0.000496
332 0.000492
333 0.000489
334 0.000485
335 0.000478
336 0.000467
337 0.000460
338 0.000455
339 0.000454
340 0.000451
341 0.000450
342 0.000449
343 0.000447
344 0.000445
345 0.000443
346 0.000443
347 0.000442
348 0.000445
349 0.000447
350 0.000449
351 0.000451
352 0.000451
353 0.000451
354 0.000448
355 0.000447
356 0.000441
357 0.000439
358 0.000438
359 0.000438
360 0.000436
361 0.000436
362 0.000441
363 0.000445
364 0.000447
365 0.000448
366 0.000448
367 0.000447
368 0.000450
369 0.000451
370 0.000451
371 0.000449
372 0.000448
373 0.000448
374 0.000447
375 0.000448
376 0.000444
377 0.000439
378 0.000438
379 0.000435
380 0.000430
381 0.000422
382 0.000416
383 0.000410
384 0.000405
385 0.000407
386 0.000410
387 0.000411
388 0.000416
389 0.000418
390 0.000421
391 0.000421
392 0.000417
393 0.000411
394 0.000406
395 0.000407
396 0.000405
397 0.000403
398 0.000397
399 0.000390
400 0.000386
401 0.000385
402 0.000384
403 0.000384
404 0.000385
405 0.000386
406 0.000391
407 0.000394
408 0.000395
409 0.000395
410 0.000394
411 0.000391
412 0.000385
413 0.000382
414 0.000380
415 0.000376
416 0.000372
417 0.000370
418 0.000371
419 0.000378
420 0.000384
421 0.000391
422 0.000392
423 0.000395
424 0.000397
425 0.000394
426 0.000393
427 0.000389
428 0.000385
429 0.000385
430 0.000386
431 0.000386
432 0.000385
433 0.000385
434 0.000387
435 0.000388
436 0.000385
437 0.000383
438 0.000381
439 0.000385
440 0.000387
441 0.000388
442 0.000389
443 0.000389
444 0.000392
445 0.000394
446 0.000395
447 0.000397
448 0.000396
449 0.000395
450 0.000391
451 0.000386
452 0.000384
453 0.000384
454 0.000385
455 0.000386
456 0.000385
457 0.000386
458 0.000390
459 0.000393
460 0.000393
461 0.000392
462 0.000392
463 0.000395
464 0.000395
465 0.000397
466 0.000394
467 0.000390
468 0.000385
469 0.000381
470 0.000374
471 0.000365
472 0.000354
473 0.000348
474 0.000339
475 0.000335
476 0.000330
477 0.000326
478 0.000322
479 0.000322
480 0.000323
481 0.000325
482 0.000328
483 0.000331
484 0.000333
485 0.000333
486 0.000335
487 0.000339
488 0.000344
489 0.000345
490 0.000351
491 0.000353
492 0.000348
493 0.000344
494 0.000339
495 0.000335
496 0.000334
497 0.000335
498 0.000335
499 0.000335
500 0.000336
501 0.000333
502 0.000330
503 0.000329
504 0.000324
505 0.000325
506 0.000321
507 0.000317
508 0.000310
509 0.000301
510 0.000296
511 0.000290
512 0.000289
513 0.000286
514 0.000286
515 0.000288
516 0.000288
517 0.000290
518 0.000289
519 0.000286
520 0.000282
521 0.000274
522 0.000267
523 0.000261
524 0.000255
525 0.000250
526 0.000246
527 0.000242
528 0.000237
529 0.000238
530 0.000239
531 0.000239
532 0.000239
533 0.000237
534 0.000238
535 0.000241
536 0.000245
537 0.000249
538 0.000253
539 0.000254
540 0.000256
541 0.000260
542 0.000265
543 0.000270
544 0.000273
545 0.000275
546 0.000276
547 0.000278
548 0.000279
549 0.000280
550 0.000280
551 0.000279
552 0.000279
553 0.000282
554 0.000281
555 0.000279
556 0.000280
557 0.000283
558 0.000290
559 0.000293
560 0.000296
561 0.000298
562 0.000302
563 0.000307
564 0.000310
565 0.000314
566 0.000315
567 0.000314
568 0.000309
569 0.000304
570 0.000298
571 0.000291
572 0.000287
573 0.000284
574 0.000282
575 0.000280
576 0.000281
577 0.000285
578 0.000286
579 0.000289
580 0.000294
581 0.000302
582 0.000310
583 0.000318
584 0.000326
585 0.000328
586 0.000329
587 0.000326
588 0.000322
589 0.000320
590 0.000317
591 0.000313
592 0.000310
593 0.000310
594 0.000311
595 0.000311
596 0.000316
597 0.000316
598 0.000316
599 0.000315
600 0.000314
601 0.000313
602 0.000309
603 0.000302
604 0.000297
605 0.000294
606 0.000289
607 0.000287
608 0.000285
609 0.000282
610 0.000276
611 0.000273
612 0.000270
613 0.000269
614 0.000268
615 0.000266
616 0.000266
617 0.000266
618 0.000263
619 0.000260
620 0.000257
621 0.000256
622 0.000256
623 0.000256
624 0.000255
625 0.000253
626 0.000252
627 0.000253
628 0.000255
629 0.000255
630 0.000252
631 0.000247
632 0.000242
633 0.000238
634 0.000235
635 0.000234
636 0.000234
637 0.000233
638 0.000233
639 0.000232
640 0.000231
641 0.000231
642 0.000231
643 0.000232
644 0.000234
645 0.000232
646 0.000229
647 0.000227
648 0.000220
649 0.000214
650 0.000209
651 0.000205
652 0.000202
653 0.000200
654 0.000197
655 0.000193
656 0.000189
657 0.000185
658 0.000181
659 0.000179
660 0.000176
661 0.000170
662 0.000166
663 0.000161
664 0.000156
665 0.000149
666 0.000143
667 0.000137
668 0.000132
669 0.000129
670 0.000128
671 0.000127
672 0.000127
673 0.000131
674 0.000136
675 0.000139
676 0.000141
677 0.000139
678 0.000138
679 0.000137
680 0.000138
681 0.000140
682 0.000144
683 0.000146
684 0.000147
685 0.000147
686 0.000150
687 0.000151
688 0.000152
689 0.000151
690 0.000152
691 0.000155
692 0.000157
693 0.000160
694 0.000160
695 0.000155
696 0.000148
697 0.000143
698 0.000138
699 0.000129
700 0.000123
701 0.000123
702 0.000126
703 0.000129
704 0.000132
705 0.000134
706 0.000133
707 0.000130
708 0.000129
709 0.000125
710 0.000119
711 0.000114
712 0.000108
713 0.000104
714 0.000103
715 0.000103
716 0.000106
717 0.000107
718 0.000106
719 0.000105
720 0.000102
721 0.000105
722 0.000108
723 0.000109
724 0.000111
725 0.000111
726 0.000109
727 0.000103
728 0.000097
729 0.000089
730 0.000083
731 0.000078
732 0.000073
733 0.000071
734 0.000070
735 0.000071
736 0.000077
737 0.000081
738 0.000086
739 0.000088
740 0.000090
741 0.000093
742 0.000091
743 0.000091
744 0.000089
745 0.000088
746 0.000087
747 0.000082
748 0.000077
749 0.000071
750 0.000063
751 0.000058
752 0.000054
753 0.000051
754 0.000047
755 0.000044
756 0.000041
757 0.000040
758 0.000042
759 0.000045
760 0.000047
761 0.000049
762 0.000048
763 0.000047
764 0.000046
765 0.000044
766 0.000041
767 0.000039
768 0.000037
769 0.000038
770 0.000040
771 0.000041
772 0.000041
773 0.000040
774 0.000039
775 0.000041
776 0.000040
777 0.000040
778 0.000038
779 0.000038
780 0.000037
781 0.000036
782 0.000035
783 0.000033
784 0.000031
785 0.000028
786 0.000026
787 0.000024
788 0.000020
789 0.000017
790 0.000014
791 0.000012
792 0.000012
793 0.000013
794 0.000015
795 0.000015
796 0.000014
797 0.000016
798 0.000019
799 0.000020
800 0.000020
801 0.000019
802 0.000020
803 0.000020
804 0.000018
805 0.000013
806 0.000007
807 0.000005
808 0.000004
809 0.000004
