# i correlation
1 0.001601
2 0.001557
3 0.001519
4 0.001484
5 0.001455
6 0.001430
7 0.001402
8 0.001372
9 0.001344
10 0.001318
11 0.001301
12 0.001289
13 0.001274
14 0.001264
15 0.001251
16 0.001240
17 0.001228
18 0.001220
19 0.001212
20 0.001204
21 0.001193
22 0.001187
23 0.001178
24 0.001166
25 0.001154
26 0.001144
27 0.001137
28 0.001130
29 0.001120
30 0.001114
31 0.001105
32 0.001096
33 0.001092
34 0.001089
35 0.001087
36 0.001085
37 0.001077
38 0.001069
39 0.001066
40 0.001063
41 0.001062
42 0.001058
43 0.001050
44 0.001036
45 0.001024
46 0.001010
47 0.001000
48 0.000996
49 0.000988
50 0.000981
51 0.000974
52 0.000966
53 0.000960
54 0.000953
55 0.000951
56 0.000949
57 0.000945
58 0.000939
59 0.000933
60 0.000928
61 0.000926
62 0.000922
63 0.000916
64 0.000912
65 0.000903
66 0.000893
67 0.000888
68 0.000885
69 0.000885
70 0.000878
71 0.000872
72 0.000866
73 0.000862
74 0.000853
75 0.000844
76 0.000837
77 0.000830
78 0.000825
79 0.000818
80 0.000815
81 0.000811
82 0.000803
83 0.000793
84 0.000788
85 0.000781
86 0.000775
87 0.000774
88 0.000775
89 0.000774
90 0.000777
91 0.000780
92 0.000782
93 0.000781
94 0.000776
95 0.000775
96 0.000777
97 0.000775
98 0.000775
99 0.000774
100 0.000772
101 0.000771
102 0.000772
103 0.000774
104 0.000776
105 0.000775
106 0.000769
107 0.000767
108 0.000761
109 0.000751
110 0.000749
111 0.000742
112 0.000731
113 0.000723
114 0.000716
115 0.000710
116 0.000707
117 0.000705
118 0.000703
119 0.000702
120 0.000699
121 0.000699
122 0.000698
123 0.000693
124 0.000693
125 0.000698
126 0.000701
127 0.000699
128 0.000693
129 0.000694
130 0.000697
131 0.000698
132 0.000702
133 0.000706
134 0.000707
135 0.000709
136 0.000705
137 0.000702
138 0.000700
139 0.000695
140 0.000691
141 0.000689
142 0.000685
143 0.000683
144 0.000681
145 0.000679
146 0.000678
147 0.000675
148 0.000673
149 0.000670
150 0.000666
151 0.000660
152 0.000655
153 0.000651
154 0.000643
155 0.000639
156 0.000630
157 0.000623
158 0.000623
159 0.000623
160 0.000624
161 0.000625
162 0.000625
163 0.000623
164 0.000626
165 0.000630
166 0.000634
167 0.000640
168 0.000648
169 0.000651
170 0.000651
171 0.000654
172 0.000660
173 0.000667
174 0.000672
175 0.000677
176 0.000679
177 0.000679
178 0.000674
179 0.000666
180 0.000659
181 0.000651
182 0.000646
183 0.000645
184 0.000642
185 0.000639
186 0.000634
187 0.000632
188 0.000632
189 0.000635
190 0.000641
191 0.000651
192 0.000652
193 0.000650
194 0.000654
195 0.000661
196 0.000663
197 0.000662
198 0.000660
199 0.000658
200 0.000654
201 0.000648
202 0.000647
203 0.000643
204 0.000635
205 0.000626
206 0.000620
207 0.000616
208 0.000613
209 0.000611
210 0.000611
211 0.000606
212 0.000602
213 0.000596
214 0.000592
215 0.000585
216 0.000581
217 0.000581
218 0.000578
219 0.000574
220 0.000565
221 0.000555
222 0.000550
223 0.000552
224 0.000553
225 0.000558
226 0.000567
227 0.000570
228 0.000575
229 0.000575
230 0.000576
231 0.000581
232 0.000587
233 0.000593
234 0.000594
235 0.000593
236 0.000589
237 0.000587
238 0.000587
239 0.000588
240 0.000592
241 0.000593
242 0.000593
243 0.000594
244 0.000592
245 0.000595
246 0.000598
247 0.000599
248 0.000595
249 0.000591
250 0.000584
251 0.000583
252 0.000577
253 0.000572
254 0.000564
255 0.000557
256 0.000549
257 0.000538
258 0.000533
259 0.000526
260 0.000520
261 0.000511
262 0.000502
263 0.000495
264 0.000490
265 0.000488
266 0.000487
267 0.000488
268 0.000489
269 0.000496
270 0.000497
271 0.000501
272 0.000501
273 0.000503
274 0.000503
275 0.000503
276 0.000502
277 0.000500
278 0.000496
279 0.000489
280 0.000486
281 0.000483
282 0.000481
283 0.000480
284 0.000474
285 0.000472
286 0.000473
287 0.000473
288 0.000475
289 0.000474
290 0.000472
291 0.000466
292 0.000463
293 0.000459
294 0.000459
295 0.000461
296 0.000458
297 0.000457
298 0.000456
299 0.000457
300 0.000454
301 0.000453
302 0.000452
303 0.000447
304 0.000449
305 0.000449
306 0.000451
307 0.000451
308 0.000452
309 0.000450
310 0.000455
311 0.000454
312 0.000455
313 0.000455
314 0.000452
315 0.000445
316 0.000443
317 0.000438
318 0.000430
319 0.000423
320 0.000419
321 0.000413
322 0.000411
323 0.000407
324 0.000406
325 0.000400
326 0.000392
327 0.000387
328 0.000383
329 0.000381
330 0.000379
331 0.000377
332 0.000373
333 0.000373
334 0.000375
335 0.000379
336 0.000383
337 0.000384
338 0.000387
339 0.000388
340 0.000388
341 0.000386
342 0.000385
343 0.000384
344 0.000383
345 0.000386
346 0.000386
347 0.000387
348 0.000387
349 0.000388
350 0.000388
351 0.000389
352 0.000391
353 0.000392
354 0.000390
355 0.000389
356 0.000387
357 0.000384
358 0.000385
359 0.000382
360 0.000377
361 0.000373
362 0.000366
363 0.000361
364 0.000358
365 0.000354
366 0.000350
367 0.000350
368 0.000353
369 0.000354
370 0.000356
371 0.000356
372 0.000358
373 0.000359
374 0.000358
375 0.000362
376 0.000373
377 0.000381
378 0.000390
379 0.000397
380 0.000401
381 0.000403
382 0.000404
383 0.000402
384 0.000398
385 0.000395
386 0.000394
387 0.000389
388 0.000384
389 0.000374
390 0.000372
391 0.000372
392 0.000373
393 0.000375
394 0.000378
395 0.000377
396 0.000378
397 0.000375
398 0.000374
399 0.000378
400 0.000385
401 0.000388
402 0.000389
403 0.000392
404 0.000396
405 0.000394
406 0.000398
407 0.000400
408 0.000401
409 0.000399
410 0.000396
411 0.000391
412 0.000388
413 0.000386
414 0.000384
415 0.000384
416 0.000384
417 0.000384
418 0.000385
419 0.000390
420 0.000397
421 0.000406
422 0.000411
423 0.000413
424 0.000415
425 0.000412
426 0.000412
427 0.000412
428 0.000411
429 0.000408
430 0.000404
431 0.000399
432 0.000395
433 0.000390
434 0.000386
435 0.000383
436 0.000381
437 0.000377
438 0.000372
439 0.000367
440 0.000366
441 0.000367
442 0.000370
443 0.000377
444 0.000379
445 0.000381
446 0.000381
447 0.000379
448 0.000374
449 0.000373
450 0.000372
451 0.000368
452 0.000361
453 0.000352
454 0.000345
455 0.000337
456 0.000329
457 0.000321
458 0.000309
459 0.000297
460 0.000291
461 0.000285
462 0.000278
463 0.000275
464 0.000270
465 0.000264
466 0.000258
467 0.000253
468 0.000256
469 0.000256
470 0.000256
471 0.000258
472 0.000262
473 0.000262
474 0.000260
475 0.000257
476 0.000255
477 0.000257
478 0.000259
479 0.000259
480 0.000258
481 0.000257
482 0.000257
483 0.000263
484 0.000270
485 0.000275
486 0.000280
487 0.000280
488 0.000282
489 0.000281
490 0.000281
491 0.000277
492 0.000273
493 0.000264
494 0.000256
495 0.000252
496 0.000247
497 0.000247
498 0.000245
499 0.000243
500 0.000240
501 0.000238
502 0.000238
503 0.000240
504 0.000245
505 0.000247
506 0.000246
507 0.000248
508 0.000251
509 0.000252
510 0.000250
511 0.000249
512 0.000248
513 0.000246
514 0.000242
515 0.000235
516 0.000231
517 0.000223
518 0.000217
519 0.000213
520 0.000211
521 0.000208
522 0.000206
523 0.000206
524 0.000204
525 0.000207
526 0.000209
527 0.000208
528 0.000208
529 0.000208
530 0.000210
531 0.000214
532 0.000215
533 0.000217
534 0.000220
535 0.000219
536 0.000219
537 0.000219
538 0.000218
539 0.000218
540 0.000219
541 0.000221
542 0.000223
543 0.000223
544 0.000223
545 0.000225
546 0.000226
547 0.000228
548 0.000232
549 0.000232
550 0.000231
551 0.000231
552 0.000232
553 0.000237
554 0.000237
555 0.000237
556 0.000234
557 0.000233
558 0.000229
559 0.000230
560 0.000227
561 0.000223
562 0.000217
563 0.000210
564 0.000207
565 0.000204
566 0.000200
567 0.000196
568 0.000196
569 0.000193
570 0.000193
571 0.000196
572 0.000196
573 0.000194
574 0.000193
575 0.000193
576 0.000195
577 0.000195
578 0.000200
579 0.000206
580 0.000207
581 0.000211
582 0.000215
583 0.000215
584 0.000211
585 0.000208
586 0.000203
587 0.000200
588 0.000197
589 0.000194
590 0.000194
591 0.000196
592 0.000194
593 0.000198
594 0.000203
595 0.000209
596 0.000214
597 0.000213
598 0.000212
599 0.000207
600 0.000202
601 0.000200
602 0.000197
603 0.000195
604 0.000191
605 0.000185
606 0.000180
607 0.000174
608 0.000169
609 0.000166
610 0.000163
611 0.000163
612 0.000162
613 0.000162
614 0.000162
615 0.000159
616 0.000158
617 0.000155
618 0.000155
619 0.000156
620 0.000153
621 0.000153
622 0.000155
623 0.000156
624 0.000154
625 0.000152
626 0.000152
627 0.000154
628 0.000153
629 0.000152
630 0.000152
631 0.000150
632 0.000148
633 0.000146
634 0.000143
635 0.000140
636 0.000137
637 0.000134
638 0.000131
639 0.000128
640 0.000124
641 0.000122
642 0.000118
643 0.000114
644 0.000108
645 0.000104
646 0.000102
647 0.000101
648 0.000098
649 0.000096
650 0.000095
651 0.000095
652 0.000097
653 0.000096
654 0.000097
655 0.000098
656 0.000098
657 0.000096
658 0.000092
659 0.000089
660 0.000085
661 0.000080
662 0.000079
663 0.000081
664 0.000081
665 0.000080
666 0.000079
667 0.000079
668 0.000081
669 0.000087
670 0.000091
671 0.000095
672 0.000101
673 0.000104
674 0.000111
675 0.000119
676 0.000125
677 0.000128
678 0.000131
679 0.000132
680 0.000134
681 0.000137
682 0.000140
683 0.000145
684 0.000146
685 0.000147
686 0.000150
687 0.000148
688 0.000146
689 0.000145
690 0.000142
691 0.000138
692 0.000135
693 0.000129
694 0.000126
695 0.000124
696 0.000122
697 0.000120
698 0.000118
699 0.000117
700 0.000118
701 0.000119
702 0.000120
703 0.000123
704 0.000125
705 0.000124
706 0.000123
707 0.000123
708 0.000123
709 0.000120
710 0.000119
711 0.000118
712 0.000118
713 0.000118
714 0.000120
715 0.000120
716 0.000125
717 0.000128
718 0.000129
719 0.000130
720 0.000131
721 0.000132
722 0.000134
723 0.000137
724 0.000138
725 0.000138
726 0.000139
727 0.000141
728 0.000144
729 0.000145
730 0.000149
731 0.000153
732 0.000156
733 0.000159
734 0.000159
735 0.000157
736 0.000156
737 0.000155
738 0.000157
739 0.000156
740 0.000153
741 0.000150
742 0.000145
743 0.000145
744 0.000146
745 0.000145
746 0.000143
747 0.000141
748 0.000140
749 0.000139
750 0.000138
751 0.000133
752 0.000129
753 0.000126
754 0.000124
755 0.000125
756 0.000124
757 0.000124
758 0.000123
759 0.000126
760 0.000125
761 0.000125
762 0.000126
763 0.000123
764 0.000122
765 0.000121
766 0.000121
767 0.000122
768 0.000123
769 0.000123
770 0.000123
771 0.000122
772 0.000122
773 0.000126
774 0.000129
775 0.000129
776 0.000131
777 0.000133
778 0.000136
779 0.000138
780 0.000140
781 0.000142
782 0.000145
783 0.000144
784 0.000144
785 0.000147
786 0.000150
787 0.000152
788 0.000155
789 0.000158
790 0.000161
791 0.000163
792 0.000166
793 0.000168
794 0.000170
795 0.000169
796 0.000169
797 0.000170
798 0.000172
799 0.000174
800 0.000176
801 0.000178
802 0.000180
803 0.000181
804 0.000182
805 0.000184
806 0.000184
807 0.000183
808 0.000183
809 0.000182
