# i correlation
1 0.001941
2 0.001888
3 0.001842
4 0.001804
5 0.001770
6 0.001740
7 0.001713
8 0.001688
9 0.001665
10 0.001649
11 0.001632
12 0.001614
13 0.001601
14 0.001592
15 0.001589
16 0.001583
17 0.001577
18 0.001574
19 0.001570
20 0.001567
21 0.001560
22 0.001548
23 0.001532
24 0.001517
25 0.001503
26 0.001495
27 0.001488
28 0.001478
29 0.001465
30 0.001452
31 0.001438
32 0.001417
33 0.001399
34 0.001386
35 0.001381
36 0.001375
37 0.001374
38 0.001375
39 0.001376
40 0.001374
41 0.001377
42 0.001376
43 0.001377
44 0.001378
45 0.001374
46 0.001367
47 0.001361
48 0.001356
49 0.001350
50 0.001344
51 0.001339
52 0.001334
53 0.001326
54 0.001319
55 0.001315
56 0.001306
57 0.001302
58 0.001303
59 0.001300
60 0.001299
61 0.001300
62 0.001304
63 0.001299
64 0.001293
65 0.001290
66 0.001289
67 0.001288
68 0.001288
69 0.001279
70 0.001274
71 0.001266
72 0.001256
73 0.001254
74 0.001252
75 0.001248
76 0.001244
77 0.001240
78 0.001234
79 0.001224
80 0.001211
81 0.001201
82 0.001196
83 0.001188
84 0.001181
85 0.001176
86 0.001165
87 0.001155
88 0.001148
89 0.001141
90 0.001130
91 0.001118
92 0.001107
93 0.001096
94 0.001088
95 0.001081
96 0.001072
97 0.001065
98 0.001065
99 0.001069
100 0.001069
101 0.001068
102 0.001067
103 0.001065
104 0.001056
105 0.001050
106 0.001045
107 0.001037
108 0.001030
109 0.001029
110 0.001028
111 0.001022
112 0.001012
113 0.001001
114 0.000993
115 0.000990
116 0.000987
117 0.000986
118 0.000984
119 0.000983
120 0.000985
121 0.000989
122 0.000992
123 0.000987
124 0.000984
125 0.000980
126 0.000983
127 0.000984
128 0.000987
129 0.000989
130 0.000996
131 0.000994
132 0.000993
133 0.000989
134 0.000982
135 0.000973
136 0.000971
137 0.000971
138 0.000969
139 0.000965
140 0.000966
141 0.000962
142 0.000960
143 0.000957
144 0.000960
145 0.000962
146 0.000968
147 0.000974
148 0.000973
149 0.000974
150 0.000974
151 0.000969
152 0.000964
153 0.000958
154 0.000951
155 0.000942
156 0.000934
157 0.000927
158 0.000918
159 0.000913
160 0.000906
161 0.000906
162 0.000905
163 0.000900
164 0.000897
165 0.000896
166 0.000899
167 0.000901
168 0.000900
169 0.000900
170 0.000902
171 0.000903
172 0.000902
173 0.000903
174 0.000904
175 0.000906
176 0.000913
177 0.000922
178 0.000923
179 0.000916
180 0.000907
181 0.000896
182 0.000885
183 0.000879
184 0.000880
185 0.000879
186 0.000873
187 0.000867
188 0.000875
189 0.000878
190 0.000878
191 0.000875
192 0.000876
193 0.000874
194 0.000874
195 0.000872
196 0.000865
197 0.000858
198 0.000857
199 0.000852
200 0.000847
201 0.000841
202 0.000836
203 0.000836
204 0.000839
205 0.000840
206 0.000838
207 0.000834
208 0.000828
209 0.000820
210 0.000812
211 0.000800
212 0.000791
213 0.000782
214 0.000778
215 0.000779
216 0.000783
217 0.000786
218 0.000787
219 0.000787
220 0.000789
221 0.000791
222 0.000789
223 0.000783
224 0.000777
225 0.000773
226 0.000765
227 0.000760
228 0.000752
229 0.000749
230 0.000740
231 0.000736
232 0.000737
233 0.000737
234 0.000735
235 0.000732
236 0.000731
237 0.000731
238 0.000731
239 0.000737
240 0.000735
241 0.000732
242 0.000719
243 0.000708
244 0.000701
245 0.000697
246 0.000695
247 0.000698
248 0.000694
249 0.000691
250 0.000688
251 0.000689
252 0.000690
253 0.000689
254 0.000689
255 0.000691
256 0.000690
257 0.000682
258 0.000675
259 0.000674
260 0.000673
261 0.000668
262 0.000659
263 0.000649
264 0.000638
265 0.000627
266 0.000622
267 0.000619
268 0.000616
269 0.000609
270 0.000601
271 0.000594
272 0.000589
273 0.000586
274 0.000583
275 0.000579
276 0.000581
277 0.000584
278 0.000586
279 0.000589
280 0.000590
281 0.000585
282 0.000581
283 0.000576
284 0.000569
285 0.000558
286 0.000555
287 0.000550
288 0.000542
289 0.000536
290 0.000534
291 0.000534
292 0.000529
293 0.000526
294 0.000532
295 0.000538
296 0.000543
297 0.000545
298 0.000547
299 0.000552
300 0.000551
301 0.000548
302 0.000543
303 0.000537
304 0.000534
305 0.000527
306 0.000524
307 0.000525
308 0.000522
309 0.000519
310 0.000514
311 0.000513
312 0.000507
313 0.000504
314 0.000508
315 0.000512
316 0.000516
317 0.000523
318 0.000529
319 0.000530
320 0.000532
321 0.000538
322 0.000542
323 0.000541
324 0.000543
325 0.000545
326 0.000547
327 0.000545
328 0.000544
329 0.000540
330 0.000533
331 0.000528
332 0.000521
333 0.000507
334 0.000495
335 0.000485
336 0.000479
337 0.000482
338 0.000486
339 0.000491
340 0.000495
341 0.000497
342 0.000498
343 0.000499
344 0.000501
345 0.000502
346 0.000500
347 0.000499
348 0.000495
349 0.000490
350 0.000485
351 0.000481
352 0.000474
353 0.000466
354 0.000458
355 0.000453
356 0.000449
357 0.000441
358 0.000433
359 0.000431
360 0.000430
361 0.000431
362 0.000437
363 0.000435
364 0.000431
365 0.000430
366 0.000433
367 0.000440
368 0.000444
369 0.000454
370 0.000457
371 0.000457
372 0.000453
373 0.000449
374 0.000439
375 0.000430
376 0.000426
377 0.000421
378 0.000415
379 0.000407
380 0.000402
381 0.000396
382 0.000392
383 0.000391
384 0.000385
385 0.000378
386 0.000372
387 0.000366
388 0.000365
389 0.000364
390 0.000361
391 0.000356
392 0.000349
393 0.000345
394 0.000340
395 0.000334
396 0.000331
397 0.000332
398 0.000335
399 0.000336
400 0.000332
401 0.000328
402 0.000321
403 0.000313
404 0.000302
405 0.000295
406 0.000291
407 0.000287
408 0.000281
409 0.000275
410 0.000272
411 0.000264
412 0.000260
413 0.000258
414 0.000256
415 0.000253
416 0.000253
417 0.000259
418 0.000262
419 0.000262
420 0.000261
421 0.000259
422 0.000261
423 0.000266
424 0.000273
425 0.000277
426 0.000281
427 0.000288
428 0.000293
429 0.000298
430 0.000297
431 0.000293
432 0.000291
433 0.000290
434 0.000289
435 0.000290
436 0.000287
437 0.000290
438 0.000293
439 0.000295
440 0.000299
441 0.000303
442 0.000308
443 0.000316
444 0.000325
445 0.000331
446 0.000335
447 0.000336
448 0.000338
449 0.000336
450 0.000335
451 0.000337
452 0.000335
453 0.000332
454 0.000332
455 0.000330
456 0.000326
457 0.000323
458 0.000318
459 0.000309
460 0.000296
461 0.000289
462 0.000278
463 0.000265
464 0.000257
465 0.000251
466 0.000246
467 0.000242
468 0.000242
469 0.000242
470 0.000245
471 0.000248
472 0.000254
473 0.000255
474 0.000253
475 0.000252
476 0.000248
477 0.000242
478 0.000236
479 0.000230
480 0.000225
481 0.000216
482 0.000206
483 0.000199
484 0.000196
485 0.000194
486 0.000192
487 0.000190
488 0.000189
489 0.000186
490 0.000182
491 0.000177
492 0.000180
493 0.000186
494 0.000192
495 0.000199
496 0.000205
497 0.000208
498 0.000210
499 0.000214
500 0.000217
501 0.000219
502 0.000221
503 0.000220
504 0.000215
505 0.000213
506 0.000212
507 0.000211
508 0.000211
509 0.000211
510 0.000208
511 0.000206
512 0.000206
513 0.000210
514 0.000215
515 0.000225
516 0.000236
517 0.000242
518 0.000245
519 0.000248
520 0.000253
521 0.000258
522 0.000258
523 0.000260
524 0.000255
525 0.000251
526 0.000244
527 0.000238
528 0.000234
529 0.000226
530 0.000220
531 0.000218
532 0.000216
533 0.000219
534 0.000221
535 0.000226
536 0.000234
537 0.000241
538 0.000246
539 0.000250
540 0.000252
541 0.000250
542 0.000245
543 0.000240
544 0.000236
545 0.000233
546 0.000235
547 0.000238
548 0.000236
549 0.000231
550 0.000228
551 0.000227
552 0.000222
553 0.000218
554 0.000220
555 0.000222
556 0.000223
557 0.000225
558 0.000225
559 0.000225
560 0.000221
561 0.000217
562 0.000212
563 0.000208
564 0.000205
565 0.000201
566 0.000199
567 0.000196
568 0.000191
569 0.000188
570 0.000183
571 0.000182
572 0.000181
573 0.000182
574 0.000183
575 0.000186
576 0.000191
577 0.000196
578 0.000200
579 0.000199
580 0.000197
581 0.000195
582 0.000192
583 0.000191
584 0.000190
585 0.000191
586 0.000193
587 0.000197
588 0.000197
589 0.000195
590 0.000193
591 0.000190
592 0.000186
593 0.000184
594 0.000187
595 0.000191
596 0.000193
597 0.000193
598 0.000196
599 0.000196
600 0.000195
601 0.000197
602 0.000199
603 0.000200
604 0.000200
605 0.000201
606 0.000202
607 0.000201
608 0.000200
609 0.000195
610 0.000189
611 0.000183
612 0.000175
613 0.000167
614 0.000160
615 0.000158
616 0.000160
617 0.000162
618 0.000163
619 0.000160
620 0.000157
621 0.000156
622 0.000160
623 0.000164
624 0.000170
625 0.000176
626 0.000178
627 0.000179
628 0.000177
629 0.000174
630 0.000173
631 0.000171
632 0.000168
633 0.000166
634 0.000163
635 0.000161
636 0.000161
637 0.000159
638 0.000155
639 0.000151
640 0.000148
641 0.000143
642 0.000141
643 0.000140
644 0.000137
645 0.000137
646 0.000139
647 0.000139
648 0.000139
649 0.000140
650 0.000141
651 0.000139
652 0.000135
653 0.000132
654 0.000129
655 0.000128
656 0.000128
657 0.000128
658 0.000125
659 0.000123
660 0.000122
661 0.000123
662 0.000123
663 0.000124
664 0.000126
665 0.000130
666 0.000132
667 0.000130
668 0.000130
669 0.000131
670 0.000130
671 0.000129
672 0.000125
673 0.000123
674 0.000121
675 0.000120
676 0.000121
677 0.000124
678 0.000128
679 0.000129
680 0.000129
681 0.000124
682 0.000122
683 0.000120
684 0.000121
685 0.000122
686 0.000121
687 0.000121
688 0.000123
689 0.000123
690 0.000124
691 0.000122
692 0.000123
693 0.000127
694 0.000128
695 0.000129
696 0.000129
697 0.000129
698 0.000129
699 0.000131
700 0.000132
701 0.000132
702 0.000128
703 0.000125
704 0.000122
705 0.000119
706 0.000119
707 0.000118
708 0.000117
709 0.000117
710 0.000118
711 0.000118
712 0.000115
713 0.000110
714 0.000108
715 0.000103
716 0.000101
717 0.000098
718 0.000096
719 0.000095
720 0.000096
721 0.000095
722 0.000092
723 0.000090
724 0.000087
725 0.000087
726 0.000088
727 0.000089
728 0.000090
729 0.000091
730 0.000090
731 0.000092
732 0.000091
733 0.000089
734 0.000087
735 0.000085
736 0.000085
737 0.000084
738 0.000083
739 0.000084
740 0.000084
741 0.000086
742 0.000089
743 0.000092
744 0.000092
745 0.000092
746 0.000090
747 0.000087
748 0.000086
749 0.000084
750 0.000081
751 0.000078
752 0.000077
753 0.000078
754 0.000079
755 0.000082
756 0.000085
757 0.000087
758 0.000088
759 0.000085
760 0.000086
761 0.000089
762 0.000092
763 0.000095
764 0.000098
765 0.000099
766 0.000102
767 0.000103
768 0.000103
769 0.000104
770 0.000105
771 0.000105
772 0.000107
773 0.000107
774 0.000110
775 0.000112
776 0.000114
777 0.000114
778 0.000112
779 0.000112
780 0.000111
781 0.000109
782 0.000110
783 0.000108
784 0.000106
785 0.000103
786 0.000102
787 0.000101
788 0.000099
789 0.000095
790 0.000093
791 0.000091
792 0.000089
793 0.000088
794 0.000088
795 0.000089
796 0.000091
797 0.000092
798 0.000092
799 0.000092
800 0.000089
801 0.000084
802 0.000080
803 0.000073
804 0.000067
805 0.000062
806 0.000058
807 0.000054
808 0.000047
809 0.000039
