# i correlation
1 0.001845
2 0.001804
3 0.001765
4 0.001733
5 0.001711
6 0.001688
7 0.001664
8 0.001640
9 0.001616
10 0.001595
11 0.001576
12 0.001559
13 0.001543
14 0.001530
15 0.001510
16 0.001493
17 0.001478
18 0.001464
19 0.001453
20 0.001444
21 0.001439
22 0.001436
23 0.001428
24 0.001422
25 0.001419
26 0.001415
27 0.001414
28 0.001412
29 0.001416
30 0.001419
31 0.001422
32 0.001420
33 0.001417
34 0.001415
35 0.001410
36 0.001408
37 0.001401
38 0.001396
39 0.001394
40 0.001391
41 0.001391
42 0.001382
43 0.001372
44 0.001359
45 0.001347
46 0.001337
47 0.001329
48 0.001320
49 0.001307
50 0.001295
51 0.001288
52 0.001282
53 0.001280
54 0.001277
55 0.001274
56 0.001273
57 0.001268
58 0.001263
59 0.001259
60 0.001253
61 0.001252
62 0.001245
63 0.001244
64 0.001243
65 0.001245
66 0.001241
67 0.001240
68 0.001238
69 0.001236
70 0.001237
71 0.001232
72 0.001223
73 0.001205
74 0.001187
75 0.001176
76 0.001167
77 0.001158
78 0.001150
79 0.001141
80 0.001132
81 0.001128
82 0.001121
83 0.001121
84 0.001117
85 0.001112
86 0.001109
87 0.001100
88 0.001096
89 0.001088
90 0.001083
91 0.001075
92 0.001069
93 0.001062
94 0.001058
95 0.001051
96 0.001040
97 0.001035
98 0.001027
99 0.001027
100 0.001027
101 0.001027
102 0.001023
103 0.001020
104 0.001017
105 0.001015
106 0.001014
107 0.001011
108 0.001011
109 0.001006
110 0.001001
111 0.000997
112 0.000995
113 0.000999
114 0.000995
115 0.000993
116 0.000989
117 0.000985
118 0.000982
119 0.000983
120 0.000980
121 0.000974
122 0.000970
123 0.000966
124 0.000967
125 0.000967
126 0.000972
127 0.000975
128 0.000975
129 0.000976
130 0.000975
131 0.000974
132 0.000969
133 0.000962
134 0.000958
135 0.000954
136 0.000948
137 0.000942
138 0.000939
139 0.000935
140 0.000937
141 0.000939
142 0.000937
143 0.000928
144 0.000922
145 0.000919
146 0.000912
147 0.000907
148 0.000900
149 0.000894
150 0.000884
151 0.000875
152 0.000869
153 0.000867
154 0.000863
155 0.000858
156 0.000850
157 0.000844
158 0.000843
159 0.000844
160 0.000845
161 0.000843
162 0.000839
163 0.000832
164 0.000831
165 0.000829
166 0.000834
167 0.000838
168 0.000834
169 0.000831
170 0.000828
171 0.000831
172 0.000837
173 0.000835
174 0.000830
175 0.000829
176 0.000825
177 0.000817
178 0.000815
179 0.000817
180 0.000818
181 0.000818
182 0.000818
183 0.000816
184 0.000816
185 0.000815
186 0.000808
187 0.000804
188 0.000800
189 0.000797
190 0.000798
191 0.000791
192 0.000784
193 0.000778
194 0.000778
195 0.000774
196 0.000773
197 0.000772
198 0.000774
199 0.000779
200 0.000781
201 0.000783
202 0.000784
203 0.000784
204 0.000780
205 0.000774
206 0.000768
207 0.000764
208 0.000761
209 0.000760
210 0.000758
211 0.000754
212 0.000751
213 0.000749
214 0.000748
215 0.000748
216 0.000741
217 0.000733
218 0.000719
219 0.000710
220 0.000702
221 0.000692
222 0.000684
223 0.000675
224 0.000667
225 0.000662
226 0.000660
227 0.000653
228 0.000652
229 0.000654
230 0.000656
231 0.000659
232 0.000656
233 0.000653
234 0.000646
235 0.000648
236 0.000653
237 0.000654
238 0.000655
239 0.000657
240 0.000661
241 0.000662
242 0.000666
243 0.000670
244 0.000674
245 0.000676
246 0.000678
247 0.000679
248 0.000680
249 0.000679
250 0.000682
251 0.000681
252 0.000676
253 0.000670
254 0.000664
255 0.000660
256 0.000657
257 0.000654
258 0.000651
259 0.000642
260 0.000637
261 0.000633
262 0.000628
263 0.000622
264 0.000618
265 0.000617
266 0.000616
267 0.000621
268 0.000625
269 0.000631
270 0.000639
271 0.000642
272 0.000646
273 0.000650
274 0.000654
275 0.000653
276 0.000653
277 0.000654
278 0.000654
279 0.000654
280 0.000654
281 0.000652
282 0.000652
283 0.000651
284 0.000653
285 0.000656
286 0.000657
287 0.000661
288 0.000659
289 0.000658
290 0.000651
291 0.000645
292 0.000640
293 0.000637
294 0.000633
295 0.000631
296 0.000628
297 0.000627
298 0.000629
299 0.000631
300 0.000631
301 0.000630
302 0.000625
303 0.000622
304 0.000614
305 0.000605
306 0.000600
307 0.000602
308 0.000603
309 0.000608
310 0.000605
311 0.000604
312 0.000605
313 0.000603
314 0.000606
315 0.000604
316 0.000604
317 0.000604
318 0.000597
319 0.000594
320 0.000594
321 0.000596
322 0.000595
323 0.000593
324 0.000589
325 0.000589
326 0.000588
327 0.000587
328 0.000591
329 0.000594
330 0.000599
331 0.000603
332 0.000601
333 0.000603
334 0.000606
335 0.000608
336 0.000607
337 0.000603
338 0.000599
339 0.000603
340 0.000606
341 0.000611
342 0.000610
343 0.000607
344 0.000600
345 0.000594
346 0.000589
347 0.000580
348 0.000576
349 0.000570
350 0.000569
351 0.000569
352 0.000563
353 0.000558
354 0.000553
355 0.000555
356 0.000555
357 0.000556
358 0.000556
359 0.000552
360 0.000551
361 0.000551
362 0.000552
363 0.000553
364 0.000555
365 0.000556
366 0.000556
367 0.000551
368 0.000549
369 0.000549
370 0.000553
371 0.000553
372 0.000548
373 0.000545
374 0.000541
375 0.000541
376 0.000539
377 0.000540
378 0.000541
379 0.000539
380 0.000538
381 0.000536
382 0.000536
383 0.000533
384 0.000535
385 0.000532
386 0.000529
387 0.000526
388 0.000523
389 0.000520
390 0.000519
391 0.000517
392 0.000517
393 0.000516
394 0.000513
395 0.000513
396 0.000514
397 0.000518
398 0.000523
399 0.000527
400 0.000529
401 0.000530
402 0.000532
403 0.000532
404 0.000534
405 0.000536
406 0.000536
407 0.000531
408 0.000526
409 0.000521
410 0.000519
411 0.000523
412 0.000524
413 0.000522
414 0.000522
415 0.000523
416 0.000527
417 0.000526
418 0.000524
419 0.000524
420 0.000520
421 0.000516
422 0.000512
423 0.000508
424 0.000502
425 0.000496
426 0.000490
427 0.000486
428 0.000479
429 0.000477
430 0.000477
431 0.000474
432 0.000470
433 0.000467
434 0.000464
435 0.000459
436 0.000457
437 0.000453
438 0.000451
439 0.000449
440 0.000449
441 0.000451
442 0.000449
443 0.000449
444 0.000449
445 0.000449
446 0.000449
447 0.000450
448 0.000447
449 0.000446
450 0.000443
451 0.000441
452 0.000440
453 0.000437
454 0.000434
455 0.000431
456 0.000428
457 0.000422
458 0.000417
459 0.000415
460 0.000415
461 0.000414
462 0.000413
463 0.000410
464 0.000406
465 0.000406
466 0.000404
467 0.000405
468 0.000409
469 0.000413
470 0.000419
471 0.000425
472 0.000430
473 0.000430
474 0.000429
475 0.000427
476 0.000429
477 0.000432
478 0.000430
479 0.000430
480 0.000428
481 0.000428
482 0.000427
483 0.000429
484 0.000432
485 0.000432
486 0.000437
487 0.000442
488 0.000447
489 0.000450
490 0.000451
491 0.000455
492 0.000458
493 0.000460
494 0.000461
495 0.000460
496 0.000458
497 0.000455
498 0.000451
499 0.000449
500 0.000449
501 0.000451
502 0.000456
503 0.000456
504 0.000452
505 0.000448
506 0.000446
507 0.000445
508 0.000444
509 0.000441
510 0.000439
511 0.000435
512 0.000432
513 0.000429
514 0.000423
515 0.000418
516 0.000414
517 0.000407
518 0.000406
519 0.000402
520 0.000396
521 0.000389
522 0.000383
523 0.000378
524 0.000382
525 0.000386
526 0.000386
527 0.000388
528 0.000386
529 0.000386
530 0.000387
531 0.000387
532 0.000390
533 0.000394
534 0.000394
535 0.000393
536 0.000391
537 0.000392
538 0.000393
539 0.000395
540 0.000395
541 0.000394
542 0.000392
543 0.000393
544 0.000392
545 0.000391
546 0.000393
547 0.000392
548 0.000392
549 0.000392
550 0.000393
551 0.000395
552 0.000395
553 0.000390
554 0.000385
555 0.000380
556 0.000379
557 0.000379
558 0.000378
559 0.000380
560 0.000385
561 0.000385
562 0.000382
563 0.000378
564 0.000373
565 0.000369
566 0.000364
567 0.000358
568 0.000352
569 0.000346
570 0.000344
571 0.000343
572 0.000344
573 0.000342
574 0.000341
575 0.000338
576 0.000334
577 0.000335
578 0.000336
579 0.000337
580 0.000338
581 0.000340
582 0.000341
583 0.000341
584 0.000339
585 0.000336
586 0.000337
587 0.000337
588 0.000333
589 0.000331
590 0.000328
591 0.000326
592 0.000325
593 0.000323
594 0.000320
595 0.000316
596 0.000314
597 0.000312
598 0.000311
599 0.000308
600 0.000305
601 0.000302
602 0.000299
603 0.000298
604 0.000297
605 0.000293
606 0.000292
607 0.000285
608 0.000281
609 0.000275
610 0.000273
611 0.000271
612 0.000269
613 0.000269
614 0.000268
615 0.000274
616 0.000277
617 0.000280
618 0.000285
619 0.000287
620 0.000290
621 0.000292
622 0.000291
623 0.000288
624 0.000283
625 0.000281
626 0.000281
627 0.000279
628 0.000280
629 0.000279
630 0.000278
631 0.000277
632 0.000276
633 0.000274
634 0.000270
635 0.000266
636 0.000263
637 0.000260
638 0.000260
639 0.000255
640 0.000253
641 0.000248
642 0.000244
643 0.000242
644 0.000240
645 0.000237
646 0.000235
647 0.000233
648 0.000233
649 0.000233
650 0.000234
651 0.000236
652 0.000239
653 0.000242
654 0.000244
655 0.000244
656 0.000241
657 0.000238
658 0.000236
659 0.000235
660 0.000234
661 0.000234
662 0.000236
663 0.000235
664 0.000234
665 0.000229
666 0.000225
667 0.000223
668 0.000219
669 0.000219
670 0.000214
671 0.000213
672 0.000211
673 0.000209
674 0.000209
675 0.000209
676 0.000209
677 0.000209
678 0.000211
679 0.000214
680 0.000216
681 0.000217
682 0.000219
683 0.000220
684 0.000222
685 0.000227
686 0.000234
687 0.000240
688 0.000243
689 0.000245
690 0.000248
691 0.000254
692 0.000262
693 0.000269
694 0.000273
695 0.000272
696 0.000273
697 0.000273
698 0.000272
699 0.000272
700 0.000270
701 0.000268
702 0.000264
703 0.000260
704 0.000253
705 0.000251
706 0.000246
707 0.000239
708 0.000233
709 0.000227
710 0.000224
711 0.000218
712 0.000216
713 0.000211
714 0.000206
715 0.000200
716 0.000194
717 0.000191
718 0.000189
719 0.000191
720 0.000192
721 0.000190
722 0.000189
723 0.000188
724 0.000187
725 0.000185
726 0.000183
727 0.000180
728 0.000177
729 0.000173
730 0.000171
731 0.000169
732 0.000169
733 0.000169
734 0.000169
735 0.000168
736 0.000165
737 0.000161
738 0.000160
739 0.000162
740 0.000162
741 0.000166
742 0.000169
743 0.000170
744 0.000173
745 0.000174
746 0.000177
747 0.000181
748 0.000183
749 0.000185
750 0.000186
751 0.000186
752 0.000187
753 0.000186
754 0.000185
755 0.000186
756 0.000186
757 0.000187
758 0.000188
759 0.000187
760 0.000188
761 0.000190
762 0.000191
763 0.000193
764 0.000193
765 0.000191
766 0.000188
767 0.000183
768 0.000179
769 0.000175
770 0.000173
771 0.000169
772 0.000167
773 0.000163
774 0.000159
775 0.000155
776 0.000150
777 0.000149
778 0.000147
779 0.000147
780 0.000147
781 0.000148
782 0.000150
783 0.000151
784 0.000149
785 0.000151
786 0.000152
787 0.000151
788 0.000151
789 0.000151
790 0.000150
791 0.000151
792 0.000154
793 0.000156
794 0.000158
795 0.000160
796 0.000161
797 0.000159
798 0.000158
799 0.000156
800 0.000156
801 0.000156
802 0.000157
803 0.000159
804 0.000159
805 0.000157
806 0.000155
807 0.000151
808 0.000148
809 0.000147
