# i correlation
1 0.001653
2 0.001605
3 0.001567
4 0.001526
5 0.001493
6 0.001467
7 0.001443
8 0.001426
9 0.001412
10 0.001399
11 0.001388
12 0.001374
13 0.001364
14 0.001352
15 0.001332
16 0.001310
17 0.001292
18 0.001277
19 0.001269
20 0.001260
21 0.001247
22 0.001236
23 0.001228
24 0.001220
25 0.001212
26 0.001202
27 0.001199
28 0.001201
29 0.001202
30 0.001203
31 0.001203
32 0.001198
33 0.001186
34 0.001174
35 0.001158
36 0.001144
37 0.001136
38 0.001132
39 0.001126
40 0.001117
41 0.001109
42 0.001103
43 0.001102
44 0.001104
45 0.001099
46 0.001096
47 0.001088
48 0.001084
49 0.001082
50 0.001075
51 0.001070
52 0.001068
53 0.001065
54 0.001060
55 0.001058
56 0.001059
57 0.001065
58 0.001064
59 0.001068
60 0.001070
61 0.001064
62 0.001060
63 0.001057
64 0.001047
65 0.001038
66 0.001024
67 0.001015
68 0.001011
69 0.001006
70 0.001003
71 0.001004
72 0.001002
73 0.000996
74 0.000990
75 0.000982
76 0.000974
77 0.000967
78 0.000955
79 0.000944
80 0.000930
81 0.000917
82 0.000907
83 0.000899
84 0.000893
85 0.000892
86 0.000894
87 0.000902
88 0.000908
89 0.000912
90 0.000913
91 0.000909
92 0.000903
93 0.000900
94 0.000894
95 0.000883
96 0.000878
97 0.000876
98 0.000877
99 0.000879
100 0.000876
101 0.000875
102 0.000874
103 0.000877
104 0.000878
105 0.000879
106 0.000876
107 0.000874
108 0.000869
109 0.000863
110 0.000855
111 0.000850
112 0.000847
113 0.000846
114 0.000847
115 0.000847
116 0.000849
117 0.000851
118 0.000857
119 0.000860
120 0.000857
121 0.000858
122 0.000856
123 0.000851
124 0.000846
125 0.000844
126 0.000838
127 0.000835
128 0.000834
129 0.000829
130 0.000823
131 0.000822
132 0.000824
133 0.000821
134 0.000818
135 0.000816
136 0.000809
137 0.000807
138 0.000802
139 0.000796
140 0.000790
141 0.000782
142 0.000779
143 0.000774
144 0.000765
145 0.000759
146 0.000754
147 0.000751
148 0.000747
149 0.000746
150 0.000747
151 0.000746
152 0.000750
153 0.000749
154 0.000745
155 0.000741
156 0.000740
157 0.000741
158 0.000745
159 0.000744
160 0.000743
161 0.000737
162 0.000732
163 0.000737
164 0.000743
165 0.000747
166 0.000750
167 0.000751
168 0.000750
169 0.000749
170 0.000747
171 0.000750
172 0.000753
173 0.000754
174 0.000753
175 0.000747
176 0.000743
177 0.000738
178 0.000739
179 0.000735
180 0.000730
181 0.000730
182 0.000728
183 0.000722
184 0.000717
185 0.000718
186 0.000718
187 0.000717
188 0.000719
189 0.000720
190 0.000725
191 0.000731
192 0.000733
193 0.000732
194 0.000732
195 0.000733
196 0.000734
197 0.000734
198 0.000731
199 0.000723
200 0.000714
201 0.000709
202 0.000706
203 0.000705
204 0.000711
205 0.000716
206 0.000714
207 0.000710
208 0.000703
209 0.000698
210 0.000695
211 0.000692
212 0.000687
213 0.000680
214 0.000672
215 0.000667
216 0.000666
217 0.000669
218 0.000673
219 0.000678
220 0.000680
221 0.000679
222 0.000677
223 0.000670
224 0.000663
225 0.000655
226 0.000645
227 0.000633
228 0.000626
229 0.000615
230 0.000609
231 0.000608
232 0.000599
233 0.000591
234 0.000585
235 0.000581
236 0.000575
237 0.000569
238 0.000565
239 0.000559
240 0.000558
241 0.000555
242 0.000548
243 0.000538
244 0.000527
245 0.000516
246 0.000507
247 0.000500
248 0.000491
249 0.000487
250 0.000489
251 0.000495
252 0.000493
253 0.000491
254 0.000492
255 0.000488
256 0.000485
257 0.000479
258 0.000472
259 0.000462
260 0.000454
261 0.000454
262 0.000458
263 0.000462
264 0.000466
265 0.000467
266 0.000466
267 0.000465
268 0.000466
269 0.000467
270 0.000470
271 0.000468
272 0.000464
273 0.000457
274 0.000454
275 0.000453
276 0.000451
277 0.000454
278 0.000455
279 0.000456
280 0.000457
281 0.000459
282 0.000461
283 0.000462
284 0.000463
285 0.000460
286 0.000453
287 0.000445
288 0.000431
289 0.000422
290 0.000416
291 0.000413
292 0.000415
293 0.000416
294 0.000417
295 0.000424
296 0.000424
297 0.000426
298 0.000430
299 0.000430
300 0.000434
301 0.000435
302 0.000433
303 0.000435
304 0.000437
305 0.000437
306 0.000442
307 0.000444
308 0.000447
309 0.000457
310 0.000465
311 0.000471
312 0.000476
313 0.000479
314 0.000483
315 0.000483
316 0.000478
317 0.000475
318 0.000478
319 0.000474
320 0.000470
321 0.000467
322 0.000465
323 0.000466
324 0.000467
325 0.000466
326 0.000464
327 0.000462
328 0.000462
329 0.000462
330 0.000462
331 0.000460
332 0.000457
333 0.000456
334 0.000453
335 0.000447
336 0.000442
337 0.000442
338 0.000445
339 0.000452
340 0.000459
341 0.000465
342 0.000469
343 0.000475
344 0.000477
345 0.000477
346 0.000472
347 0.000465
348 0.000457
349 0.000452
350 0.000445
351 0.000436
352 0.000435
353 0.000433
354 0.000434
355 0.000435
356 0.000439
357 0.000443
358 0.000444
359 0.000445
360 0.000444
361 0.000442
362 0.000440
363 0.000442
364 0.000437
365 0.000430
366 0.000426
367 0.000425
368 0.000427
369 0.000435
370 0.000443
371 0.000452
372 0.000460
373 0.000467
374 0.000470
375 0.000472
376 0.000472
377 0.000477
378 0.000475
379 0.000469
380 0.000463
381 0.000455
382 0.000449
383 0.000452
384 0.000453
385 0.000451
386 0.000454
387 0.000454
388 0.000458
389 0.000458
390 0.000456
391 0.000454
392 0.000450
393 0.000449
394 0.000447
395 0.000440
396 0.000436
397 0.000435
398 0.000434
399 0.000437
400 0.000439
401 0.000442
402 0.000444
403 0.000444
404 0.000440
405 0.000438
406 0.000436
407 0.000435
408 0.000438
409 0.000442
410 0.000441
411 0.000437
412 0.000431
413 0.000421
414 0.000413
415 0.000409
416 0.000408
417 0.000405
418 0.000401
419 0.000395
420 0.000389
421 0.000388
422 0.000392
423 0.000389
424 0.000385
425 0.000378
426 0.000372
427 0.000367
428 0.000365
429 0.000369
430 0.000369
431 0.000369
432 0.000376
433 0.000375
434 0.000378
435 0.000379
436 0.000380
437 0.000382
438 0.000380
439 0.000377
440 0.000373
441 0.000369
442 0.000366
443 0.000366
444 0.000361
445 0.000357
446 0.000360
447 0.000359
448 0.000354
449 0.000345
450 0.000336
451 0.000326
452 0.000317
453 0.000307
454 0.000298
455 0.000294
456 0.000291
457 0.000287
458 0.000285
459 0.000285
460 0.000285
461 0.000285
462 0.000287
463 0.000283
464 0.000278
465 0.000278
466 0.000279
467 0.000280
468 0.000282
469 0.000279
470 0.000279
471 0.000280
472 0.000277
473 0.000276
474 0.000278
475 0.000278
476 0.000279
477 0.000284
478 0.000290
479 0.000294
480 0.000299
481 0.000304
482 0.000309
483 0.000311
484 0.000313
485 0.000315
486 0.000317
487 0.000319
488 0.000318
489 0.000321
490 0.000319
491 0.000320
492 0.000324
493 0.000328
494 0.000333
495 0.000337
496 0.000345
497 0.000350
498 0.000353
499 0.000357
500 0.000356
501 0.000351
502 0.000350
503 0.000351
504 0.000350
505 0.000351
506 0.000352
507 0.000353
508 0.000356
509 0.000360
510 0.000359
511 0.000358
512 0.000357
513 0.000355
514 0.000352
515 0.000356
516 0.000359
517 0.000360
518 0.000361
519 0.000357
520 0.000352
521 0.000344
522 0.000338
523 0.000333
524 0.000327
525 0.000322
526 0.000323
527 0.000324
528 0.000326
529 0.000325
530 0.000326
531 0.000326
532 0.000326
533 0.000327
534 0.000328
535 0.000332
536 0.000336
537 0.000342
538 0.000345
539 0.000344
540 0.000345
541 0.000345
542 0.000343
543 0.000344
544 0.000344
545 0.000342
546 0.000343
547 0.000343
548 0.000344
549 0.000348
550 0.000350
551 0.000351
552 0.000352
553 0.000349
554 0.000347
555 0.000346
556 0.000343
557 0.000338
558 0.000335
559 0.000335
560 0.000336
561 0.000334
562 0.000333
563 0.000328
564 0.000326
565 0.000325
566 0.000322
567 0.000320
568 0.000321
569 0.000320
570 0.000319
571 0.000314
572 0.000311
573 0.000311
574 0.000315
575 0.000317
576 0.000318
577 0.000316
578 0.000316
579 0.000317
580 0.000317
581 0.000318
582 0.000318
583 0.000317
584 0.000317
585 0.000315
586 0.000312
587 0.000309
588 0.000306
589 0.000303
590 0.000299
591 0.000291
592 0.000285
593 0.000278
594 0.000270
595 0.000267
596 0.000262
597 0.000260
598 0.000261
599 0.000260
600 0.000254
601 0.000247
602 0.000241
603 0.000235
604 0.000230
605 0.000225
606 0.000221
607 0.000219
608 0.000214
609 0.000208
610 0.000205
611 0.000204
612 0.000202
613 0.000201
614 0.000199
615 0.000198
616 0.000194
617 0.000193
618 0.000189
619 0.000186
620 0.000186
621 0.000183
622 0.000179
623 0.000178
624 0.000179
625 0.000180
626 0.000181
627 0.000187
628 0.000191
629 0.000194
630 0.000195
631 0.000196
632 0.000195
633 0.000193
634 0.000190
635 0.000188
636 0.000187
637 0.000188
638 0.000189
639 0.000190
640 0.000191
641 0.000192
642 0.000191
643 0.000189
644 0.000185
645 0.000179
646 0.000172
647 0.000168
648 0.000166
649 0.000165
650 0.000167
651 0.000171
652 0.000176
653 0.000179
654 0.000179
655 0.000179
656 0.000178
657 0.000176
658 0.000174
659 0.000171
660 0.000168
661 0.000164
662 0.000161
663 0.000162
664 0.000158
665 0.000155
666 0.000151
667 0.000150
668 0.000145
669 0.000143
670 0.000141
671 0.000138
672 0.000138
673 0.000136
674 0.000134
675 0.000133
676 0.000131
677 0.000130
678 0.000130
679 0.000128
680 0.000128
681 0.000128
682 0.000127
683 0.000131
684 0.000133
685 0.000134
686 0.000138
687 0.000145
688 0.000149
689 0.000151
690 0.000153
691 0.000151
692 0.000150
693 0.000150
694 0.000151
695 0.000148
696 0.000145
697 0.000146
698 0.000146
699 0.000146
700 0.000150
701 0.000158
702 0.000166
703 0.000174
704 0.000182
705 0.000188
706 0.000195
707 0.000202
708 0.000208
709 0.000217
710 0.000219
711 0.000222
712 0.000225
713 0.000228
714 0.000230
715 0.000232
716 0.000237
717 0.000242
718 0.000245
719 0.000243
720 0.000240
721 0.000237
722 0.000236
723 0.000231
724 0.000228
725 0.000223
726 0.000220
727 0.000217
728 0.000214
729 0.000211
730 0.000208
731 0.000206
732 0.000205
733 0.000202
734 0.000197
735 0.000191
736 0.000186
737 0.000184
738 0.000182
739 0.000180
740 0.000182
741 0.000183
742 0.000184
743 0.000184
744 0.000185
745 0.000184
746 0.000188
747 0.000193
748 0.000197
749 0.000200
750 0.000206
751 0.000209
752 0.000211
753 0.000208
754 0.000206
755 0.000205
756 0.000203
757 0.000203
758 0.000202
759 0.000200
760 0.000201
761 0.000203
762 0.000204
763 0.000201
764 0.000201
765 0.000199
766 0.000198
767 0.000194
768 0.000189
769 0.000188
770 0.000186
771 0.000187
772 0.000186
773 0.000182
774 0.000180
775 0.000177
776 0.000174
777 0.000174
778 0.000173
779 0.000173
780 0.000176
781 0.000179
782 0.000178
783 0.000172
784 0.000169
785 0.000165
786 0.000159
787 0.000151
788 0.000145
789 0.000138
790 0.000133
791 0.000128
792 0.000123
793 0.000118
794 0.000115
795 0.000113
796 0.000110
797 0.000106
798 0.000101
799 0.000098
800 0.000094
801 0.000091
802 0.000089
803 0.000088
804 0.000084
805 0.000083
806 0.000082
807 0.000080
808 0.000081
809 0.000083
