# i correlation
1 0.001913
2 0.001858
3 0.001815
4 0.001782
5 0.001757
6 0.001733
7 0.001712
8 0.001692
9 0.001672
10 0.001654
11 0.001642
12 0.001628
13 0.001611
14 0.001598
15 0.001589
16 0.001585
17 0.001581
18 0.001574
19 0.001565
20 0.001552
21 0.001539
22 0.001537
23 0.001538
24 0.001541
25 0.001534
26 0.001522
27 0.001515
28 0.001507
29 0.001499
30 0.001497
31 0.001493
32 0.001493
33 0.001490
34 0.001490
35 0.001491
36 0.001489
37 0.001483
38 0.001475
39 0.001467
40 0.001462
41 0.001453
42 0.001449
43 0.001449
44 0.001445
45 0.001437
46 0.001433
47 0.001429
48 0.001423
49 0.001411
50 0.001405
51 0.001401
52 0.001393
53 0.001390
54 0.001392
55 0.001399
56 0.001398
57 0.001394
58 0.001390
59 0.001385
60 0.001378
61 0.001369
62 0.001362
63 0.001352
64 0.001344
65 0.001337
66 0.001332
67 0.001331
68 0.001330
69 0.001325
70 0.001326
71 0.001324
72 0.001318
73 0.001315
74 0.001313
75 0.001307
76 0.001299
77 0.001290
78 0.001284
79 0.001274
80 0.001265
81 0.001253
82 0.001245
83 0.001240
84 0.001236
85 0.001235
86 0.001228
87 0.001219
88 0.001214
89 0.001210
90 0.001207
91 0.001205
92 0.001204
93 0.001203
94 0.001212
95 0.001217
96 0.001216
97 0.001213
98 0.001212
99 0.001216
100 0.001218
101 0.001216
102 0.001210
103 0.001205
104 0.001198
105 0.001197
106 0.001194
107 0.001189
108 0.001184
109 0.001175
110 0.001172
111 0.001170
112 0.001163
113 0.001151
114 0.001142
115 0.001134
116 0.001130
117 0.001130
118 0.001134
119 0.001136
120 0.001137
121 0.001138
122 0.001142
123 0.001143
124 0.001138
125 0.001135
126 0.001128
127 0.001124
128 0.001126
129 0.001129
130 0.001131
131 0.001135
132 0.001135
133 0.001131
134 0.001125
135 0.001122
136 0.001116
137 0.001110
138 0.001109
139 0.001105
140 0.001098
141 0.001091
142 0.001082
143 0.001076
144 0.001065
145 0.001052
146 0.001040
147 0.001036
148 0.001029
149 0.001021
150 0.001014
151 0.001010
152 0.001006
153 0.001002
154 0.001004
155 0.001010
156 0.001015
157 0.001011
158 0.001008
159 0.001003
160 0.000999
161 0.000996
162 0.000990
163 0.000982
164 0.000975
165 0.000970
166 0.000972
167 0.000975
168 0.000980
169 0.000977
170 0.000977
171 0.000976
172 0.000974
173 0.000972
174 0.000970
175 0.000968
176 0.000963
177 0.000956
178 0.000956
179 0.000952
180 0.000945
181 0.000933
182 0.000919
183 0.000907
184 0.000899
185 0.000896
186 0.000890
187 0.000882
188 0.000873
189 0.000864
190 0.000861
191 0.000855
192 0.000849
193 0.000846
194 0.000846
195 0.000847
196 0.000840
197 0.000829
198 0.000818
199 0.000806
200 0.000794
201 0.000780
202 0.000776
203 0.000774
204 0.000774
205 0.000772
206 0.000773
207 0.000772
208 0.000773
209 0.000775
210 0.000778
211 0.000781
212 0.000777
213 0.000777
214 0.000775
215 0.000769
216 0.000763
217 0.000767
218 0.000765
219 0.000765
220 0.000758
221 0.000755
222 0.000755
223 0.000751
224 0.000744
225 0.000741
226 0.000739
227 0.000736
228 0.000734
229 0.000732
230 0.000726
231 0.000717
232 0.000710
233 0.000706
234 0.000700
235 0.000691
236 0.000686
237 0.000678
238 0.000674
239 0.000666
240 0.000656
241 0.000656
242 0.000657
243 0.000656
244 0.000650
245 0.000642
246 0.000642
247 0.000639
248 0.000636
249 0.000633
250 0.000635
251 0.000638
252 0.000642
253 0.000645
254 0.000647
255 0.000649
256 0.000648
257 0.000650
258 0.000651
259 0.000651
260 0.000654
261 0.000660
262 0.000657
263 0.000653
264 0.000652
265 0.000657
266 0.000666
267 0.000667
268 0.000664
269 0.000663
270 0.000659
271 0.000652
272 0.000645
273 0.000641
274 0.000639
275 0.000635
276 0.000634
277 0.000630
278 0.000627
279 0.000627
280 0.000629
281 0.000634
282 0.000637
283 0.000643
284 0.000649
285 0.000653
286 0.000654
287 0.000652
288 0.000650
289 0.000652
290 0.000655
291 0.000660
292 0.000664
293 0.000662
294 0.000662
295 0.000660
296 0.000660
297 0.000653
298 0.000647
299 0.000643
300 0.000638
301 0.000633
302 0.000627
303 0.000621
304 0.000616
305 0.000618
306 0.000623
307 0.000626
308 0.000620
309 0.000614
310 0.000613
311 0.000616
312 0.000614
313 0.000612
314 0.000610
315 0.000611
316 0.000615
317 0.000618
318 0.000617
319 0.000610
320 0.000601
321 0.000597
322 0.000597
323 0.000596
324 0.000599
325 0.000596
326 0.000597
327 0.000603
328 0.000611
329 0.000616
330 0.000618
331 0.000617
332 0.000615
333 0.000613
334 0.000613
335 0.000610
336 0.000605
337 0.000597
338 0.000591
339 0.000589
340 0.000591
341 0.000598
342 0.000604
343 0.000606
344 0.000608
345 0.000607
346 0.000613
347 0.000618
348 0.000620
349 0.000624
350 0.000629
351 0.000632
352 0.000635
353 0.000635
354 0.000631
355 0.000623
356 0.000614
357 0.000605
358 0.000599
359 0.000589
360 0.000588
361 0.000588
362 0.000585
363 0.000579
364 0.000576
365 0.000574
366 0.000574
367 0.000569
368 0.000564
369 0.000562
370 0.000553
371 0.000543
372 0.000536
373 0.000530
374 0.000528
375 0.000527
376 0.000526
377 0.000521
378 0.000514
379 0.000509
380 0.000509
381 0.000510
382 0.000512
383 0.000515
384 0.000520
385 0.000531
386 0.000540
387 0.000546
388 0.000551
389 0.000556
390 0.000561
391 0.000563
392 0.000564
393 0.000565
394 0.000562
395 0.000556
396 0.000549
397 0.000548
398 0.000548
399 0.000550
400 0.000552
401 0.000556
402 0.000555
403 0.000551
404 0.000552
405 0.000548
406 0.000551
407 0.000550
408 0.000547
409 0.000543
410 0.000534
411 0.000527
412 0.000527
413 0.000525
414 0.000522
415 0.000521
416 0.000526
417 0.000533
418 0.000537
419 0.000540
420 0.000536
421 0.000536
422 0.000537
423 0.000542
424 0.000545
425 0.000544
426 0.000540
427 0.000536
428 0.000532
429 0.000532
430 0.000530
431 0.000529
432 0.000526
433 0.000523
434 0.000519
435 0.000520
436 0.000524
437 0.000523
438 0.000519
439 0.000517
440 0.000517
441 0.000518
442 0.000516
443 0.000517
444 0.000518
445 0.000516
446 0.000519
447 0.000522
448 0.000525
449 0.000526
450 0.000526
451 0.000525
452 0.000528
453 0.000528
454 0.000529
455 0.000535
456 0.000538
457 0.000538
458 0.000537
459 0.000541
460 0.000548
461 0.000553
462 0.000556
463 0.000563
464 0.000569
465 0.000574
466 0.000576
467 0.000575
468 0.000576
469 0.000574
470 0.000573
471 0.000578
472 0.000585
473 0.000588
474 0.000591
475 0.000592
476 0.000590
477 0.000587
478 0.000584
479 0.000587
480 0.000589
481 0.000587
482 0.000585
483 0.000587
484 0.000588
485 0.000590
486 0.000589
487 0.000588
488 0.000585
489 0.000585
490 0.000586
491 0.000590
492 0.000588
493 0.000579
494 0.000573
495 0.000569
496 0.000562
497 0.000557
498 0.000554
499 0.000548
500 0.000541
501 0.000533
502 0.000528
503 0.000528
504 0.000526
505 0.000522
506 0.000519
507 0.000520
508 0.000521
509 0.000526
510 0.000525
511 0.000526
512 0.000527
513 0.000527
514 0.000527
515 0.000525
516 0.000523
517 0.000526
518 0.000527
519 0.000530
520 0.000533
521 0.000534
522 0.000537
523 0.000536
524 0.000535
525 0.000537
526 0.000538
527 0.000539
528 0.000542
529 0.000537
530 0.000531
531 0.000524
532 0.000517
533 0.000510
534 0.000503
535 0.000499
536 0.000492
537 0.000483
538 0.000475
539 0.000468
540 0.000462
541 0.000461
542 0.000460
543 0.000455
544 0.000454
545 0.000451
546 0.000449
547 0.000449
548 0.000445
549 0.000447
550 0.000446
551 0.000442
552 0.000438
553 0.000435
554 0.000431
555 0.000429
556 0.000421
557 0.000416
558 0.000412
559 0.000410
560 0.000410
561 0.000409
562 0.000408
563 0.000403
564 0.000398
565 0.000394
566 0.000391
567 0.000389
568 0.000386
569 0.000380
570 0.000375
571 0.000374
572 0.000373
573 0.000372
574 0.000371
575 0.000373
576 0.000374
577 0.000378
578 0.000383
579 0.000384
580 0.000384
581 0.000377
582 0.000372
583 0.000368
584 0.000361
585 0.000355
586 0.000349
587 0.000345
588 0.000336
589 0.000331
590 0.000327
591 0.000325
592 0.000324
593 0.000320
594 0.000318
595 0.000316
596 0.000314
597 0.000314
598 0.000312
599 0.000309
600 0.000304
601 0.000302
602 0.000304
603 0.000308
604 0.000310
605 0.000307
606 0.000302
607 0.000297
608 0.000293
609 0.000291
610 0.000291
611 0.000293
612 0.000297
613 0.000300
614 0.000302
615 0.000304
616 0.000303
617 0.000304
618 0.000305
619 0.000306
620 0.000307
621 0.000310
622 0.000309
623 0.000312
624 0.000310
625 0.000305
626 0.000305
627 0.000306
628 0.000304
629 0.000304
630 0.000302
631 0.000295
632 0.000287
633 0.000284
634 0.000284
635 0.000284
636 0.000286
637 0.000287
638 0.000289
639 0.000291
640 0.000292
641 0.000291
642 0.000292
643 0.000289
644 0.000284
645 0.000284
646 0.000286
647 0.000287
648 0.000289
649 0.000290
650 0.000294
651 0.000297
652 0.000300
653 0.000303
654 0.000303
655 0.000299
656 0.000297
657 0.000294
658 0.000294
659 0.000294
660 0.000296
661 0.000296
662 0.000292
663 0.000286
664 0.000276
665 0.000269
666 0.000260
667 0.000257
668 0.000254
669 0.000256
670 0.000256
671 0.000253
672 0.000249
673 0.000246
674 0.000242
675 0.000239
676 0.000236
677 0.000234
678 0.000234
679 0.000234
680 0.000231
681 0.000230
682 0.000235
683 0.000239
684 0.000241
685 0.000242
686 0.000239
687 0.000233
688 0.000231
689 0.000231
690 0.000232
691 0.000233
692 0.000234
693 0.000236
694 0.000236
695 0.000236
696 0.000237
697 0.000240
698 0.000242
699 0.000241
700 0.000240
701 0.000237
702 0.000238
703 0.000237
704 0.000232
705 0.000227
706 0.000221
707 0.000216
708 0.000216
709 0.000212
710 0.000208
711 0.000199
712 0.000191
713 0.000186
714 0.000180
715 0.000179
716 0.000179
717 0.000181
718 0.000180
719 0.000178
720 0.000175
721 0.000172
722 0.000172
723 0.000169
724 0.000164
725 0.000158
726 0.000155
727 0.000153
728 0.000151
729 0.000149
730 0.000147
731 0.000143
732 0.000139
733 0.000136
734 0.000135
735 0.000135
736 0.000135
737 0.000137
738 0.000138
739 0.000137
740 0.000135
741 0.000132
742 0.000130
743 0.000128
744 0.000124
745 0.000125
746 0.000131
747 0.000138
748 0.000143
749 0.000146
750 0.000151
751 0.000153
752 0.000157
753 0.000160
754 0.000161
755 0.000165
756 0.000167
757 0.000169
758 0.000169
759 0.000169
760 0.000166
761 0.000164
762 0.000163
763 0.000164
764 0.000165
765 0.000164
766 0.000161
767 0.000159
768 0.000159
769 0.000157
770 0.000160
771 0.000160
772 0.000158
773 0.000160
774 0.000161
775 0.000161
776 0.000156
777 0.000154
778 0.000150
779 0.000149
780 0.000148
781 0.000150
782 0.000151
783 0.000152
784 0.000149
785 0.000145
786 0.000142
787 0.000142
788 0.000143
789 0.000142
790 0.000145
791 0.000149
792 0.000153
793 0.000159
794 0.000164
795 0.000166
796 0.000165
797 0.000168
798 0.000171
799 0.000173
800 0.000173
801 0.000173
802 0.000173
803 0.000167
804 0.000162
805 0.000162
806 0.000162
807 0.000164
808 0.000164
809 0.000162
