# i correlation
1 0.001581
2 0.001541
3 0.001503
4 0.001465
5 0.001429
6 0.001394
7 0.001363
8 0.001334
9 0.001311
10 0.001292
11 0.001272
12 0.001261
13 0.001247
14 0.001233
15 0.001221
16 0.001211
17 0.001205
18 0.001206
19 0.001202
20 0.001198
21 0.001192
22 0.001188
23 0.001181
24 0.001171
25 0.001160
26 0.001150
27 0.001143
28 0.001133
29 0.001120
30 0.001111
31 0.001102
32 0.001092
33 0.001087
34 0.001084
35 0.001080
36 0.001077
37 0.001071
38 0.001063
39 0.001051
40 0.001048
41 0.001045
42 0.001042
43 0.001037
44 0.001034
45 0.001031
46 0.001023
47 0.001016
48 0.001012
49 0.001008
50 0.001006
51 0.001004
52 0.001004
53 0.001005
54 0.001010
55 0.001013
56 0.001017
57 0.001020
58 0.001022
59 0.001017
60 0.001015
61 0.001012
62 0.001011
63 0.001005
64 0.000994
65 0.000986
66 0.000978
67 0.000974
68 0.000966
69 0.000962
70 0.000957
71 0.000952
72 0.000953
73 0.000949
74 0.000944
75 0.000939
76 0.000934
77 0.000932
78 0.000929
79 0.000924
80 0.000922
81 0.000922
82 0.000912
83 0.000906
84 0.000895
85 0.000886
86 0.000875
87 0.000868
88 0.000865
89 0.000863
90 0.000863
91 0.000865
92 0.000868
93 0.000870
94 0.000872
95 0.000873
96 0.000871
97 0.000871
98 0.000870
99 0.000865
100 0.000862
101 0.000857
102 0.000847
103 0.000835
104 0.000821
105 0.000808
106 0.000796
107 0.000784
108 0.000779
109 0.000776
110 0.000774
111 0.000775
112 0.000777
113 0.000778
114 0.000781
115 0.000783
116 0.000788
117 0.000789
118 0.000788
119 0.000785
120 0.000781
121 0.000780
122 0.000774
123 0.000770
124 0.000761
125 0.000755
126 0.000743
127 0.000737
128 0.000729
129 0.000720
130 0.000714
131 0.000705
132 0.000700
133 0.000698
134 0.000695
135 0.000698
136 0.000699
137 0.000698
138 0.000696
139 0.000699
140 0.000695
141 0.000689
142 0.000685
143 0.000681
144 0.000677
145 0.000676
146 0.000675
147 0.000673
148 0.000674
149 0.000676
150 0.000678
151 0.000677
152 0.000675
153 0.000678
154 0.000679
155 0.000685
156 0.000689
157 0.000700
158 0.000706
159 0.000713
160 0.000716
161 0.000718
162 0.000716
163 0.000713
164 0.000711
165 0.000704
166 0.000701
167 0.000697
168 0.000692
169 0.000693
170 0.000690
171 0.000685
172 0.000677
173 0.000676
174 0.000672
175 0.000670
176 0.000670
177 0.000672
178 0.000673
179 0.000676
180 0.000675
181 0.000676
182 0.000677
183 0.000679
184 0.000678
185 0.000676
186 0.000671
187 0.000668
188 0.000661
189 0.000657
190 0.000650
191 0.000646
192 0.000643
193 0.000640
194 0.000636
195 0.000628
196 0.000621
197 0.000621
198 0.000612
199 0.000611
200 0.000601
201 0.000598
202 0.000597
203 0.000591
204 0.000588
205 0.000583
206 0.000582
207 0.000583
208 0.000579
209 0.000575
210 0.000573
211 0.000575
212 0.000579
213 0.000585
214 0.000590
215 0.000595
216 0.000599
217 0.000601
218 0.000600
219 0.000599
220 0.000598
221 0.000598
222 0.000596
223 0.000592
224 0.000589
225 0.000585
226 0.000579
227 0.000577
228 0.000578
229 0.000580
230 0.000586
231 0.000590
232 0.000594
233 0.000601
234 0.000605
235 0.000604
236 0.000608
237 0.000609
238 0.000608
239 0.000606
240 0.000603
241 0.000597
242 0.000597
243 0.000590
244 0.000579
245 0.000568
246 0.000558
247 0.000550
248 0.000544
249 0.000544
250 0.000541
251 0.000543
252 0.000542
253 0.000539
254 0.000534
255 0.000532
256 0.000530
257 0.000531
258 0.000533
259 0.000536
260 0.000542
261 0.000547
262 0.000551
263 0.000553
264 0.000558
265 0.000563
266 0.000567
267 0.000566
268 0.000563
269 0.000564
270 0.000566
271 0.000568
272 0.000570
273 0.000574
274 0.000579
275 0.000584
276 0.000591
277 0.000591
278 0.000596
279 0.000595
280 0.000592
281 0.000582
282 0.000577
283 0.000570
284 0.000566
285 0.000563
286 0.000560
287 0.000556
288 0.000550
289 0.000539
290 0.000530
291 0.000517
292 0.000504
293 0.000496
294 0.000488
295 0.000479
296 0.000474
297 0.000470
298 0.000464
299 0.000460
300 0.000455
301 0.000446
302 0.000439
303 0.000435
304 0.000428
305 0.000428
306 0.000426
307 0.000425
308 0.000425
309 0.000425
310 0.000424
311 0.000423
312 0.000420
313 0.000418
314 0.000418
315 0.000418
316 0.000415
317 0.000411
318 0.000411
319 0.000410
320 0.000410
321 0.000407
322 0.000403
323 0.000401
324 0.000400
325 0.000395
326 0.000392
327 0.000392
328 0.000391
329 0.000387
330 0.000388
331 0.000392
332 0.000398
333 0.000403
334 0.000411
335 0.000413
336 0.000417
337 0.000419
338 0.000421
339 0.000422
340 0.000423
341 0.000426
342 0.000433
343 0.000440
344 0.000440
345 0.000440
346 0.000438
347 0.000438
348 0.000435
349 0.000430
350 0.000423
351 0.000415
352 0.000408
353 0.000402
354 0.000396
355 0.000389
356 0.000383
357 0.000375
358 0.000367
359 0.000360
360 0.000355
361 0.000354
362 0.000350
363 0.000346
364 0.000341
365 0.000343
366 0.000342
367 0.000341
368 0.000344
369 0.000344
370 0.000344
371 0.000347
372 0.000348
373 0.000348
374 0.000348
375 0.000346
376 0.000344
377 0.000346
378 0.000347
379 0.000344
380 0.000342
381 0.000338
382 0.000332
383 0.000326
384 0.000320
385 0.000316
386 0.000315
387 0.000316
388 0.000319
389 0.000317
390 0.000319
391 0.000320
392 0.000319
393 0.000317
394 0.000313
395 0.000311
396 0.000309
397 0.000306
398 0.000305
399 0.000309
400 0.000311
401 0.000311
402 0.000305
403 0.000303
404 0.000298
405 0.000295
406 0.000295
407 0.000292
408 0.000292
409 0.000292
410 0.000292
411 0.000293
412 0.000295
413 0.000298
414 0.000300
415 0.000303
416 0.000302
417 0.000302
418 0.000301
419 0.000301
420 0.000302
421 0.000305
422 0.000305
423 0.000308
424 0.000310
425 0.000312
426 0.000317
427 0.000319
428 0.000323
429 0.000326
430 0.000326
431 0.000324
432 0.000323
433 0.000321
434 0.000317
435 0.000316
436 0.000316
437 0.000311
438 0.000310
439 0.000311
440 0.000310
441 0.000312
442 0.000315
443 0.000320
444 0.000324
445 0.000326
446 0.000327
447 0.000326
448 0.000329
449 0.000331
450 0.000329
451 0.000325
452 0.000319
453 0.000314
454 0.000312
455 0.000313
456 0.000310
457 0.000310
458 0.000306
459 0.000302
460 0.000295
461 0.000292
462 0.000290
463 0.000291
464 0.000292
465 0.000294
466 0.000300
467 0.000306
468 0.000307
469 0.000310
470 0.000315
471 0.000315
472 0.000316
473 0.000313
474 0.000310
475 0.000307
476 0.000305
477 0.000302
478 0.000293
479 0.000285
480 0.000275
481 0.000267
482 0.000263
483 0.000259
484 0.000258
485 0.000257
486 0.000256
487 0.000257
488 0.000261
489 0.000265
490 0.000267
491 0.000269
492 0.000271
493 0.000273
494 0.000276
495 0.000278
496 0.000277
497 0.000275
498 0.000275
499 0.000274
500 0.000277
501 0.000283
502 0.000288
503 0.000291
504 0.000296
505 0.000296
506 0.000299
507 0.000302
508 0.000304
509 0.000303
510 0.000301
511 0.000301
512 0.000300
513 0.000298
514 0.000292
515 0.000286
516 0.000279
517 0.000276
518 0.000271
519 0.000265
520 0.000263
521 0.000261
522 0.000263
523 0.000262
524 0.000264
525 0.000266
526 0.000270
527 0.000273
528 0.000272
529 0.000272
530 0.000272
531 0.000271
532 0.000268
533 0.000265
534 0.000261
535 0.000256
536 0.000255
537 0.000252
538 0.000253
539 0.000257
540 0.000257
541 0.000255
542 0.000256
543 0.000253
544 0.000254
545 0.000255
546 0.000258
547 0.000259
548 0.000263
549 0.000268
550 0.000273
551 0.000276
552 0.000279
553 0.000279
554 0.000281
555 0.000283
556 0.000286
557 0.000291
558 0.000294
559 0.000294
560 0.000295
561 0.000292
562 0.000292
563 0.000291
564 0.000292
565 0.000293
566 0.000296
567 0.000297
568 0.000296
569 0.000291
570 0.000288
571 0.000282
572 0.000278
573 0.000272
574 0.000264
575 0.000258
576 0.000252
577 0.000244
578 0.000238
579 0.000234
580 0.000230
581 0.000226
582 0.000225
583 0.000223
584 0.000228
585 0.000233
586 0.000236
587 0.000239
588 0.000237
589 0.000236
590 0.000234
591 0.000231
592 0.000229
593 0.000227
594 0.000226
595 0.000220
596 0.000216
597 0.000209
598 0.000204
599 0.000200
600 0.000196
601 0.000192
602 0.000194
603 0.000191
604 0.000189
605 0.000189
606 0.000189
607 0.000192
608 0.000194
609 0.000199
610 0.000204
611 0.000208
612 0.000216
613 0.000219
614 0.000227
615 0.000230
616 0.000234
617 0.000236
618 0.000235
619 0.000236
620 0.000238
621 0.000240
622 0.000242
623 0.000244
624 0.000247
625 0.000248
626 0.000249
627 0.000250
628 0.000247
629 0.000246
630 0.000242
631 0.000237
632 0.000231
633 0.000222
634 0.000214
635 0.000206
636 0.000199
637 0.000193
638 0.000185
639 0.000178
640 0.000173
641 0.000168
642 0.000167
643 0.000166
644 0.000165
645 0.000167
646 0.000168
647 0.000172
648 0.000175
649 0.000174
650 0.000176
651 0.000178
652 0.000180
653 0.000181
654 0.000184
655 0.000185
656 0.000186
657 0.000189
658 0.000188
659 0.000188
660 0.000185
661 0.000184
662 0.000180
663 0.000176
664 0.000177
665 0.000178
666 0.000179
667 0.000180
668 0.000182
669 0.000180
670 0.000178
671 0.000179
672 0.000177
673 0.000173
674 0.000170
675 0.000168
676 0.000167
677 0.000167
678 0.000169
679 0.000170
680 0.000169
681 0.000173
682 0.000177
683 0.000182
684 0.000189
685 0.000196
686 0.000205
687 0.000213
688 0.000221
689 0.000230
690 0.000234
691 0.000239
692 0.000240
693 0.000241
694 0.000240
695 0.000239
696 0.000233
697 0.000231
698 0.000226
699 0.000224
700 0.000221
701 0.000220
702 0.000221
703 0.000222
704 0.000224
705 0.000228
706 0.000231
707 0.000237
708 0.000245
709 0.000253
710 0.000257
711 0.000259
712 0.000260
713 0.000258
714 0.000259
715 0.000262
716 0.000260
717 0.000257
718 0.000254
719 0.000253
720 0.000250
721 0.000248
722 0.000243
723 0.000239
724 0.000236
725 0.000234
726 0.000235
727 0.000238
728 0.000242
729 0.000245
730 0.000245
731 0.000247
732 0.000246
733 0.000246
734 0.000246
735 0.000244
736 0.000240
737 0.000237
738 0.000234
739 0.000233
740 0.000233
741 0.000235
742 0.000237
743 0.000238
744 0.000238
745 0.000241
746 0.000242
747 0.000242
748 0.000240
749 0.000241
750 0.000239
751 0.000237
752 0.000237
753 0.000237
754 0.000234
755 0.000232
756 0.000230
757 0.000225
758 0.000217
759 0.000211
760 0.000206
761 0.000201
762 0.000198
763 0.000196
764 0.000195
765 0.000196
766 0.000197
767 0.000200
768 0.000199
769 0.000205
770 0.000209
771 0.000211
772 0.000211
773 0.000212
774 0.000213
775 0.000213
776 0.000212
777 0.000212
778 0.000210
779 0.000208
780 0.000207
781 0.000207
782 0.000209
783 0.000212
784 0.000214
785 0.000216
786 0.000220
787 0.000226
788 0.000231
789 0.000236
790 0.000240
791 0.000245
792 0.000245
793 0.000247
794 0.000244
795 0.000239
796 0.000235
797 0.000231
798 0.000227
799 0.000223
800 0.000220
801 0.000218
802 0.000216
803 0.000216
804 0.000216
805 0.000214
806 0.000214
807 0.000212
808 0.000210
809 0.000210
