# i correlation
1 0.001663
2 0.001612
3 0.001571
4 0.001536
5 0.001501
6 0.001470
7 0.001450
8 0.001429
9 0.001409
10 0.001389
11 0.001372
12 0.001362
13 0.001348
14 0.001337
15 0.001321
16 0.001313
17 0.001306
18 0.001293
19 0.001275
20 0.001257
21 0.001242
22 0.001227
23 0.001212
24 0.001201
25 0.001193
26 0.001190
27 0.001189
28 0.001189
29 0.001189
30 0.001189
31 0.001190
32 0.001188
33 0.001194
34 0.001196
35 0.001199
36 0.001195
37 0.001184
38 0.001173
39 0.001165
40 0.001158
41 0.001146
42 0.001127
43 0.001112
44 0.001099
45 0.001091
46 0.001085
47 0.001086
48 0.001080
49 0.001073
50 0.001067
51 0.001069
52 0.001071
53 0.001068
54 0.001062
55 0.001058
56 0.001050
57 0.001040
58 0.001033
59 0.001033
60 0.001025
61 0.001023
62 0.001018
63 0.001013
64 0.001009
65 0.001005
66 0.001003
67 0.001000
68 0.000999
69 0.001001
70 0.000999
71 0.000995
72 0.000990
73 0.000987
74 0.000990
75 0.000990
76 0.000988
77 0.000986
78 0.000982
79 0.000975
80 0.000971
81 0.000970
82 0.000965
83 0.000965
84 0.000968
85 0.000963
86 0.000961
87 0.000954
88 0.000952
89 0.000943
90 0.000934
91 0.000928
92 0.000928
93 0.000924
94 0.000920
95 0.000920
96 0.000918
97 0.000915
98 0.000908
99 0.000899
100 0.000890
101 0.000883
102 0.000876
103 0.000869
104 0.000858
105 0.000852
106 0.000848
107 0.000842
108 0.000835
109 0.000831
110 0.000829
111 0.000830
112 0.000830
113 0.000828
114 0.000828
115 0.000829
116 0.000828
117 0.000826
118 0.000823
119 0.000818
120 0.000819
121 0.000827
122 0.000830
123 0.000830
124 0.000829
125 0.000828
126 0.000822
127 0.000813
128 0.000807
129 0.000806
130 0.000804
131 0.000799
132 0.000790
133 0.000782
134 0.000772
135 0.000759
136 0.000757
137 0.000756
138 0.000756
139 0.000757
140 0.000752
141 0.000748
142 0.000752
143 0.000748
144 0.000744
145 0.000746
146 0.000746
147 0.000745
148 0.000743
149 0.000743
150 0.000744
151 0.000745
152 0.000750
153 0.000757
154 0.000766
155 0.000771
156 0.000776
157 0.000779
158 0.000786
159 0.000789
160 0.000791
161 0.000789
162 0.000782
163 0.000774
164 0.000769
165 0.000764
166 0.000761
167 0.000762
168 0.000761
169 0.000760
170 0.000757
171 0.000754
172 0.000754
173 0.000752
174 0.000746
175 0.000746
176 0.000748
177 0.000744
178 0.000740
179 0.000735
180 0.000732
181 0.000729
182 0.000724
183 0.000721
184 0.000720
185 0.000718
186 0.000717
187 0.000717
188 0.000711
189 0.000711
190 0.000712
191 0.000711
192 0.000705
193 0.000703
194 0.000704
195 0.000702
196 0.000694
197 0.000686
198 0.000679
199 0.000672
200 0.000670
201 0.000666
202 0.000659
203 0.000655
204 0.000653
205 0.000655
206 0.000652
207 0.000655
208 0.000659
209 0.000655
210 0.000645
211 0.000638
212 0.000635
213 0.000630
214 0.000623
215 0.000618
216 0.000615
217 0.000616
218 0.000615
219 0.000613
220 0.000614
221 0.000611
222 0.000612
223 0.000613
224 0.000612
225 0.000613
226 0.000614
227 0.000615
228 0.000613
229 0.000604
230 0.000597
231 0.000593
232 0.000589
233 0.000584
234 0.000582
235 0.000584
236 0.000587
237 0.000591
238 0.000594
239 0.000597
240 0.000600
241 0.000603
242 0.000607
243 0.000608
244 0.000609
245 0.000611
246 0.000608
247 0.000608
248 0.000605
249 0.000600
250 0.000597
251 0.000595
252 0.000596
253 0.000601
254 0.000602
255 0.000606
256 0.000608
257 0.000604
258 0.000600
259 0.000604
260 0.000610
261 0.000609
262 0.000604
263 0.000603
264 0.000603
265 0.000597
266 0.000591
267 0.000589
268 0.000590
269 0.000589
270 0.000588
271 0.000591
272 0.000590
273 0.000589
274 0.000588
275 0.000587
276 0.000585
277 0.000580
278 0.000580
279 0.000579
280 0.000575
281 0.000575
282 0.000575
283 0.000573
284 0.000568
285 0.000559
286 0.000551
287 0.000543
288 0.000537
289 0.000529
290 0.000523
291 0.000523
292 0.000526
293 0.000525
294 0.000525
295 0.000522
296 0.000522
297 0.000520
298 0.000517
299 0.000514
300 0.000515
301 0.000517
302 0.000511
303 0.000508
304 0.000505
305 0.000501
306 0.000497
307 0.000495
308 0.000494
309 0.000493
310 0.000493
311 0.000496
312 0.000502
313 0.000505
314 0.000511
315 0.000518
316 0.000520
317 0.000521
318 0.000521
319 0.000522
320 0.000525
321 0.000527
322 0.000529
323 0.000532
324 0.000531
325 0.000528
326 0.000524
327 0.000521
328 0.000519
329 0.000520
330 0.000518
331 0.000513
332 0.000511
333 0.000513
334 0.000514
335 0.000515
336 0.000514
337 0.000515
338 0.000511
339 0.000503
340 0.000496
341 0.000491
342 0.000481
343 0.000474
344 0.000468
345 0.000468
346 0.000470
347 0.000471
348 0.000476
349 0.000477
350 0.000480
351 0.000478
352 0.000478
353 0.000480
354 0.000481
355 0.000483
356 0.000486
357 0.000489
358 0.000489
359 0.000487
360 0.000486
361 0.000481
362 0.000484
363 0.000483
364 0.000482
365 0.000484
366 0.000486
367 0.000487
368 0.000485
369 0.000484
370 0.000483
371 0.000482
372 0.000478
373 0.000477
374 0.000479
375 0.000477
376 0.000478
377 0.000476
378 0.000473
379 0.000469
380 0.000463
381 0.000463
382 0.000463
383 0.000462
384 0.000464
385 0.000464
386 0.000464
387 0.000461
388 0.000460
389 0.000461
390 0.000458
391 0.000455
392 0.000454
393 0.000453
394 0.000450
395 0.000448
396 0.000444
397 0.000440
398 0.000439
399 0.000437
400 0.000433
401 0.000431
402 0.000431
403 0.000434
404 0.000436
405 0.000437
406 0.000443
407 0.000447
408 0.000444
409 0.000446
410 0.000446
411 0.000444
412 0.000441
413 0.000444
414 0.000443
415 0.000439
416 0.000435
417 0.000430
418 0.000430
419 0.000429
420 0.000429
421 0.000433
422 0.000436
423 0.000437
424 0.000438
425 0.000444
426 0.000450
427 0.000450
428 0.000447
429 0.000444
430 0.000442
431 0.000441
432 0.000438
433 0.000436
434 0.000436
435 0.000439
436 0.000441
437 0.000447
438 0.000453
439 0.000457
440 0.000460
441 0.000460
442 0.000465
443 0.000467
444 0.000467
445 0.000470
446 0.000472
447 0.000468
448 0.000463
449 0.000456
450 0.000450
451 0.000444
452 0.000439
453 0.000438
454 0.000439
455 0.000439
456 0.000437
457 0.000435
458 0.000438
459 0.000446
460 0.000450
461 0.000453
462 0.000454
463 0.000449
464 0.000440
465 0.000436
466 0.000434
467 0.000434
468 0.000439
469 0.000443
470 0.000442
471 0.000445
472 0.000449
473 0.000456
474 0.000455
475 0.000459
476 0.000464
477 0.000470
478 0.000475
479 0.000478
480 0.000482
481 0.000483
482 0.000482
483 0.000477
484 0.000471
485 0.000467
486 0.000463
487 0.000462
488 0.000458
489 0.000457
490 0.000457
491 0.000456
492 0.000456
493 0.000454
494 0.000453
495 0.000454
496 0.000455
497 0.000455
498 0.000451
499 0.000451
500 0.000447
501 0.000446
502 0.000445
503 0.000440
504 0.000438
505 0.000438
506 0.000439
507 0.000441
508 0.000441
509 0.000443
510 0.000441
511 0.000435
512 0.000424
513 0.000418
514 0.000414
515 0.000407
516 0.000401
517 0.000394
518 0.000389
519 0.000385
520 0.000386
521 0.000386
522 0.000383
523 0.000383
524 0.000381
525 0.000378
526 0.000373
527 0.000368
528 0.000365
529 0.000359
530 0.000356
531 0.000356
532 0.000358
533 0.000351
534 0.000349
535 0.000349
536 0.000351
537 0.000356
538 0.000356
539 0.000357
540 0.000355
541 0.000356
542 0.000358
543 0.000360
544 0.000359
545 0.000358
546 0.000354
547 0.000347
548 0.000338
549 0.000330
550 0.000320
551 0.000310
552 0.000305
553 0.000302
554 0.000302
555 0.000305
556 0.000307
557 0.000309
558 0.000313
559 0.000314
560 0.000315
561 0.000316
562 0.000316
563 0.000316
564 0.000316
565 0.000316
566 0.000313
567 0.000312
568 0.000311
569 0.000306
570 0.000302
571 0.000304
572 0.000307
573 0.000307
574 0.000308
575 0.000306
576 0.000306
577 0.000301
578 0.000294
579 0.000291
580 0.000288
581 0.000281
582 0.000279
583 0.000280
584 0.000279
585 0.000275
586 0.000267
587 0.000258
588 0.000251
589 0.000251
590 0.000252
591 0.000254
592 0.000257
593 0.000265
594 0.000271
595 0.000273
596 0.000274
597 0.000276
598 0.000281
599 0.000284
600 0.000285
601 0.000287
602 0.000289
603 0.000289
604 0.000284
605 0.000281
606 0.000281
607 0.000283
608 0.000282
609 0.000279
610 0.000275
611 0.000275
612 0.000272
613 0.000272
614 0.000273
615 0.000275
616 0.000276
617 0.000276
618 0.000276
619 0.000276
620 0.000276
621 0.000277
622 0.000274
623 0.000270
624 0.000264
625 0.000258
626 0.000251
627 0.000248
628 0.000247
629 0.000252
630 0.000256
631 0.000261
632 0.000264
633 0.000270
634 0.000276
635 0.000280
636 0.000280
637 0.000282
638 0.000283
639 0.000281
640 0.000276
641 0.000273
642 0.000271
643 0.000267
644 0.000263
645 0.000259
646 0.000259
647 0.000260
648 0.000260
649 0.000263
650 0.000264
651 0.000263
652 0.000260
653 0.000258
654 0.000258
655 0.000255
656 0.000250
657 0.000244
658 0.000241
659 0.000236
660 0.000234
661 0.000232
662 0.000233
663 0.000237
664 0.000235
665 0.000233
666 0.000231
667 0.000229
668 0.000229
669 0.000226
670 0.000226
671 0.000221
672 0.000214
673 0.000207
674 0.000205
675 0.000202
676 0.000198
677 0.000195
678 0.000188
679 0.000182
680 0.000178
681 0.000176
682 0.000176
683 0.000176
684 0.000177
685 0.000181
686 0.000186
687 0.000190
688 0.000190
689 0.000191
690 0.000192
691 0.000191
692 0.000190
693 0.000188
694 0.000188
695 0.000189
696 0.000189
697 0.000190
698 0.000192
699 0.000190
700 0.000191
701 0.000195
702 0.000194
703 0.000191
704 0.000190
705 0.000188
706 0.000182
707 0.000176
708 0.000167
709 0.000161
710 0.000158
711 0.000150
712 0.000141
713 0.000135
714 0.000135
715 0.000137
716 0.000138
717 0.000139
718 0.000143
719 0.000145
720 0.000144
721 0.000148
722 0.000154
723 0.000156
724 0.000154
725 0.000153
726 0.000153
727 0.000153
728 0.000153
729 0.000156
730 0.000159
731 0.000164
732 0.000169
733 0.000170
734 0.000168
735 0.000168
736 0.000171
737 0.000174
738 0.000172
739 0.000175
740 0.000176
741 0.000176
742 0.000174
743 0.000174
744 0.000174
745 0.000173
746 0.000170
747 0.000166
748 0.000162
749 0.000164
750 0.000164
751 0.000163
752 0.000164
753 0.000164
754 0.000165
755 0.000165
756 0.000163
757 0.000161
758 0.000158
759 0.000156
760 0.000157
761 0.000160
762 0.000163
763 0.000167
764 0.000166
765 0.000164
766 0.000165
767 0.000165
768 0.000163
769 0.000162
770 0.000161
771 0.000163
772 0.000162
773 0.000162
774 0.000161
775 0.000160
776 0.000160
777 0.000159
778 0.000160
779 0.000162
780 0.000167
781 0.000168
782 0.000166
783 0.000170
784 0.000174
785 0.000176
786 0.000174
787 0.000171
788 0.000171
789 0.000169
790 0.000169
791 0.000170
792 0.000174
793 0.000172
794 0.000171
795 0.000168
796 0.000168
797 0.000165
798 0.000161
799 0.000159
800 0.000156
801 0.000154
802 0.000159
803 0.000160
804 0.000158
805 0.000155
806 0.000154
807 0.000151
808 0.000150
809 0.000149
