# i correlation
1 0.001504
2 0.001452
3 0.001413
4 0.001383
5 0.001357
6 0.001333
7 0.001311
8 0.001294
9 0.001272
10 0.001249
11 0.001229
12 0.001212
13 0.001191
14 0.001174
15 0.001158
16 0.001150
17 0.001136
18 0.001117
19 0.001104
20 0.001096
21 0.001081
22 0.001071
23 0.001061
24 0.001059
25 0.001045
26 0.001034
27 0.001021
28 0.001010
29 0.000996
30 0.000985
31 0.000982
32 0.000983
33 0.000976
34 0.000969
35 0.000963
36 0.000962
37 0.000962
38 0.000966
39 0.000972
40 0.000975
41 0.000970
42 0.000963
43 0.000963
44 0.000969
45 0.000970
46 0.000967
47 0.000963
48 0.000964
49 0.000962
50 0.000963
51 0.000962
52 0.000960
53 0.000959
54 0.000954
55 0.000950
56 0.000949
57 0.000947
58 0.000944
59 0.000945
60 0.000942
61 0.000935
62 0.000929
63 0.000922
64 0.000919
65 0.000914
66 0.000912
67 0.000913
68 0.000912
69 0.000911
70 0.000908
71 0.000905
72 0.000900
73 0.000895
74 0.000892
75 0.000889
76 0.000891
77 0.000887
78 0.000876
79 0.000868
80 0.000860
81 0.000853
82 0.000843
83 0.000840
84 0.000840
85 0.000836
86 0.000833
87 0.000827
88 0.000825
89 0.000822
90 0.000815
91 0.000809
92 0.000803
93 0.000804
94 0.000806
95 0.000807
96 0.000804
97 0.000800
98 0.000795
99 0.000789
100 0.000785
101 0.000779
102 0.000773
103 0.000767
104 0.000758
105 0.000748
106 0.000736
107 0.000730
108 0.000727
109 0.000724
110 0.000722
111 0.000720
112 0.000717
113 0.000714
114 0.000714
115 0.000713
116 0.000713
117 0.000712
118 0.000709
119 0.000709
120 0.000710
121 0.000714
122 0.000713
123 0.000712
124 0.000711
125 0.000711
126 0.000712
127 0.000716
128 0.000717
129 0.000715
130 0.000707
131 0.000700
132 0.000694
133 0.000687
134 0.000687
135 0.000680
136 0.000676
137 0.000669
138 0.000661
139 0.000655
140 0.000650
141 0.000648
142 0.000647
143 0.000646
144 0.000642
145 0.000641
146 0.000640
147 0.000640
148 0.000642
149 0.000638
150 0.000637
151 0.000634
152 0.000637
153 0.000641
154 0.000641
155 0.000636
156 0.000628
157 0.000619
158 0.000621
159 0.000622
160 0.000627
161 0.000628
162 0.000635
163 0.000641
164 0.000650
165 0.000658
166 0.000665
167 0.000669
168 0.000670
169 0.000673
170 0.000676
171 0.000680
172 0.000679
173 0.000674
174 0.000672
175 0.000669
176 0.000667
177 0.000662
178 0.000658
179 0.000656
180 0.000656
181 0.000656
182 0.000654
183 0.000651
184 0.000652
185 0.000649
186 0.000648
187 0.000648
188 0.000648
189 0.000645
190 0.000643
191 0.000641
192 0.000638
193 0.000632
194 0.000622
195 0.000612
196 0.000604
197 0.000597
198 0.000595
199 0.000592
200 0.000588
201 0.000583
202 0.000580
203 0.000582
204 0.000581
205 0.000581
206 0.000577
207 0.000576
208 0.000574
209 0.000569
210 0.000568
211 0.000563
212 0.000561
213 0.000556
214 0.000553
215 0.000549
216 0.000541
217 0.000534
218 0.000528
219 0.000526
220 0.000523
221 0.000519
222 0.000515
223 0.000516
224 0.000511
225 0.000507
226 0.000504
227 0.000503
228 0.000502
229 0.000501
230 0.000499
231 0.000504
232 0.000505
233 0.000503
234 0.000503
235 0.000504
236 0.000505
237 0.000502
238 0.000499
239 0.000500
240 0.000499
241 0.000502
242 0.000509
243 0.000511
244 0.000505
245 0.000498
246 0.000491
247 0.000487
248 0.000482
249 0.000479
250 0.000478
251 0.000479
252 0.000482
253 0.000481
254 0.000477
255 0.000477
256 0.000471
257 0.000466
258 0.000462
259 0.000461
260 0.000456
261 0.000449
262 0.000449
263 0.000450
264 0.000448
265 0.000447
266 0.000450
267 0.000457
268 0.000464
269 0.000471
270 0.000475
271 0.000476
272 0.000476
273 0.000476
274 0.000478
275 0.000486
276 0.000491
277 0.000498
278 0.000506
279 0.000516
280 0.000520
281 0.000525
282 0.000534
283 0.000538
284 0.000537
285 0.000533
286 0.000537
287 0.000547
288 0.000555
289 0.000556
290 0.000557
291 0.000558
292 0.000559
293 0.000562
294 0.000567
295 0.000570
296 0.000573
297 0.000571
298 0.000572
299 0.000574
300 0.000570
301 0.000566
302 0.000561
303 0.000552
304 0.000540
305 0.000531
306 0.000523
307 0.000522
308 0.000523
309 0.000519
310 0.000518
311 0.000515
312 0.000514
313 0.000511
314 0.000513
315 0.000516
316 0.000521
317 0.000523
318 0.000522
319 0.000522
320 0.000519
321 0.000515
322 0.000515
323 0.000513
324 0.000509
325 0.000501
326 0.000497
327 0.000495
328 0.000492
329 0.000490
330 0.000490
331 0.000490
332 0.000486
333 0.000483
334 0.000482
335 0.000483
336 0.000486
337 0.000487
338 0.000493
339 0.000497
340 0.000496
341 0.000493
342 0.000488
343 0.000484
344 0.000479
345 0.000477
346 0.000481
347 0.000486
348 0.000488
349 0.000490
350 0.000493
351 0.000498
352 0.000504
353 0.000509
354 0.000514
355 0.000519
356 0.000521
357 0.000522
358 0.000523
359 0.000523
360 0.000523
361 0.000524
362 0.000526
363 0.000531
364 0.000530
365 0.000530
366 0.000528
367 0.000527
368 0.000530
369 0.000536
370 0.000539
371 0.000536
372 0.000535
373 0.000536
374 0.000535
375 0.000532
376 0.000532
377 0.000533
378 0.000534
379 0.000539
380 0.000537
381 0.000533
382 0.000531
383 0.000532
384 0.000531
385 0.000531
386 0.000531
387 0.000524
388 0.000517
389 0.000516
390 0.000514
391 0.000511
392 0.000509
393 0.000509
394 0.000510
395 0.000514
396 0.000515
397 0.000514
398 0.000511
399 0.000507
400 0.000501
401 0.000497
402 0.000493
403 0.000492
404 0.000487
405 0.000486
406 0.000485
407 0.000484
408 0.000481
409 0.000478
410 0.000477
411 0.000472
412 0.000471
413 0.000468
414 0.000462
415 0.000460
416 0.000459
417 0.000460
418 0.000462
419 0.000460
420 0.000455
421 0.000453
422 0.000455
423 0.000456
424 0.000456
425 0.000452
426 0.000447
427 0.000446
428 0.000444
429 0.000441
430 0.000437
431 0.000429
432 0.000421
433 0.000418
434 0.000416
435 0.000415
436 0.000416
437 0.000412
438 0.000408
439 0.000406
440 0.000403
441 0.000403
442 0.000402
443 0.000400
444 0.000403
445 0.000404
446 0.000407
447 0.000408
448 0.000409
449 0.000412
450 0.000415
451 0.000417
452 0.000417
453 0.000419
454 0.000418
455 0.000418
456 0.000414
457 0.000409
458 0.000406
459 0.000402
460 0.000397
461 0.000392
462 0.000390
463 0.000389
464 0.000385
465 0.000383
466 0.000380
467 0.000378
468 0.000376
469 0.000375
470 0.000375
471 0.000372
472 0.000368
473 0.000365
474 0.000365
475 0.000363
476 0.000360
477 0.000357
478 0.000360
479 0.000361
480 0.000364
481 0.000366
482 0.000369
483 0.000373
484 0.000378
485 0.000382
486 0.000388
487 0.000393
488 0.000393
489 0.000396
490 0.000404
491 0.000409
492 0.000411
493 0.000412
494 0.000414
495 0.000414
496 0.000409
497 0.000405
498 0.000401
499 0.000396
500 0.000394
501 0.000391
502 0.000392
503 0.000393
504 0.000390
505 0.000388
506 0.000388
507 0.000389
508 0.000388
509 0.000382
510 0.000379
511 0.000379
512 0.000370
513 0.000362
514 0.000354
515 0.000346
516 0.000336
517 0.000328
518 0.000322
519 0.000318
520 0.000310
521 0.000303
522 0.000306
523 0.000307
524 0.000307
525 0.000304
526 0.000296
527 0.000288
528 0.000282
529 0.000280
530 0.000281
531 0.000283
532 0.000285
533 0.000283
534 0.000282
535 0.000280
536 0.000275
537 0.000269
538 0.000262
539 0.000260
540 0.000254
541 0.000247
542 0.000245
543 0.000241
544 0.000241
545 0.000239
546 0.000240
547 0.000240
548 0.000240
549 0.000241
550 0.000246
551 0.000248
552 0.000248
553 0.000246
554 0.000248
555 0.000251
556 0.000256
557 0.000260
558 0.000264
559 0.000268
560 0.000269
561 0.000271
562 0.000272
563 0.000271
564 0.000273
565 0.000272
566 0.000272
567 0.000273
568 0.000275
569 0.000277
570 0.000282
571 0.000284
572 0.000284
573 0.000283
574 0.000285
575 0.000284
576 0.000285
577 0.000284
578 0.000283
579 0.000277
580 0.000271
581 0.000270
582 0.000272
583 0.000277
584 0.000277
585 0.000273
586 0.000271
587 0.000267
588 0.000264
589 0.000263
590 0.000261
591 0.000255
592 0.000252
593 0.000250
594 0.000248
595 0.000242
596 0.000232
597 0.000224
598 0.000220
599 0.000216
600 0.000210
601 0.000203
602 0.000197
603 0.000191
604 0.000188
605 0.000186
606 0.000188
607 0.000189
608 0.000189
609 0.000189
610 0.000188
611 0.000187
612 0.000183
613 0.000180
614 0.000177
615 0.000177
616 0.000178
617 0.000180
618 0.000184
619 0.000184
620 0.000182
621 0.000182
622 0.000184
623 0.000183
624 0.000184
625 0.000185
626 0.000188
627 0.000191
628 0.000192
629 0.000196
630 0.000198
631 0.000200
632 0.000204
633 0.000207
634 0.000209
635 0.000210
636 0.000208
637 0.000205
638 0.000207
639 0.000207
640 0.000204
641 0.000198
642 0.000191
643 0.000184
644 0.000180
645 0.000178
646 0.000177
647 0.000175
648 0.000176
649 0.000177
650 0.000179
651 0.000182
652 0.000183
653 0.000185
654 0.000186
655 0.000190
656 0.000195
657 0.000200
658 0.000206
659 0.000209
660 0.000212
661 0.000215
662 0.000216
663 0.000219
664 0.000220
665 0.000223
666 0.000224
667 0.000225
668 0.000226
669 0.000225
670 0.000226
671 0.000229
672 0.000232
673 0.000232
674 0.000233
675 0.000234
676 0.000236
677 0.000241
678 0.000245
679 0.000245
680 0.000246
681 0.000244
682 0.000242
683 0.000241
684 0.000238
685 0.000236
686 0.000233
687 0.000229
688 0.000227
689 0.000222
690 0.000217
691 0.000213
692 0.000210
693 0.000206
694 0.000200
695 0.000197
696 0.000195
697 0.000192
698 0.000189
699 0.000185
700 0.000182
701 0.000178
702 0.000174
703 0.000170
704 0.000166
705 0.000161
706 0.000160
707 0.000154
708 0.000151
709 0.000147
710 0.000144
711 0.000141
712 0.000140
713 0.000136
714 0.000133
715 0.000132
716 0.000132
717 0.000136
718 0.000138
719 0.000140
720 0.000140
721 0.000140
722 0.000141
723 0.000145
724 0.000149
725 0.000151
726 0.000152
727 0.000153
728 0.000153
729 0.000152
730 0.000149
731 0.000145
732 0.000143
733 0.000142
734 0.000143
735 0.000145
736 0.000149
737 0.000150
738 0.000151
739 0.000150
740 0.000149
741 0.000148
742 0.000147
743 0.000148
744 0.000148
745 0.000150
746 0.000150
747 0.000152
748 0.000154
749 0.000157
750 0.000161
751 0.000161
752 0.000163
753 0.000164
754 0.000164
755 0.000160
756 0.000154
757 0.000152
758 0.000149
759 0.000147
760 0.000148
761 0.000148
762 0.000148
763 0.000147
764 0.000144
765 0.000142
766 0.000140
767 0.000137
768 0.000134
769 0.000131
770 0.000128
771 0.000124
772 0.000121
773 0.000116
774 0.000117
775 0.000121
776 0.000120
777 0.000121
778 0.000122
779 0.000121
780 0.000119
781 0.000116
782 0.000116
783 0.000115
784 0.000116
785 0.000117
786 0.000119
787 0.000121
788 0.000122
789 0.000122
790 0.000122
791 0.000125
792 0.000130
793 0.000133
794 0.000139
795 0.000140
796 0.000136
797 0.000135
798 0.000135
799 0.000139
800 0.000142
801 0.000148
802 0.000154
803 0.000159
804 0.000164
805 0.000164
806 0.000166
807 0.000166
808 0.000167
809 0.000169
