# i correlation
1 0.001904
2 0.001851
3 0.001802
4 0.001760
5 0.001723
6 0.001694
7 0.001670
8 0.001644
9 0.001620
10 0.001601
11 0.001589
12 0.001579
13 0.001574
14 0.001570
15 0.001559
16 0.001549
17 0.001543
18 0.001537
19 0.001532
20 0.001521
21 0.001503
22 0.001481
23 0.001459
24 0.001440
25 0.001429
26 0.001414
27 0.001396
28 0.001381
29 0.001374
30 0.001372
31 0.001366
32 0.001366
33 0.001363
34 0.001359
35 0.001349
36 0.001341
37 0.001329
38 0.001317
39 0.001302
40 0.001287
41 0.001274
42 0.001262
43 0.001255
44 0.001246
45 0.001233
46 0.001222
47 0.001222
48 0.001221
49 0.001216
50 0.001218
51 0.001219
52 0.001218
53 0.001217
54 0.001213
55 0.001211
56 0.001208
57 0.001204
58 0.001201
59 0.001195
60 0.001183
61 0.001175
62 0.001166
63 0.001156
64 0.001149
65 0.001145
66 0.001146
67 0.001145
68 0.001148
69 0.001149
70 0.001145
71 0.001142
72 0.001137
73 0.001132
74 0.001126
75 0.001121
76 0.001112
77 0.001112
78 0.001106
79 0.001097
80 0.001096
81 0.001099
82 0.001096
83 0.001096
84 0.001098
85 0.001099
86 0.001097
87 0.001089
88 0.001088
89 0.001089
90 0.001088
91 0.001089
92 0.001090
93 0.001090
94 0.001090
95 0.001093
96 0.001093
97 0.001091
98 0.001082
99 0.001074
100 0.001068
101 0.001063
102 0.001060
103 0.001059
104 0.001053
105 0.001050
106 0.001049
107 0.001045
108 0.001039
109 0.001033
110 0.001030
111 0.001025
112 0.001016
113 0.001011
114 0.001013
115 0.001015
116 0.001022
117 0.001026
118 0.001034
119 0.001042
120 0.001047
121 0.001044
122 0.001036
123 0.001024
124 0.001018
125 0.001017
126 0.001016
127 0.001017
128 0.001014
129 0.001007
130 0.000996
131 0.000985
132 0.000976
133 0.000969
134 0.000960
135 0.000954
136 0.000951
137 0.000952
138 0.000952
139 0.000965
140 0.000973
141 0.000972
142 0.000970
143 0.000963
144 0.000956
145 0.000950
146 0.000946
147 0.000944
148 0.000939
149 0.000934
150 0.000930
151 0.000923
152 0.000918
153 0.000913
154 0.000910
155 0.000907
156 0.000905
157 0.000901
158 0.000902
159 0.000899
160 0.000897
161 0.000896
162 0.000899
163 0.000904
164 0.000909
165 0.000914
166 0.000915
167 0.000916
168 0.000918
169 0.000920
170 0.000921
171 0.000923
172 0.000924
173 0.000921
174 0.000915
175 0.000911
176 0.000908
177 0.000907
178 0.000900
179 0.000888
180 0.000876
181 0.000863
182 0.000855
183 0.000847
184 0.000840
185 0.000837
186 0.000840
187 0.000844
188 0.000847
189 0.000847
190 0.000848
191 0.000840
192 0.000832
193 0.000827
194 0.000823
195 0.000818
196 0.000810
197 0.000805
198 0.000800
199 0.000794
200 0.000791
201 0.000794
202 0.000800
203 0.000802
204 0.000801
205 0.000798
206 0.000796
207 0.000794
208 0.000790
209 0.000785
210 0.000780
211 0.000773
212 0.000765
213 0.000760
214 0.000756
215 0.000757
216 0.000756
217 0.000751
218 0.000740
219 0.000732
220 0.000726
221 0.000722
222 0.000721
223 0.000717
224 0.000715
225 0.000710
226 0.000704
227 0.000696
228 0.000693
229 0.000692
230 0.000693
231 0.000690
232 0.000684
233 0.000676
234 0.000671
235 0.000668
236 0.000668
237 0.000665
238 0.000664
239 0.000658
240 0.000652
241 0.000647
242 0.000642
243 0.000637
244 0.000636
245 0.000641
246 0.000646
247 0.000650
248 0.000649
249 0.000652
250 0.000653
251 0.000655
252 0.000652
253 0.000649
254 0.000652
255 0.000658
256 0.000665
257 0.000672
258 0.000679
259 0.000687
260 0.000691
261 0.000692
262 0.000690
263 0.000692
264 0.000688
265 0.000686
266 0.000689
267 0.000691
268 0.000693
269 0.000692
270 0.000693
271 0.000693
272 0.000690
273 0.000683
274 0.000675
275 0.000670
276 0.000662
277 0.000653
278 0.000646
279 0.000644
280 0.000635
281 0.000627
282 0.000624
283 0.000625
284 0.000625
285 0.000623
286 0.000620
287 0.000622
288 0.000624
289 0.000624
290 0.000625
291 0.000625
292 0.000625
293 0.000623
294 0.000617
295 0.000612
296 0.000605
297 0.000604
298 0.000599
299 0.000591
300 0.000579
301 0.000570
302 0.000562
303 0.000558
304 0.000557
305 0.000557
306 0.000554
307 0.000554
308 0.000556
309 0.000559
310 0.000559
311 0.000554
312 0.000552
313 0.000551
314 0.000549
315 0.000545
316 0.000538
317 0.000529
318 0.000522
319 0.000514
320 0.000505
321 0.000500
322 0.000502
323 0.000506
324 0.000507
325 0.000506
326 0.000509
327 0.000513
328 0.000516
329 0.000524
330 0.000526
331 0.000529
332 0.000533
333 0.000529
334 0.000527
335 0.000522
336 0.000517
337 0.000512
338 0.000504
339 0.000499
340 0.000499
341 0.000500
342 0.000495
343 0.000494
344 0.000492
345 0.000487
346 0.000485
347 0.000483
348 0.000484
349 0.000482
350 0.000482
351 0.000481
352 0.000484
353 0.000483
354 0.000482
355 0.000477
356 0.000477
357 0.000475
358 0.000468
359 0.000462
360 0.000457
361 0.000455
362 0.000457
363 0.000462
364 0.000466
365 0.000471
366 0.000474
367 0.000474
368 0.000471
369 0.000467
370 0.000464
371 0.000462
372 0.000459
373 0.000456
374 0.000449
375 0.000441
376 0.000434
377 0.000429
378 0.000428
379 0.000429
380 0.000432
381 0.000433
382 0.000436
383 0.000439
384 0.000444
385 0.000446
386 0.000449
387 0.000455
388 0.000459
389 0.000457
390 0.000458
391 0.000456
392 0.000450
393 0.000448
394 0.000448
395 0.000445
396 0.000443
397 0.000441
398 0.000443
399 0.000443
400 0.000445
401 0.000442
402 0.000436
403 0.000433
404 0.000428
405 0.000426
406 0.000427
407 0.000432
408 0.000432
409 0.000433
410 0.000432
411 0.000432
412 0.000427
413 0.000422
414 0.000419
415 0.000417
416 0.000413
417 0.000415
418 0.000420
419 0.000423
420 0.000426
421 0.000425
422 0.000421
423 0.000419
424 0.000419
425 0.000422
426 0.000423
427 0.000423
428 0.000425
429 0.000423
430 0.000421
431 0.000418
432 0.000417
433 0.000418
434 0.000421
435 0.000422
436 0.000420
437 0.000419
438 0.000419
439 0.000414
440 0.000410
441 0.000406
442 0.000401
443 0.000398
444 0.000395
445 0.000396
446 0.000396
447 0.000399
448 0.000404
449 0.000409
450 0.000415
451 0.000417
452 0.000421
453 0.000425
454 0.000434
455 0.000442
456 0.000447
457 0.000449
458 0.000449
459 0.000450
460 0.000446
461 0.000446
462 0.000445
463 0.000441
464 0.000437
465 0.000436
466 0.000437
467 0.000434
468 0.000436
469 0.000433
470 0.000432
471 0.000430
472 0.000428
473 0.000425
474 0.000420
475 0.000414
476 0.000411
477 0.000409
478 0.000408
479 0.000412
480 0.000418
481 0.000423
482 0.000422
483 0.000421
484 0.000419
485 0.000418
486 0.000417
487 0.000416
488 0.000410
489 0.000403
490 0.000396
491 0.000392
492 0.000385
493 0.000382
494 0.000374
495 0.000365
496 0.000356
497 0.000348
498 0.000342
499 0.000341
500 0.000340
501 0.000344
502 0.000344
503 0.000346
504 0.000348
505 0.000350
506 0.000351
507 0.000350
508 0.000348
509 0.000346
510 0.000344
511 0.000339
512 0.000339
513 0.000340
514 0.000341
515 0.000340
516 0.000340
517 0.000343
518 0.000347
519 0.000353
520 0.000357
521 0.000358
522 0.000355
523 0.000351
524 0.000349
525 0.000347
526 0.000345
527 0.000347
528 0.000345
529 0.000345
530 0.000341
531 0.000339
532 0.000332
533 0.000329
534 0.000328
535 0.000329
536 0.000332
537 0.000334
538 0.000342
539 0.000352
540 0.000359
541 0.000360
542 0.000364
543 0.000367
544 0.000368
545 0.000368
546 0.000370
547 0.000368
548 0.000367
549 0.000365
550 0.000366
551 0.000367
552 0.000366
553 0.000368
554 0.000370
555 0.000372
556 0.000377
557 0.000383
558 0.000391
559 0.000397
560 0.000404
561 0.000409
562 0.000408
563 0.000404
564 0.000399
565 0.000395
566 0.000386
567 0.000378
568 0.000372
569 0.000365
570 0.000364
571 0.000360
572 0.000356
573 0.000352
574 0.000351
575 0.000352
576 0.000356
577 0.000360
578 0.000365
579 0.000363
580 0.000361
581 0.000356
582 0.000352
583 0.000350
584 0.000346
585 0.000341
586 0.000339
587 0.000338
588 0.000334
589 0.000331
590 0.000331
591 0.000329
592 0.000326
593 0.000324
594 0.000322
595 0.000325
596 0.000331
597 0.000343
598 0.000351
599 0.000357
600 0.000359
601 0.000360
602 0.000357
603 0.000353
604 0.000349
605 0.000342
606 0.000333
607 0.000326
608 0.000322
609 0.000320
610 0.000323
611 0.000325
612 0.000328
613 0.000329
614 0.000327
615 0.000326
616 0.000325
617 0.000320
618 0.000314
619 0.000308
620 0.000306
621 0.000303
622 0.000301
623 0.000301
624 0.000300
625 0.000299
626 0.000297
627 0.000300
628 0.000302
629 0.000305
630 0.000309
631 0.000309
632 0.000306
633 0.000304
634 0.000301
635 0.000300
636 0.000299
637 0.000294
638 0.000286
639 0.000279
640 0.000271
641 0.000267
642 0.000263
643 0.000260
644 0.000259
645 0.000263
646 0.000266
647 0.000270
648 0.000272
649 0.000273
650 0.000271
651 0.000268
652 0.000264
653 0.000260
654 0.000257
655 0.000257
656 0.000260
657 0.000261
658 0.000261
659 0.000264
660 0.000265
661 0.000267
662 0.000267
663 0.000268
664 0.000267
665 0.000265
666 0.000268
667 0.000270
668 0.000272
669 0.000269
670 0.000265
671 0.000261
672 0.000258
673 0.000253
674 0.000247
675 0.000242
676 0.000236
677 0.000235
678 0.000234
679 0.000232
680 0.000232
681 0.000234
682 0.000233
683 0.000230
684 0.000225
685 0.000223
686 0.000222
687 0.000223
688 0.000222
689 0.000219
690 0.000214
691 0.000207
692 0.000200
693 0.000194
694 0.000191
695 0.000188
696 0.000191
697 0.000193
698 0.000190
699 0.000185
700 0.000183
701 0.000178
702 0.000173
703 0.000169
704 0.000167
705 0.000164
706 0.000161
707 0.000162
708 0.000162
709 0.000159
710 0.000159
711 0.000159
712 0.000159
713 0.000160
714 0.000161
715 0.000167
716 0.000173
717 0.000181
718 0.000188
719 0.000192
720 0.000198
721 0.000199
722 0.000203
723 0.000204
724 0.000204
725 0.000206
726 0.000207
727 0.000208
728 0.000209
729 0.000211
730 0.000216
731 0.000220
732 0.000221
733 0.000221
734 0.000219
735 0.000216
736 0.000215
737 0.000217
738 0.000218
739 0.000219
740 0.000222
741 0.000224
742 0.000225
743 0.000225
744 0.000224
745 0.000218
746 0.000214
747 0.000209
748 0.000204
749 0.000200
750 0.000199
751 0.000197
752 0.000194
753 0.000188
754 0.000183
755 0.000179
756 0.000174
757 0.000171
758 0.000167
759 0.000161
760 0.000154
761 0.000146
762 0.000140
763 0.000139
764 0.000139
765 0.000137
766 0.000136
767 0.000134
768 0.000131
769 0.000127
770 0.000123
771 0.000118
772 0.000113
773 0.000110
774 0.000109
775 0.000110
776 0.000112
777 0.000111
778 0.000111
779 0.000105
780 0.000100
781 0.000097
782 0.000092
783 0.000087
784 0.000087
785 0.000087
786 0.000085
787 0.000085
788 0.000086
789 0.000088
790 0.000087
791 0.000086
792 0.000086
793 0.000084
794 0.000081
795 0.000082
796 0.000081
797 0.000077
798 0.000077
799 0.000076
800 0.000078
801 0.000079
802 0.000084
803 0.000084
804 0.000080
805 0.000077
806 0.000076
807 0.000076
808 0.000077
809 0.000078
