# i correlation
1 0.001728
2 0.001682
3 0.001638
4 0.001600
5 0.001570
6 0.001545
7 0.001523
8 0.001504
9 0.001487
10 0.001466
11 0.001450
12 0.001435
13 0.001423
14 0.001408
15 0.001395
16 0.001383
17 0.001373
18 0.001363
19 0.001349
20 0.001343
21 0.001334
22 0.001332
23 0.001323
24 0.001315
25 0.001309
26 0.001303
27 0.001296
28 0.001286
29 0.001272
30 0.001261
31 0.001255
32 0.001250
33 0.001245
34 0.001243
35 0.001244
36 0.001242
37 0.001241
38 0.001238
39 0.001238
40 0.001237
41 0.001235
42 0.001233
43 0.001238
44 0.001242
45 0.001244
46 0.001246
47 0.001242
48 0.001237
49 0.001229
50 0.001222
51 0.001212
52 0.001200
53 0.001190
54 0.001178
55 0.001171
56 0.001162
57 0.001154
58 0.001151
59 0.001145
60 0.001136
61 0.001130
62 0.001128
63 0.001129
64 0.001129
65 0.001128
66 0.001133
67 0.001130
68 0.001129
69 0.001128
70 0.001126
71 0.001125
72 0.001129
73 0.001127
74 0.001120
75 0.001113
76 0.001104
77 0.001092
78 0.001081
79 0.001066
80 0.001061
81 0.001061
82 0.001058
83 0.001054
84 0.001046
85 0.001042
86 0.001035
87 0.001025
88 0.001020
89 0.001011
90 0.001002
91 0.001001
92 0.001004
93 0.001003
94 0.001001
95 0.000995
96 0.000990
97 0.000984
98 0.000985
99 0.000984
100 0.000982
101 0.000979
102 0.000973
103 0.000974
104 0.000969
105 0.000965
106 0.000962
107 0.000958
108 0.000953
109 0.000950
110 0.000950
111 0.000947
112 0.000947
113 0.000949
114 0.000950
115 0.000954
116 0.000960
117 0.000963
118 0.000966
119 0.000966
120 0.000961
121 0.000959
122 0.000954
123 0.000949
124 0.000946
125 0.000946
126 0.000940
127 0.000945
128 0.000949
129 0.000947
130 0.000946
131 0.000944
132 0.000946
133 0.000946
134 0.000943
135 0.000940
136 0.000936
137 0.000936
138 0.000939
139 0.000934
140 0.000930
141 0.000924
142 0.000925
143 0.000922
144 0.000922
145 0.000920
146 0.000920
147 0.000917
148 0.000910
149 0.000902
150 0.000898
151 0.000889
152 0.000880
153 0.000873
154 0.000867
155 0.000866
156 0.000866
157 0.000859
158 0.000857
159 0.000855
160 0.000852
161 0.000847
162 0.000845
163 0.000842
164 0.000845
165 0.000851
166 0.000859
167 0.000863
168 0.000868
169 0.000864
170 0.000862
171 0.000858
172 0.000859
173 0.000863
174 0.000871
175 0.000880
176 0.000882
177 0.000887
178 0.000884
179 0.000881
180 0.000880
181 0.000882
182 0.000885
183 0.000886
184 0.000884
185 0.000876
186 0.000872
187 0.000869
188 0.000862
189 0.000855
190 0.000847
191 0.000850
192 0.000853
193 0.000857
194 0.000855
195 0.000854
196 0.000852
197 0.000849
198 0.000843
199 0.000837
200 0.000836
201 0.000829
202 0.000822
203 0.000814
204 0.000808
205 0.000803
206 0.000795
207 0.000782
208 0.000770
209 0.000766
210 0.000760
211 0.000755
212 0.000748
213 0.000752
214 0.000756
215 0.000755
216 0.000758
217 0.000758
218 0.000760
219 0.000762
220 0.000769
221 0.000775
222 0.000780
223 0.000784
224 0.000782
225 0.000774
226 0.000771
227 0.000762
228 0.000758
229 0.000751
230 0.000746
231 0.000746
232 0.000747
233 0.000745
234 0.000746
235 0.000747
236 0.000749
237 0.000748
238 0.000753
239 0.000760
240 0.000765
241 0.000765
242 0.000764
243 0.000760
244 0.000758
245 0.000755
246 0.000747
247 0.000743
248 0.000738
249 0.000736
250 0.000733
251 0.000723
252 0.000715
253 0.000704
254 0.000690
255 0.000683
256 0.000679
257 0.000675
258 0.000669
259 0.000668
260 0.000667
261 0.000667
262 0.000669
263 0.000672
264 0.000673
265 0.000676
266 0.000678
267 0.000678
268 0.000677
269 0.000675
270 0.000666
271 0.000656
272 0.000652
273 0.000646
274 0.000639
275 0.000634
276 0.000625
277 0.000613
278 0.000600
279 0.000590
280 0.000585
281 0.000584
282 0.000582
283 0.000580
284 0.000579
285 0.000575
286 0.000575
287 0.000573
288 0.000574
289 0.000579
290 0.000584
291 0.000586
292 0.000587
293 0.000585
294 0.000579
295 0.000573
296 0.000566
297 0.000561
298 0.000560
299 0.000554
300 0.000549
301 0.000547
302 0.000549
303 0.000547
304 0.000548
305 0.000550
306 0.000552
307 0.000552
308 0.000560
309 0.000566
310 0.000575
311 0.000580
312 0.000583
313 0.000581
314 0.000577
315 0.000573
316 0.000566
317 0.000557
318 0.000547
319 0.000540
320 0.000533
321 0.000530
322 0.000521
323 0.000511
324 0.000505
325 0.000498
326 0.000489
327 0.000486
328 0.000479
329 0.000472
330 0.000473
331 0.000470
332 0.000473
333 0.000479
334 0.000482
335 0.000478
336 0.000473
337 0.000473
338 0.000473
339 0.000472
340 0.000470
341 0.000473
342 0.000476
343 0.000481
344 0.000480
345 0.000477
346 0.000472
347 0.000471
348 0.000470
349 0.000469
350 0.000465
351 0.000461
352 0.000456
353 0.000452
354 0.000452
355 0.000455
356 0.000461
357 0.000467
358 0.000474
359 0.000478
360 0.000482
361 0.000484
362 0.000482
363 0.000481
364 0.000480
365 0.000482
366 0.000480
367 0.000480
368 0.000483
369 0.000484
370 0.000484
371 0.000482
372 0.000483
373 0.000479
374 0.000481
375 0.000480
376 0.000477
377 0.000475
378 0.000477
379 0.000476
380 0.000477
381 0.000474
382 0.000477
383 0.000477
384 0.000473
385 0.000472
386 0.000469
387 0.000467
388 0.000463
389 0.000456
390 0.000450
391 0.000444
392 0.000437
393 0.000434
394 0.000428
395 0.000422
396 0.000420
397 0.000417
398 0.000413
399 0.000405
400 0.000399
401 0.000397
402 0.000393
403 0.000389
404 0.000387
405 0.000390
406 0.000396
407 0.000403
408 0.000409
409 0.000417
410 0.000425
411 0.000432
412 0.000434
413 0.000439
414 0.000440
415 0.000446
416 0.000449
417 0.000451
418 0.000453
419 0.000457
420 0.000457
421 0.000458
422 0.000461
423 0.000465
424 0.000465
425 0.000467
426 0.000468
427 0.000468
428 0.000469
429 0.000464
430 0.000459
431 0.000457
432 0.000454
433 0.000455
434 0.000446
435 0.000439
436 0.000433
437 0.000431
438 0.000428
439 0.000423
440 0.000422
441 0.000421
442 0.000421
443 0.000420
444 0.000417
445 0.000412
446 0.000410
447 0.000410
448 0.000412
449 0.000413
450 0.000415
451 0.000411
452 0.000406
453 0.000400
454 0.000397
455 0.000398
456 0.000401
457 0.000405
458 0.000405
459 0.000404
460 0.000403
461 0.000404
462 0.000401
463 0.000403
464 0.000404
465 0.000404
466 0.000402
467 0.000399
468 0.000395
469 0.000387
470 0.000383
471 0.000377
472 0.000373
473 0.000370
474 0.000370
475 0.000369
476 0.000369
477 0.000368
478 0.000368
479 0.000369
480 0.000366
481 0.000365
482 0.000365
483 0.000366
484 0.000369
485 0.000377
486 0.000386
487 0.000392
488 0.000399
489 0.000404
490 0.000407
491 0.000410
492 0.000411
493 0.000408
494 0.000403
495 0.000402
496 0.000402
497 0.000398
498 0.000394
499 0.000392
500 0.000387
501 0.000381
502 0.000379
503 0.000374
504 0.000372
505 0.000372
506 0.000368
507 0.000365
508 0.000364
509 0.000361
510 0.000361
511 0.000364
512 0.000362
513 0.000361
514 0.000362
515 0.000360
516 0.000353
517 0.000342
518 0.000330
519 0.000319
520 0.000308
521 0.000301
522 0.000295
523 0.000287
524 0.000284
525 0.000285
526 0.000284
527 0.000281
528 0.000279
529 0.000280
530 0.000282
531 0.000284
532 0.000282
533 0.000282
534 0.000282
535 0.000276
536 0.000272
537 0.000267
538 0.000263
539 0.000257
540 0.000251
541 0.000246
542 0.000242
543 0.000239
544 0.000236
545 0.000231
546 0.000228
547 0.000226
548 0.000230
549 0.000231
550 0.000234
551 0.000237
552 0.000233
553 0.000232
554 0.000231
555 0.000229
556 0.000228
557 0.000232
558 0.000238
559 0.000241
560 0.000246
561 0.000252
562 0.000251
563 0.000250
564 0.000248
565 0.000247
566 0.000247
567 0.000245
568 0.000241
569 0.000232
570 0.000224
571 0.000222
572 0.000217
573 0.000215
574 0.000214
575 0.000213
576 0.000210
577 0.000209
578 0.000211
579 0.000214
580 0.000217
581 0.000215
582 0.000215
583 0.000214
584 0.000212
585 0.000209
586 0.000202
587 0.000196
588 0.000192
589 0.000188
590 0.000184
591 0.000183
592 0.000183
593 0.000184
594 0.000185
595 0.000184
596 0.000187
597 0.000188
598 0.000190
599 0.000190
600 0.000192
601 0.000192
602 0.000196
603 0.000201
604 0.000202
605 0.000207
606 0.000213
607 0.000220
608 0.000220
609 0.000220
610 0.000219
611 0.000217
612 0.000213
613 0.000206
614 0.000205
615 0.000200
616 0.000197
617 0.000196
618 0.000196
619 0.000195
620 0.000191
621 0.000183
622 0.000179
623 0.000182
624 0.000189
625 0.000195
626 0.000196
627 0.000194
628 0.000187
629 0.000183
630 0.000183
631 0.000184
632 0.000187
633 0.000190
634 0.000190
635 0.000188
636 0.000184
637 0.000182
638 0.000179
639 0.000177
640 0.000171
641 0.000165
642 0.000162
643 0.000160
644 0.000158
645 0.000158
646 0.000160
647 0.000159
648 0.000157
649 0.000161
650 0.000163
651 0.000168
652 0.000173
653 0.000176
654 0.000180
655 0.000182
656 0.000184
657 0.000184
658 0.000184
659 0.000182
660 0.000181
661 0.000183
662 0.000182
663 0.000184
664 0.000185
665 0.000185
666 0.000184
667 0.000184
668 0.000183
669 0.000181
670 0.000185
671 0.000186
672 0.000187
673 0.000185
674 0.000182
675 0.000180
676 0.000182
677 0.000183
678 0.000187
679 0.000191
680 0.000198
681 0.000203
682 0.000207
683 0.000210
684 0.000208
685 0.000209
686 0.000205
687 0.000204
688 0.000207
689 0.000211
690 0.000217
691 0.000219
692 0.000222
693 0.000223
694 0.000220
695 0.000219
696 0.000218
697 0.000216
698 0.000216
699 0.000216
700 0.000212
701 0.000210
702 0.000205
703 0.000202
704 0.000200
705 0.000198
706 0.000200
707 0.000201
708 0.000200
709 0.000197
710 0.000195
711 0.000192
712 0.000190
713 0.000185
714 0.000181
715 0.000175
716 0.000171
717 0.000169
718 0.000165
719 0.000162
720 0.000158
721 0.000154
722 0.000151
723 0.000148
724 0.000148
725 0.000147
726 0.000150
727 0.000151
728 0.000153
729 0.000153
730 0.000154
731 0.000153
732 0.000150
733 0.000146
734 0.000143
735 0.000141
736 0.000138
737 0.000140
738 0.000139
739 0.000137
740 0.000135
741 0.000131
742 0.000127
743 0.000125
744 0.000124
745 0.000121
746 0.000116
747 0.000110
748 0.000104
749 0.000101
750 0.000100
751 0.000098
752 0.000099
753 0.000099
754 0.000098
755 0.000098
756 0.000098
757 0.000099
758 0.000098
759 0.000098
760 0.000095
761 0.000093
762 0.000093
763 0.000094
764 0.000095
765 0.000098
766 0.000097
767 0.000098
768 0.000098
769 0.000094
770 0.000091
771 0.000092
772 0.000092
773 0.000090
774 0.000090
775 0.000088
776 0.000088
777 0.000086
778 0.000082
779 0.000079
780 0.000079
781 0.000079
782 0.000079
783 0.000078
784 0.000079
785 0.000079
786 0.000077
787 0.000077
788 0.000076
789 0.000078
790 0.000075
791 0.000072
792 0.000069
793 0.000067
794 0.000065
795 0.000064
796 0.000062
797 0.000061
798 0.000063
799 0.000066
800 0.000071
801 0.000074
802 0.000075
803 0.000077
804 0.000074
805 0.000073
806 0.000071
807 0.000072
808 0.000070
809 0.000066
