# i correlation
1 0.001645
2 0.001590
3 0.001543
4 0.001504
5 0.001467
6 0.001439
7 0.001413
8 0.001391
9 0.001374
10 0.001361
11 0.001344
12 0.001325
13 0.001317
14 0.001306
15 0.001297
16 0.001287
17 0.001279
18 0.001270
19 0.001262
20 0.001249
21 0.001238
22 0.001225
23 0.001217
24 0.001206
25 0.001191
26 0.001180
27 0.001168
28 0.001160
29 0.001147
30 0.001135
31 0.001121
32 0.001111
33 0.001103
34 0.001095
35 0.001085
36 0.001080
37 0.001076
38 0.001076
39 0.001068
40 0.001062
41 0.001058
42 0.001062
43 0.001061
44 0.001061
45 0.001062
46 0.001062
47 0.001060
48 0.001057
49 0.001052
50 0.001049
51 0.001044
52 0.001036
53 0.001028
54 0.001022
55 0.001018
56 0.001012
57 0.001010
58 0.000999
59 0.000990
60 0.000980
61 0.000972
62 0.000961
63 0.000949
64 0.000941
65 0.000934
66 0.000925
67 0.000918
68 0.000915
69 0.000908
70 0.000907
71 0.000906
72 0.000905
73 0.000901
74 0.000903
75 0.000905
76 0.000904
77 0.000899
78 0.000898
79 0.000892
80 0.000886
81 0.000884
82 0.000873
83 0.000866
84 0.000861
85 0.000855
86 0.000846
87 0.000838
88 0.000832
89 0.000826
90 0.000819
91 0.000815
92 0.000811
93 0.000809
94 0.000815
95 0.000818
96 0.000820
97 0.000823
98 0.000824
99 0.000826
100 0.000825
101 0.000824
102 0.000822
103 0.000822
104 0.000822
105 0.000823
106 0.000825
107 0.000831
108 0.000837
109 0.000842
110 0.000836
111 0.000828
112 0.000818
113 0.000809
114 0.000812
115 0.000812
116 0.000810
117 0.000813
118 0.000816
119 0.000814
120 0.000814
121 0.000812
122 0.000813
123 0.000816
124 0.000814
125 0.000811
126 0.000810
127 0.000810
128 0.000812
129 0.000816
130 0.000819
131 0.000821
132 0.000824
133 0.000823
134 0.000816
135 0.000810
136 0.000805
137 0.000795
138 0.000793
139 0.000795
140 0.000792
141 0.000793
142 0.000791
143 0.000793
144 0.000797
145 0.000804
146 0.000806
147 0.000806
148 0.000802
149 0.000801
150 0.000794
151 0.000790
152 0.000787
153 0.000780
154 0.000775
155 0.000764
156 0.000758
157 0.000754
158 0.000754
159 0.000751
160 0.000750
161 0.000743
162 0.000740
163 0.000733
164 0.000721
165 0.000709
166 0.000696
167 0.000682
168 0.000671
169 0.000665
170 0.000658
171 0.000653
172 0.000647
173 0.000644
174 0.000639
175 0.000639
176 0.000639
177 0.000639
178 0.000633
179 0.000627
180 0.000616
181 0.000608
182 0.000609
183 0.000609
184 0.000612
185 0.000614
186 0.000614
187 0.000614
188 0.000612
189 0.000610
190 0.000610
191 0.000615
192 0.000624
193 0.000629
194 0.000634
195 0.000639
196 0.000641
197 0.000644
198 0.000645
199 0.000646
200 0.000647
201 0.000648
202 0.000645
203 0.000643
204 0.000639
205 0.000633
206 0.000627
207 0.000618
208 0.000612
209 0.000605
210 0.000605
211 0.000607
212 0.000610
213 0.000614
214 0.000621
215 0.000628
216 0.000630
217 0.000630
218 0.000628
219 0.000625
220 0.000619
221 0.000614
222 0.000608
223 0.000599
224 0.000587
225 0.000576
226 0.000570
227 0.000562
228 0.000548
229 0.000539
230 0.000531
231 0.000529
232 0.000531
233 0.000531
234 0.000528
235 0.000524
236 0.000517
237 0.000511
238 0.000509
239 0.000508
240 0.000503
241 0.000499
242 0.000498
243 0.000496
244 0.000497
245 0.000494
246 0.000496
247 0.000499
248 0.000504
249 0.000508
250 0.000516
251 0.000518
252 0.000519
253 0.000520
254 0.000522
255 0.000527
256 0.000529
257 0.000531
258 0.000532
259 0.000535
260 0.000538
261 0.000542
262 0.000547
263 0.000556
264 0.000562
265 0.000572
266 0.000575
267 0.000581
268 0.000586
269 0.000591
270 0.000592
271 0.000597
272 0.000600
273 0.000599
274 0.000595
275 0.000589
276 0.000587
277 0.000587
278 0.000586
279 0.000578
280 0.000570
281 0.000566
282 0.000564
283 0.000563
284 0.000564
285 0.000557
286 0.000550
287 0.000543
288 0.000537
289 0.000534
290 0.000530
291 0.000531
292 0.000532
293 0.000535
294 0.000536
295 0.000540
296 0.000537
297 0.000534
298 0.000523
299 0.000513
300 0.000507
301 0.000504
302 0.000505
303 0.000502
304 0.000505
305 0.000506
306 0.000508
307 0.000511
308 0.000511
309 0.000509
310 0.000508
311 0.000508
312 0.000509
313 0.000506
314 0.000502
315 0.000494
316 0.000487
317 0.000481
318 0.000476
319 0.000471
320 0.000471
321 0.000472
322 0.000479
323 0.000487
324 0.000495
325 0.000499
326 0.000501
327 0.000501
328 0.000498
329 0.000496
330 0.000500
331 0.000501
332 0.000499
333 0.000496
334 0.000494
335 0.000491
336 0.000491
337 0.000488
338 0.000485
339 0.000484
340 0.000490
341 0.000498
342 0.000503
343 0.000503
344 0.000505
345 0.000508
346 0.000508
347 0.000502
348 0.000500
349 0.000501
350 0.000503
351 0.000504
352 0.000501
353 0.000499
354 0.000496
355 0.000493
356 0.000491
357 0.000488
358 0.000484
359 0.000484
360 0.000478
361 0.000472
362 0.000470
363 0.000466
364 0.000464
365 0.000458
366 0.000452
367 0.000447
368 0.000439
369 0.000436
370 0.000429
371 0.000416
372 0.000408
373 0.000402
374 0.000395
375 0.000388
376 0.000381
377 0.000374
378 0.000373
379 0.000371
380 0.000367
381 0.000358
382 0.000356
383 0.000361
384 0.000360
385 0.000354
386 0.000353
387 0.000353
388 0.000350
389 0.000349
390 0.000346
391 0.000345
392 0.000346
393 0.000348
394 0.000347
395 0.000342
396 0.000340
397 0.000336
398 0.000336
399 0.000331
400 0.000330
401 0.000331
402 0.000338
403 0.000341
404 0.000349
405 0.000358
406 0.000366
407 0.000373
408 0.000376
409 0.000375
410 0.000375
411 0.000381
412 0.000386
413 0.000386
414 0.000383
415 0.000383
416 0.000379
417 0.000376
418 0.000371
419 0.000365
420 0.000362
421 0.000360
422 0.000356
423 0.000351
424 0.000347
425 0.000343
426 0.000342
427 0.000341
428 0.000340
429 0.000340
430 0.000344
431 0.000349
432 0.000350
433 0.000352
434 0.000357
435 0.000359
436 0.000360
437 0.000356
438 0.000351
439 0.000343
440 0.000339
441 0.000336
442 0.000330
443 0.000323
444 0.000313
445 0.000308
446 0.000304
447 0.000302
448 0.000301
449 0.000299
450 0.000303
451 0.000302
452 0.000301
453 0.000307
454 0.000313
455 0.000318
456 0.000320
457 0.000321
458 0.000322
459 0.000324
460 0.000321
461 0.000322
462 0.000320
463 0.000318
464 0.000317
465 0.000316
466 0.000318
467 0.000317
468 0.000320
469 0.000322
470 0.000325
471 0.000329
472 0.000331
473 0.000328
474 0.000325
475 0.000319
476 0.000316
477 0.000316
478 0.000315
479 0.000316
480 0.000314
481 0.000315
482 0.000315
483 0.000320
484 0.000320
485 0.000319
486 0.000317
487 0.000318
488 0.000322
489 0.000326
490 0.000330
491 0.000332
492 0.000335
493 0.000332
494 0.000327
495 0.000320
496 0.000315
497 0.000307
498 0.000304
499 0.000299
500 0.000298
501 0.000293
502 0.000290
503 0.000284
504 0.000275
505 0.000268
506 0.000265
507 0.000269
508 0.000269
509 0.000270
510 0.000272
511 0.000273
512 0.000267
513 0.000263
514 0.000256
515 0.000255
516 0.000256
517 0.000256
518 0.000252
519 0.000247
520 0.000242
521 0.000240
522 0.000239
523 0.000235
524 0.000228
525 0.000220
526 0.000215
527 0.000214
528 0.000216
529 0.000216
530 0.000210
531 0.000204
532 0.000198
533 0.000193
534 0.000191
535 0.000193
536 0.000195
537 0.000197
538 0.000202
539 0.000205
540 0.000209
541 0.000215
542 0.000218
543 0.000220
544 0.000221
545 0.000223
546 0.000227
547 0.000227
548 0.000223
549 0.000220
550 0.000220
551 0.000221
552 0.000219
553 0.000217
554 0.000214
555 0.000217
556 0.000218
557 0.000221
558 0.000220
559 0.000222
560 0.000222
561 0.000220
562 0.000222
563 0.000221
564 0.000221
565 0.000223
566 0.000226
567 0.000227
568 0.000225
569 0.000217
570 0.000211
571 0.000204
572 0.000201
573 0.000197
574 0.000195
575 0.000192
576 0.000188
577 0.000185
578 0.000184
579 0.000180
580 0.000179
581 0.000180
582 0.000180
583 0.000178
584 0.000173
585 0.000174
586 0.000177
587 0.000176
588 0.000180
589 0.000181
590 0.000179
591 0.000179
592 0.000179
593 0.000175
594 0.000171
595 0.000168
596 0.000164
597 0.000165
598 0.000165
599 0.000167
600 0.000171
601 0.000174
602 0.000177
603 0.000175
604 0.000175
605 0.000179
606 0.000185
607 0.000189
608 0.000194
609 0.000198
610 0.000200
611 0.000198
612 0.000196
613 0.000192
614 0.000188
615 0.000185
616 0.000185
617 0.000186
618 0.000189
619 0.000192
620 0.000188
621 0.000186
622 0.000185
623 0.000182
624 0.000184
625 0.000188
626 0.000187
627 0.000185
628 0.000182
629 0.000178
630 0.000174
631 0.000170
632 0.000167
633 0.000163
634 0.000160
635 0.000157
636 0.000152
637 0.000150
638 0.000147
639 0.000141
640 0.000137
641 0.000132
642 0.000129
643 0.000128
644 0.000125
645 0.000122
646 0.000122
647 0.000120
648 0.000121
649 0.000119
650 0.000118
651 0.000117
652 0.000117
653 0.000117
654 0.000118
655 0.000118
656 0.000120
657 0.000118
658 0.000117
659 0.000117
660 0.000116
661 0.000116
662 0.000112
663 0.000110
664 0.000106
665 0.000099
666 0.000094
667 0.000093
668 0.000091
669 0.000093
670 0.000097
671 0.000100
672 0.000100
673 0.000103
674 0.000105
675 0.000105
676 0.000106
677 0.000105
678 0.000100
679 0.000096
680 0.000094
681 0.000092
682 0.000092
683 0.000095
684 0.000101
685 0.000105
686 0.000109
687 0.000111
688 0.000110
689 0.000109
690 0.000106
691 0.000107
692 0.000108
693 0.000109
694 0.000112
695 0.000114
696 0.000114
697 0.000113
698 0.000111
699 0.000109
700 0.000112
701 0.000112
702 0.000112
703 0.000117
704 0.000119
705 0.000122
706 0.000125
707 0.000124
708 0.000124
709 0.000125
710 0.000127
711 0.000128
712 0.000124
713 0.000123
714 0.000122
715 0.000119
716 0.000115
717 0.000114
718 0.000113
719 0.000115
720 0.000118
721 0.000117
722 0.000112
723 0.000106
724 0.000106
725 0.000106
726 0.000104
727 0.000104
728 0.000104
729 0.000102
730 0.000101
731 0.000100
732 0.000097
733 0.000096
734 0.000096
735 0.000096
736 0.000095
737 0.000096
738 0.000096
739 0.000095
740 0.000093
741 0.000092
742 0.000093
743 0.000093
744 0.000090
745 0.000086
746 0.000079
747 0.000072
748 0.000069
749 0.000067
750 0.000065
751 0.000063
752 0.000060
753 0.000054
754 0.000052
755 0.000050
756 0.000048
757 0.000051
758 0.000053
759 0.000052
760 0.000054
761 0.000056
762 0.000055
763 0.000053
764 0.000051
765 0.000049
766 0.000048
767 0.000050
768 0.000051
769 0.000049
770 0.000050
771 0.000050
772 0.000050
773 0.000047
774 0.000046
775 0.000047
776 0.000047
777 0.000048
778 0.000050
779 0.000050
780 0.000050
781 0.000052
782 0.000054
783 0.000053
784 0.000054
785 0.000055
786 0.000054
787 0.000052
788 0.000053
789 0.000051
790 0.000048
791 0.000047
792 0.000049
793 0.000048
794 0.000047
795 0.000044
796 0.000038
797 0.000033
798 0.000029
799 0.000026
800 0.000029
801 0.000032
802 0.000036
803 0.000042
804 0.000046
805 0.000050
806 0.000053
807 0.000055
808 0.000056
809 0.000057
