# i correlation
1 0.001872
2 0.001821
3 0.001776
4 0.001737
5 0.001706
6 0.001678
7 0.001651
8 0.001633
9 0.001610
10 0.001586
11 0.001565
12 0.001551
13 0.001542
14 0.001529
15 0.001512
16 0.001499
17 0.001490
18 0.001480
19 0.001471
20 0.001459
21 0.001450
22 0.001440
23 0.001431
24 0.001420
25 0.001411
26 0.001408
27 0.001395
28 0.001381
29 0.001370
30 0.001360
31 0.001346
32 0.001339
33 0.001325
34 0.001309
35 0.001293
36 0.001275
37 0.001263
38 0.001255
39 0.001246
40 0.001238
41 0.001232
42 0.001229
43 0.001225
44 0.001225
45 0.001217
46 0.001216
47 0.001213
48 0.001204
49 0.001196
50 0.001191
51 0.001184
52 0.001175
53 0.001169
54 0.001159
55 0.001148
56 0.001139
57 0.001125
58 0.001118
59 0.001114
60 0.001108
61 0.001101
62 0.001095
63 0.001091
64 0.001092
65 0.001091
66 0.001089
67 0.001082
68 0.001079
69 0.001076
70 0.001075
71 0.001073
72 0.001073
73 0.001075
74 0.001081
75 0.001083
76 0.001091
77 0.001093
78 0.001092
79 0.001090
80 0.001088
81 0.001078
82 0.001075
83 0.001069
84 0.001065
85 0.001059
86 0.001053
87 0.001047
88 0.001048
89 0.001049
90 0.001046
91 0.001042
92 0.001040
93 0.001036
94 0.001037
95 0.001035
96 0.001037
97 0.001044
98 0.001046
99 0.001041
100 0.001039
101 0.001032
102 0.001027
103 0.001026
104 0.001023
105 0.001018
106 0.001015
107 0.001004
108 0.000995
109 0.000984
110 0.000971
111 0.000960
112 0.000957
113 0.000949
114 0.000941
115 0.000938
116 0.000935
117 0.000929
118 0.000922
119 0.000917
120 0.000910
121 0.000905
122 0.000905
123 0.000912
124 0.000917
125 0.000920
126 0.000925
127 0.000929
128 0.000929
129 0.000925
130 0.000923
131 0.000920
132 0.000917
133 0.000911
134 0.000906
135 0.000899
136 0.000899
137 0.000891
138 0.000887
139 0.000877
140 0.000868
141 0.000866
142 0.000869
143 0.000869
144 0.000873
145 0.000883
146 0.000889
147 0.000891
148 0.000893
149 0.000894
150 0.000904
151 0.000911
152 0.000915
153 0.000917
154 0.000915
155 0.000912
156 0.000909
157 0.000906
158 0.000901
159 0.000899
160 0.000894
161 0.000889
162 0.000884
163 0.000882
164 0.000883
165 0.000881
166 0.000880
167 0.000873
168 0.000873
169 0.000872
170 0.000868
171 0.000865
172 0.000862
173 0.000861
174 0.000864
175 0.000862
176 0.000865
177 0.000871
178 0.000876
179 0.000873
180 0.000875
181 0.000866
182 0.000863
183 0.000854
184 0.000841
185 0.000827
186 0.000812
187 0.000800
188 0.000791
189 0.000785
190 0.000775
191 0.000772
192 0.000779
193 0.000783
194 0.000783
195 0.000783
196 0.000781
197 0.000783
198 0.000787
199 0.000784
200 0.000782
201 0.000784
202 0.000784
203 0.000780
204 0.000774
205 0.000766
206 0.000763
207 0.000757
208 0.000749
209 0.000740
210 0.000734
211 0.000728
212 0.000727
213 0.000721
214 0.000715
215 0.000713
216 0.000710
217 0.000707
218 0.000707
219 0.000704
220 0.000708
221 0.000708
222 0.000710
223 0.000709
224 0.000712
225 0.000712
226 0.000709
227 0.000709
228 0.000709
229 0.000711
230 0.000716
231 0.000721
232 0.000724
233 0.000724
234 0.000720
235 0.000718
236 0.000718
237 0.000716
238 0.000712
239 0.000712
240 0.000708
241 0.000707
242 0.000708
243 0.000708
244 0.000708
245 0.000708
246 0.000702
247 0.000698
248 0.000701
249 0.000695
250 0.000691
251 0.000689
252 0.000687
253 0.000686
254 0.000687
255 0.000679
256 0.000675
257 0.000673
258 0.000670
259 0.000664
260 0.000661
261 0.000659
262 0.000662
263 0.000659
264 0.000656
265 0.000648
266 0.000644
267 0.000637
268 0.000632
269 0.000631
270 0.000627
271 0.000625
272 0.000620
273 0.000613
274 0.000611
275 0.000608
276 0.000606
277 0.000601
278 0.000599
279 0.000594
280 0.000595
281 0.000594
282 0.000596
283 0.000599
284 0.000597
285 0.000595
286 0.000597
287 0.000596
288 0.000595
289 0.000591
290 0.000594
291 0.000594
292 0.000595
293 0.000592
294 0.000588
295 0.000589
296 0.000594
297 0.000597
298 0.000597
299 0.000597
300 0.000597
301 0.000604
302 0.000603
303 0.000604
304 0.000608
305 0.000611
306 0.000614
307 0.000616
308 0.000619
309 0.000622
310 0.000623
311 0.000621
312 0.000619
313 0.000617
314 0.000616
315 0.000612
316 0.000608
317 0.000602
318 0.000599
319 0.000596
320 0.000596
321 0.000595
322 0.000591
323 0.000586
324 0.000582
325 0.000582
326 0.000580
327 0.000582
328 0.000583
329 0.000582
330 0.000587
331 0.000591
332 0.000592
333 0.000595
334 0.000600
335 0.000600
336 0.000595
337 0.000592
338 0.000588
339 0.000582
340 0.000582
341 0.000580
342 0.000580
343 0.000582
344 0.000583
345 0.000585
346 0.000588
347 0.000588
348 0.000588
349 0.000580
350 0.000577
351 0.000575
352 0.000570
353 0.000562
354 0.000560
355 0.000554
356 0.000554
357 0.000554
358 0.000556
359 0.000556
360 0.000559
361 0.000554
362 0.000547
363 0.000542
364 0.000534
365 0.000530
366 0.000527
367 0.000527
368 0.000523
369 0.000520
370 0.000514
371 0.000510
372 0.000505
373 0.000503
374 0.000498
375 0.000493
376 0.000487
377 0.000482
378 0.000482
379 0.000483
380 0.000486
381 0.000490
382 0.000487
383 0.000478
384 0.000476
385 0.000470
386 0.000468
387 0.000462
388 0.000456
389 0.000453
390 0.000453
391 0.000450
392 0.000447
393 0.000446
394 0.000445
395 0.000448
396 0.000450
397 0.000447
398 0.000450
399 0.000455
400 0.000461
401 0.000466
402 0.000467
403 0.000468
404 0.000466
405 0.000463
406 0.000458
407 0.000456
408 0.000452
409 0.000449
410 0.000451
411 0.000450
412 0.000450
413 0.000449
414 0.000448
415 0.000440
416 0.000434
417 0.000425
418 0.000417
419 0.000414
420 0.000412
421 0.000410
422 0.000411
423 0.000409
424 0.000411
425 0.000414
426 0.000413
427 0.000409
428 0.000409
429 0.000405
430 0.000401
431 0.000398
432 0.000394
433 0.000390
434 0.000388
435 0.000380
436 0.000372
437 0.000371
438 0.000370
439 0.000369
440 0.000368
441 0.000363
442 0.000363
443 0.000364
444 0.000363
445 0.000360
446 0.000358
447 0.000356
448 0.000351
449 0.000347
450 0.000342
451 0.000339
452 0.000329
453 0.000322
454 0.000316
455 0.000312
456 0.000314
457 0.000318
458 0.000320
459 0.000320
460 0.000320
461 0.000314
462 0.000310
463 0.000309
464 0.000310
465 0.000309
466 0.000307
467 0.000303
468 0.000297
469 0.000293
470 0.000288
471 0.000286
472 0.000285
473 0.000286
474 0.000284
475 0.000286
476 0.000284
477 0.000282
478 0.000283
479 0.000282
480 0.000279
481 0.000276
482 0.000271
483 0.000269
484 0.000270
485 0.000272
486 0.000276
487 0.000276
488 0.000280
489 0.000281
490 0.000284
491 0.000283
492 0.000283
493 0.000285
494 0.000282
495 0.000277
496 0.000279
497 0.000281
498 0.000288
499 0.000291
500 0.000291
501 0.000294
502 0.000296
503 0.000296
504 0.000299
505 0.000306
506 0.000313
507 0.000321
508 0.000328
509 0.000331
510 0.000333
511 0.000333
512 0.000335
513 0.000334
514 0.000333
515 0.000331
516 0.000328
517 0.000321
518 0.000314
519 0.000306
520 0.000296
521 0.000286
522 0.000280
523 0.000278
524 0.000276
525 0.000277
526 0.000282
527 0.000286
528 0.000288
529 0.000288
530 0.000285
531 0.000285
532 0.000286
533 0.000286
534 0.000286
535 0.000283
536 0.000281
537 0.000282
538 0.000281
539 0.000281
540 0.000284
541 0.000283
542 0.000278
543 0.000273
544 0.000269
545 0.000268
546 0.000267
547 0.000268
548 0.000269
549 0.000270
550 0.000271
551 0.000272
552 0.000274
553 0.000279
554 0.000284
555 0.000288
556 0.000290
557 0.000290
558 0.000292
559 0.000291
560 0.000289
561 0.000286
562 0.000284
563 0.000281
564 0.000277
565 0.000273
566 0.000271
567 0.000270
568 0.000263
569 0.000256
570 0.000252
571 0.000247
572 0.000245
573 0.000248
574 0.000245
575 0.000245
576 0.000246
577 0.000243
578 0.000243
579 0.000243
580 0.000243
581 0.000244
582 0.000247
583 0.000246
584 0.000245
585 0.000247
586 0.000246
587 0.000246
588 0.000244
589 0.000242
590 0.000239
591 0.000237
592 0.000232
593 0.000231
594 0.000232
595 0.000230
596 0.000228
597 0.000223
598 0.000216
599 0.000211
600 0.000205
601 0.000199
602 0.000199
603 0.000200
604 0.000206
605 0.000212
606 0.000214
607 0.000215
608 0.000218
609 0.000220
610 0.000220
611 0.000223
612 0.000226
613 0.000229
614 0.000227
615 0.000220
616 0.000213
617 0.000210
618 0.000203
619 0.000196
620 0.000191
621 0.000186
622 0.000179
623 0.000176
624 0.000172
625 0.000169
626 0.000168
627 0.000166
628 0.000161
629 0.000155
630 0.000150
631 0.000151
632 0.000153
633 0.000155
634 0.000157
635 0.000158
636 0.000162
637 0.000164
638 0.000165
639 0.000167
640 0.000166
641 0.000169
642 0.000173
643 0.000178
644 0.000184
645 0.000186
646 0.000184
647 0.000180
648 0.000176
649 0.000176
650 0.000172
651 0.000171
652 0.000170
653 0.000169
654 0.000164
655 0.000165
656 0.000163
657 0.000167
658 0.000171
659 0.000176
660 0.000179
661 0.000181
662 0.000183
663 0.000182
664 0.000185
665 0.000187
666 0.000185
667 0.000186
668 0.000185
669 0.000184
670 0.000185
671 0.000184
672 0.000182
673 0.000180
674 0.000181
675 0.000179
676 0.000181
677 0.000182
678 0.000186
679 0.000188
680 0.000187
681 0.000186
682 0.000187
683 0.000188
684 0.000185
685 0.000183
686 0.000182
687 0.000182
688 0.000180
689 0.000174
690 0.000171
691 0.000167
692 0.000162
693 0.000155
694 0.000148
695 0.000141
696 0.000134
697 0.000126
698 0.000114
699 0.000105
700 0.000098
701 0.000096
702 0.000095
703 0.000092
704 0.000092
705 0.000093
706 0.000093
707 0.000088
708 0.000089
709 0.000090
710 0.000092
711 0.000094
712 0.000096
713 0.000099
714 0.000101
715 0.000098
716 0.000093
717 0.000091
718 0.000090
719 0.000086
720 0.000083
721 0.000081
722 0.000079
723 0.000077
724 0.000073
725 0.000071
726 0.000070
727 0.000071
728 0.000073
729 0.000074
730 0.000076
731 0.000081
732 0.000084
733 0.000087
734 0.000089
735 0.000093
736 0.000098
737 0.000101
738 0.000105
739 0.000111
740 0.000117
741 0.000121
742 0.000122
743 0.000124
744 0.000125
745 0.000125
746 0.000127
747 0.000132
748 0.000138
749 0.000146
750 0.000154
751 0.000158
752 0.000161
753 0.000159
754 0.000158
755 0.000158
756 0.000159
757 0.000163
758 0.000166
759 0.000172
760 0.000177
761 0.000178
762 0.000180
763 0.000182
764 0.000184
765 0.000188
766 0.000188
767 0.000184
768 0.000185
769 0.000183
770 0.000182
771 0.000183
772 0.000183
773 0.000178
774 0.000175
775 0.000168
776 0.000162
777 0.000158
778 0.000154
779 0.000150
780 0.000147
781 0.000142
782 0.000140
783 0.000138
784 0.000136
785 0.000137
786 0.000135
787 0.000133
788 0.000132
789 0.000130
790 0.000126
791 0.000125
792 0.000124
793 0.000123
794 0.000123
795 0.000122
796 0.000118
797 0.000115
798 0.000111
799 0.000104
800 0.000099
801 0.000096
802 0.000096
803 0.000095
804 0.000091
805 0.000090
806 0.000089
807 0.000086
808 0.000083
809 0.000081
