# i correlation
1 0.001765
2 0.001707
3 0.001667
4 0.001635
5 0.001602
6 0.001571
7 0.001546
8 0.001519
9 0.001489
10 0.001465
11 0.001441
12 0.001415
13 0.001393
14 0.001373
15 0.001363
16 0.001358
17 0.001353
18 0.001353
19 0.001351
20 0.001348
21 0.001341
22 0.001331
23 0.001318
24 0.001308
25 0.001302
26 0.001300
27 0.001295
28 0.001297
29 0.001299
30 0.001296
31 0.001290
32 0.001288
33 0.001285
34 0.001280
35 0.001279
36 0.001277
37 0.001271
38 0.001265
39 0.001261
40 0.001258
41 0.001249
42 0.001236
43 0.001219
44 0.001205
45 0.001192
46 0.001180
47 0.001170
48 0.001161
49 0.001146
50 0.001132
51 0.001123
52 0.001115
53 0.001106
54 0.001099
55 0.001098
56 0.001093
57 0.001086
58 0.001078
59 0.001073
60 0.001068
61 0.001057
62 0.001048
63 0.001047
64 0.001042
65 0.001036
66 0.001031
67 0.001025
68 0.001020
69 0.001016
70 0.001011
71 0.001003
72 0.000998
73 0.001000
74 0.001007
75 0.001003
76 0.001002
77 0.001005
78 0.001011
79 0.001009
80 0.001009
81 0.001009
82 0.001008
83 0.001001
84 0.000997
85 0.001000
86 0.001002
87 0.001003
88 0.001005
89 0.001004
90 0.001003
91 0.000995
92 0.000989
93 0.000986
94 0.000983
95 0.000986
96 0.000988
97 0.000983
98 0.000976
99 0.000971
100 0.000970
101 0.000967
102 0.000969
103 0.000970
104 0.000970
105 0.000969
106 0.000968
107 0.000971
108 0.000969
109 0.000963
110 0.000957
111 0.000950
112 0.000942
113 0.000936
114 0.000932
115 0.000927
116 0.000921
117 0.000918
118 0.000912
119 0.000910
120 0.000915
121 0.000915
122 0.000923
123 0.000930
124 0.000929
125 0.000926
126 0.000921
127 0.000916
128 0.000910
129 0.000905
130 0.000895
131 0.000883
132 0.000871
133 0.000863
134 0.000855
135 0.000848
136 0.000840
137 0.000835
138 0.000830
139 0.000823
140 0.000820
141 0.000819
142 0.000819
143 0.000820
144 0.000822
145 0.000820
146 0.000817
147 0.000817
148 0.000811
149 0.000808
150 0.000808
151 0.000805
152 0.000800
153 0.000796
154 0.000794
155 0.000793
156 0.000790
157 0.000783
158 0.000781
159 0.000784
160 0.000787
161 0.000789
162 0.000792
163 0.000797
164 0.000802
165 0.000806
166 0.000808
167 0.000809
168 0.000807
169 0.000805
170 0.000801
171 0.000801
172 0.000800
173 0.000796
174 0.000798
175 0.000796
176 0.000794
177 0.000790
178 0.000779
179 0.000771
180 0.000767
181 0.000767
182 0.000769
183 0.000766
184 0.000763
185 0.000758
186 0.000752
187 0.000745
188 0.000741
189 0.000740
190 0.000739
191 0.000739
192 0.000742
193 0.000746
194 0.000749
195 0.000750
196 0.000749
197 0.000758
198 0.000764
199 0.000767
200 0.000769
201 0.000776
202 0.000781
203 0.000783
204 0.000786
205 0.000786
206 0.000778
207 0.000771
208 0.000763
209 0.000757
210 0.000760
211 0.000765
212 0.000763
213 0.000759
214 0.000754
215 0.000749
216 0.000741
217 0.000735
218 0.000730
219 0.000724
220 0.000719
221 0.000715
222 0.000714
223 0.000712
224 0.000711
225 0.000710
226 0.000703
227 0.000697
228 0.000691
229 0.000693
230 0.000693
231 0.000693
232 0.000694
233 0.000692
234 0.000685
235 0.000676
236 0.000672
237 0.000669
238 0.000660
239 0.000658
240 0.000662
241 0.000659
242 0.000655
243 0.000647
244 0.000642
245 0.000642
246 0.000645
247 0.000647
248 0.000646
249 0.000652
250 0.000660
251 0.000661
252 0.000660
253 0.000657
254 0.000655
255 0.000651
256 0.000645
257 0.000641
258 0.000638
259 0.000632
260 0.000623
261 0.000613
262 0.000604
263 0.000593
264 0.000588
265 0.000581
266 0.000575
267 0.000574
268 0.000574
269 0.000570
270 0.000571
271 0.000576
272 0.000579
273 0.000579
274 0.000575
275 0.000572
276 0.000568
277 0.000567
278 0.000568
279 0.000567
280 0.000568
281 0.000565
282 0.000562
283 0.000560
284 0.000560
285 0.000563
286 0.000564
287 0.000568
288 0.000577
289 0.000584
290 0.000586
291 0.000585
292 0.000585
293 0.000585
294 0.000577
295 0.000567
296 0.000561
297 0.000553
298 0.000542
299 0.000532
300 0.000528
301 0.000519
302 0.000517
303 0.000518
304 0.000521
305 0.000526
306 0.000533
307 0.000536
308 0.000534
309 0.000537
310 0.000542
311 0.000547
312 0.000550
313 0.000552
314 0.000553
315 0.000551
316 0.000539
317 0.000528
318 0.000523
319 0.000516
320 0.000507
321 0.000503
322 0.000497
323 0.000490
324 0.000485
325 0.000485
326 0.000483
327 0.000484
328 0.000480
329 0.000472
330 0.000463
331 0.000457
332 0.000454
333 0.000449
334 0.000442
335 0.000441
336 0.000438
337 0.000436
338 0.000430
339 0.000425
340 0.000422
341 0.000418
342 0.000413
343 0.000406
344 0.000410
345 0.000414
346 0.000418
347 0.000421
348 0.000420
349 0.000419
350 0.000418
351 0.000422
352 0.000420
353 0.000420
354 0.000422
355 0.000420
356 0.000416
357 0.000415
358 0.000415
359 0.000412
360 0.000403
361 0.000394
362 0.000392
363 0.000389
364 0.000388
365 0.000387
366 0.000384
367 0.000380
368 0.000371
369 0.000365
370 0.000361
371 0.000350
372 0.000343
373 0.000341
374 0.000344
375 0.000346
376 0.000347
377 0.000344
378 0.000347
379 0.000348
380 0.000350
381 0.000351
382 0.000354
383 0.000357
384 0.000361
385 0.000362
386 0.000365
387 0.000373
388 0.000377
389 0.000375
390 0.000372
391 0.000371
392 0.000375
393 0.000381
394 0.000380
395 0.000378
396 0.000373
397 0.000369
398 0.000363
399 0.000360
400 0.000358
401 0.000353
402 0.000349
403 0.000345
404 0.000343
405 0.000341
406 0.000342
407 0.000339
408 0.000341
409 0.000344
410 0.000347
411 0.000351
412 0.000353
413 0.000356
414 0.000359
415 0.000365
416 0.000369
417 0.000375
418 0.000377
419 0.000379
420 0.000379
421 0.000373
422 0.000368
423 0.000360
424 0.000354
425 0.000344
426 0.000337
427 0.000333
428 0.000332
429 0.000331
430 0.000325
431 0.000322
432 0.000320
433 0.000318
434 0.000321
435 0.000326
436 0.000329
437 0.000327
438 0.000324
439 0.000324
440 0.000322
441 0.000316
442 0.000307
443 0.000297
444 0.000291
445 0.000283
446 0.000279
447 0.000283
448 0.000288
449 0.000287
450 0.000283
451 0.000280
452 0.000281
453 0.000283
454 0.000284
455 0.000284
456 0.000284
457 0.000282
458 0.000276
459 0.000270
460 0.000262
461 0.000255
462 0.000250
463 0.000243
464 0.000241
465 0.000242
466 0.000243
467 0.000243
468 0.000246
469 0.000251
470 0.000255
471 0.000264
472 0.000270
473 0.000271
474 0.000275
475 0.000281
476 0.000283
477 0.000289
478 0.000293
479 0.000300
480 0.000303
481 0.000305
482 0.000308
483 0.000309
484 0.000307
485 0.000307
486 0.000311
487 0.000314
488 0.000316
489 0.000318
490 0.000319
491 0.000318
492 0.000314
493 0.000311
494 0.000306
495 0.000302
496 0.000296
497 0.000295
498 0.000293
499 0.000288
500 0.000285
501 0.000284
502 0.000278
503 0.000275
504 0.000275
505 0.000280
506 0.000284
507 0.000289
508 0.000294
509 0.000301
510 0.000308
511 0.000317
512 0.000322
513 0.000329
514 0.000334
515 0.000338
516 0.000342
517 0.000350
518 0.000353
519 0.000356
520 0.000353
521 0.000350
522 0.000346
523 0.000342
524 0.000336
525 0.000333
526 0.000333
527 0.000333
528 0.000330
529 0.000331
530 0.000332
531 0.000331
532 0.000328
533 0.000328
534 0.000327
535 0.000329
536 0.000328
537 0.000332
538 0.000338
539 0.000343
540 0.000345
541 0.000344
542 0.000346
543 0.000348
544 0.000349
545 0.000353
546 0.000359
547 0.000363
548 0.000362
549 0.000361
550 0.000361
551 0.000360
552 0.000358
553 0.000353
554 0.000351
555 0.000353
556 0.000355
557 0.000356
558 0.000358
559 0.000361
560 0.000366
561 0.000370
562 0.000373
563 0.000371
564 0.000372
565 0.000367
566 0.000363
567 0.000362
568 0.000356
569 0.000349
570 0.000340
571 0.000332
572 0.000324
573 0.000316
574 0.000310
575 0.000305
576 0.000301
577 0.000303
578 0.000304
579 0.000304
580 0.000305
581 0.000306
582 0.000309
583 0.000312
584 0.000317
585 0.000323
586 0.000331
587 0.000337
588 0.000338
589 0.000336
590 0.000336
591 0.000337
592 0.000336
593 0.000337
594 0.000338
595 0.000336
596 0.000333
597 0.000333
598 0.000328
599 0.000323
600 0.000317
601 0.000311
602 0.000308
603 0.000308
604 0.000305
605 0.000302
606 0.000295
607 0.000286
608 0.000277
609 0.000267
610 0.000254
611 0.000243
612 0.000234
613 0.000227
614 0.000221
615 0.000219
616 0.000215
617 0.000211
618 0.000206
619 0.000201
620 0.000196
621 0.000193
622 0.000193
623 0.000194
624 0.000197
625 0.000200
626 0.000198
627 0.000193
628 0.000191
629 0.000192
630 0.000190
631 0.000186
632 0.000182
633 0.000183
634 0.000185
635 0.000186
636 0.000181
637 0.000178
638 0.000178
639 0.000178
640 0.000181
641 0.000183
642 0.000187
643 0.000185
644 0.000181
645 0.000176
646 0.000175
647 0.000173
648 0.000168
649 0.000162
650 0.000161
651 0.000158
652 0.000153
653 0.000148
654 0.000144
655 0.000136
656 0.000127
657 0.000122
658 0.000117
659 0.000113
660 0.000110
661 0.000105
662 0.000100
663 0.000101
664 0.000102
665 0.000102
666 0.000102
667 0.000105
668 0.000110
669 0.000116
670 0.000123
671 0.000127
672 0.000130
673 0.000132
674 0.000134
675 0.000133
676 0.000132
677 0.000130
678 0.000129
679 0.000132
680 0.000136
681 0.000140
682 0.000143
683 0.000147
684 0.000146
685 0.000146
686 0.000147
687 0.000149
688 0.000150
689 0.000153
690 0.000158
691 0.000161
692 0.000159
693 0.000160
694 0.000159
695 0.000155
696 0.000151
697 0.000147
698 0.000148
699 0.000147
700 0.000143
701 0.000141
702 0.000140
703 0.000140
704 0.000140
705 0.000139
706 0.000135
707 0.000133
708 0.000132
709 0.000134
710 0.000134
711 0.000140
712 0.000143
713 0.000143
714 0.000142
715 0.000140
716 0.000138
717 0.000134
718 0.000128
719 0.000125
720 0.000123
721 0.000121
722 0.000121
723 0.000117
724 0.000117
725 0.000115
726 0.000115
727 0.000115
728 0.000118
729 0.000117
730 0.000115
731 0.000117
732 0.000120
733 0.000121
734 0.000122
735 0.000120
736 0.000115
737 0.000112
738 0.000113
739 0.000114
740 0.000110
741 0.000109
742 0.000107
743 0.000107
744 0.000106
745 0.000104
746 0.000102
747 0.000100
748 0.000096
749 0.000090
750 0.000087
751 0.000083
752 0.000080
753 0.000076
754 0.000072
755 0.000067
756 0.000061
757 0.000059
758 0.000056
759 0.000057
760 0.000061
761 0.000068
762 0.000074
763 0.000077
764 0.000079
765 0.000079
766 0.000077
767 0.000076
768 0.000079
769 0.000080
770 0.000079
771 0.000082
772 0.000085
773 0.000084
774 0.000082
775 0.000081
776 0.000080
777 0.000079
778 0.000078
779 0.000078
780 0.000076
781 0.000075
782 0.000073
783 0.000072
784 0.000069
785 0.000065
786 0.000065
787 0.000068
788 0.000068
789 0.000066
790 0.000067
791 0.000070
792 0.000072
793 0.000075
794 0.000079
795 0.000081
796 0.000086
797 0.000092
798 0.000099
799 0.000102
800 0.000105
801 0.000109
802 0.000116
803 0.000120
804 0.000124
805 0.000125
806 0.000129
807 0.000133
808 0.000133
809 0.000131
