# i correlation
1 0.001655
2 0.001608
3 0.001565
4 0.001532
5 0.001506
6 0.001485
7 0.001467
8 0.001452
9 0.001432
10 0.001416
11 0.001402
12 0.001392
13 0.001380
14 0.001370
15 0.001364
16 0.001359
17 0.001353
18 0.001350
19 0.001347
20 0.001351
21 0.001345
22 0.001338
23 0.001330
24 0.001315
25 0.001308
26 0.001299
27 0.001286
28 0.001272
29 0.001264
30 0.001253
31 0.001242
32 0.001234
33 0.001229
34 0.001221
35 0.001214
36 0.001207
37 0.001202
38 0.001200
39 0.001191
40 0.001181
41 0.001174
42 0.001170
43 0.001167
44 0.001161
45 0.001159
46 0.001155
47 0.001150
48 0.001147
49 0.001143
50 0.001138
51 0.001136
52 0.001131
53 0.001130
54 0.001124
55 0.001115
56 0.001109
57 0.001096
58 0.001085
59 0.001076
60 0.001067
61 0.001051
62 0.001044
63 0.001039
64 0.001034
65 0.001031
66 0.001027
67 0.001027
68 0.001028
69 0.001026
70 0.001029
71 0.001034
72 0.001030
73 0.001028
74 0.001022
75 0.001015
76 0.001014
77 0.001009
78 0.001001
79 0.000989
80 0.000981
81 0.000970
82 0.000965
83 0.000963
84 0.000958
85 0.000959
86 0.000964
87 0.000966
88 0.000968
89 0.000962
90 0.000951
91 0.000941
92 0.000928
93 0.000924
94 0.000918
95 0.000910
96 0.000902
97 0.000895
98 0.000891
99 0.000886
100 0.000878
101 0.000870
102 0.000861
103 0.000856
104 0.000848
105 0.000848
106 0.000851
107 0.000856
108 0.000860
109 0.000868
110 0.000872
111 0.000872
112 0.000867
113 0.000868
114 0.000869
115 0.000866
116 0.000861
117 0.000849
118 0.000836
119 0.000824
120 0.000817
121 0.000811
122 0.000808
123 0.000809
124 0.000809
125 0.000811
126 0.000815
127 0.000821
128 0.000820
129 0.000815
130 0.000807
131 0.000800
132 0.000797
133 0.000798
134 0.000800
135 0.000802
136 0.000801
137 0.000796
138 0.000792
139 0.000790
140 0.000792
141 0.000791
142 0.000794
143 0.000794
144 0.000791
145 0.000786
146 0.000781
147 0.000781
148 0.000777
149 0.000772
150 0.000770
151 0.000769
152 0.000767
153 0.000767
154 0.000766
155 0.000765
156 0.000769
157 0.000768
158 0.000771
159 0.000771
160 0.000775
161 0.000777
162 0.000779
163 0.000782
164 0.000786
165 0.000790
166 0.000790
167 0.000788
168 0.000780
169 0.000774
170 0.000767
171 0.000760
172 0.000755
173 0.000755
174 0.000754
175 0.000752
176 0.000755
177 0.000755
178 0.000755
179 0.000752
180 0.000754
181 0.000757
182 0.000757
183 0.000760
184 0.000762
185 0.000766
186 0.000767
187 0.000770
188 0.000771
189 0.000769
190 0.000761
191 0.000755
192 0.000754
193 0.000756
194 0.000759
195 0.000761
196 0.000766
197 0.000766
198 0.000767
199 0.000766
200 0.000762
201 0.000758
202 0.000757
203 0.000755
204 0.000753
205 0.000745
206 0.000738
207 0.000731
208 0.000726
209 0.000720
210 0.000722
211 0.000717
212 0.000713
213 0.000712
214 0.000712
215 0.000709
216 0.000708
217 0.000701
218 0.000696
219 0.000690
220 0.000685
221 0.000685
222 0.000682
223 0.000682
224 0.000680
225 0.000677
226 0.000674
227 0.000667
228 0.000661
229 0.000656
230 0.000654
231 0.000651
232 0.000648
233 0.000647
234 0.000649
235 0.000650
236 0.000653
237 0.000653
238 0.000650
239 0.000646
240 0.000646
241 0.000646
242 0.000646
243 0.000640
244 0.000632
245 0.000620
246 0.000610
247 0.000602
248 0.000592
249 0.000590
250 0.000589
251 0.000589
252 0.000587
253 0.000581
254 0.000574
255 0.000569
256 0.000557
257 0.000546
258 0.000539
259 0.000533
260 0.000526
261 0.000522
262 0.000517
263 0.000512
264 0.000504
265 0.000496
266 0.000492
267 0.000493
268 0.000490
269 0.000491
270 0.000493
271 0.000493
272 0.000496
273 0.000491
274 0.000490
275 0.000491
276 0.000491
277 0.000484
278 0.000478
279 0.000471
280 0.000467
281 0.000467
282 0.000470
283 0.000474
284 0.000478
285 0.000474
286 0.000471
287 0.000471
288 0.000471
289 0.000469
290 0.000472
291 0.000471
292 0.000472
293 0.000468
294 0.000462
295 0.000452
296 0.000447
297 0.000442
298 0.000441
299 0.000436
300 0.000431
301 0.000428
302 0.000421
303 0.000419
304 0.000414
305 0.000408
306 0.000406
307 0.000408
308 0.000411
309 0.000419
310 0.000425
311 0.000431
312 0.000436
313 0.000438
314 0.000439
315 0.000437
316 0.000433
317 0.000431
318 0.000427
319 0.000422
320 0.000417
321 0.000416
322 0.000412
323 0.000414
324 0.000413
325 0.000411
326 0.000410
327 0.000409
328 0.000407
329 0.000411
330 0.000414
331 0.000416
332 0.000418
333 0.000415
334 0.000414
335 0.000411
336 0.000410
337 0.000409
338 0.000406
339 0.000405
340 0.000405
341 0.000405
342 0.000401
343 0.000398
344 0.000394
345 0.000392
346 0.000394
347 0.000395
348 0.000396
349 0.000400
350 0.000404
351 0.000405
352 0.000406
353 0.000404
354 0.000406
355 0.000411
356 0.000417
357 0.000416
358 0.000416
359 0.000417
360 0.000420
361 0.000424
362 0.000420
363 0.000421
364 0.000422
365 0.000423
366 0.000424
367 0.000424
368 0.000424
369 0.000425
370 0.000425
371 0.000423
372 0.000420
373 0.000415
374 0.000415
375 0.000410
376 0.000409
377 0.000415
378 0.000415
379 0.000416
380 0.000415
381 0.000417
382 0.000420
383 0.000427
384 0.000434
385 0.000444
386 0.000453
387 0.000458
388 0.000457
389 0.000456
390 0.000454
391 0.000449
392 0.000447
393 0.000443
394 0.000442
395 0.000439
396 0.000436
397 0.000441
398 0.000444
399 0.000450
400 0.000449
401 0.000445
402 0.000444
403 0.000444
404 0.000445
405 0.000444
406 0.000445
407 0.000444
408 0.000443
409 0.000441
410 0.000437
411 0.000433
412 0.000434
413 0.000428
414 0.000424
415 0.000422
416 0.000418
417 0.000418
418 0.000419
419 0.000420
420 0.000424
421 0.000421
422 0.000416
423 0.000413
424 0.000410
425 0.000411
426 0.000414
427 0.000414
428 0.000417
429 0.000412
430 0.000408
431 0.000403
432 0.000404
433 0.000400
434 0.000396
435 0.000396
436 0.000393
437 0.000395
438 0.000394
439 0.000393
440 0.000394
441 0.000394
442 0.000389
443 0.000388
444 0.000391
445 0.000391
446 0.000387
447 0.000386
448 0.000389
449 0.000391
450 0.000395
451 0.000398
452 0.000398
453 0.000395
454 0.000390
455 0.000388
456 0.000382
457 0.000380
458 0.000373
459 0.000366
460 0.000361
461 0.000355
462 0.000347
463 0.000342
464 0.000340
465 0.000341
466 0.000339
467 0.000334
468 0.000333
469 0.000333
470 0.000339
471 0.000346
472 0.000351
473 0.000353
474 0.000356
475 0.000360
476 0.000359
477 0.000362
478 0.000361
479 0.000362
480 0.000360
481 0.000358
482 0.000355
483 0.000350
484 0.000345
485 0.000343
486 0.000343
487 0.000343
488 0.000339
489 0.000329
490 0.000322
491 0.000317
492 0.000308
493 0.000304
494 0.000302
495 0.000300
496 0.000301
497 0.000303
498 0.000304
499 0.000302
500 0.000298
501 0.000292
502 0.000286
503 0.000283
504 0.000283
505 0.000281
506 0.000282
507 0.000280
508 0.000280
509 0.000278
510 0.000274
511 0.000272
512 0.000269
513 0.000270
514 0.000270
515 0.000266
516 0.000259
517 0.000256
518 0.000253
519 0.000254
520 0.000255
521 0.000261
522 0.000266
523 0.000269
524 0.000271
525 0.000276
526 0.000278
527 0.000280
528 0.000279
529 0.000275
530 0.000271
531 0.000271
532 0.000269
533 0.000270
534 0.000272
535 0.000270
536 0.000262
537 0.000253
538 0.000243
539 0.000236
540 0.000228
541 0.000225
542 0.000225
543 0.000229
544 0.000231
545 0.000231
546 0.000228
547 0.000228
548 0.000229
549 0.000229
550 0.000233
551 0.000238
552 0.000245
553 0.000251
554 0.000255
555 0.000254
556 0.000250
557 0.000245
558 0.000245
559 0.000246
560 0.000247
561 0.000246
562 0.000244
563 0.000247
564 0.000250
565 0.000252
566 0.000255
567 0.000255
568 0.000255
569 0.000251
570 0.000250
571 0.000247
572 0.000243
573 0.000244
574 0.000247
575 0.000248
576 0.000248
577 0.000248
578 0.000247
579 0.000248
580 0.000246
581 0.000249
582 0.000252
583 0.000252
584 0.000254
585 0.000256
586 0.000259
587 0.000260
588 0.000259
589 0.000255
590 0.000250
591 0.000248
592 0.000247
593 0.000250
594 0.000248
595 0.000248
596 0.000246
597 0.000248
598 0.000250
599 0.000254
600 0.000255
601 0.000256
602 0.000254
603 0.000249
604 0.000247
605 0.000245
606 0.000238
607 0.000237
608 0.000238
609 0.000236
610 0.000234
611 0.000235
612 0.000235
613 0.000238
614 0.000241
615 0.000239
616 0.000237
617 0.000235
618 0.000233
619 0.000234
620 0.000236
621 0.000237
622 0.000238
623 0.000237
624 0.000236
625 0.000235
626 0.000232
627 0.000227
628 0.000223
629 0.000219
630 0.000219
631 0.000220
632 0.000220
633 0.000221
634 0.000223
635 0.000221
636 0.000221
637 0.000224
638 0.000227
639 0.000228
640 0.000229
641 0.000230
642 0.000230
643 0.000226
644 0.000221
645 0.000209
646 0.000203
647 0.000197
648 0.000195
649 0.000192
650 0.000188
651 0.000186
652 0.000180
653 0.000176
654 0.000170
655 0.000162
656 0.000154
657 0.000150
658 0.000148
659 0.000146
660 0.000145
661 0.000147
662 0.000147
663 0.000147
664 0.000150
665 0.000147
666 0.000144
667 0.000142
668 0.000138
669 0.000138
670 0.000140
671 0.000141
672 0.000140
673 0.000140
674 0.000143
675 0.000144
676 0.000146
677 0.000144
678 0.000142
679 0.000138
680 0.000135
681 0.000135
682 0.000134
683 0.000131
684 0.000130
685 0.000130
686 0.000133
687 0.000138
688 0.000136
689 0.000135
690 0.000136
691 0.000137
692 0.000137
693 0.000139
694 0.000140
695 0.000142
696 0.000142
697 0.000143
698 0.000141
699 0.000137
700 0.000133
701 0.000131
702 0.000132
703 0.000131
704 0.000125
705 0.000116
706 0.000110
707 0.000109
708 0.000107
709 0.000105
710 0.000106
711 0.000106
712 0.000105
713 0.000102
714 0.000099
715 0.000099
716 0.000098
717 0.000096
718 0.000096
719 0.000098
720 0.000098
721 0.000100
722 0.000099
723 0.000098
724 0.000097
725 0.000094
726 0.000090
727 0.000089
728 0.000089
729 0.000091
730 0.000090
731 0.000085
732 0.000079
733 0.000076
734 0.000074
735 0.000074
736 0.000071
737 0.000071
738 0.000070
739 0.000070
740 0.000073
741 0.000078
742 0.000078
743 0.000075
744 0.000074
745 0.000073
746 0.000073
747 0.000075
748 0.000078
749 0.000084
750 0.000083
751 0.000082
752 0.000078
753 0.000074
754 0.000071
755 0.000070
756 0.000067
757 0.000068
758 0.000067
759 0.000067
760 0.000066
761 0.000068
762 0.000069
763 0.000074
764 0.000076
765 0.000074
766 0.000073
767 0.000073
768 0.000071
769 0.000073
770 0.000073
771 0.000074
772 0.000073
773 0.000074
774 0.000073
775 0.000075
776 0.000073
777 0.000071
778 0.000071
779 0.000069
780 0.000067
781 0.000067
782 0.000066
783 0.000066
784 0.000068
785 0.000066
786 0.000065
787 0.000063
788 0.000062
789 0.000065
790 0.000065
791 0.000064
792 0.000064
793 0.000064
794 0.000063
795 0.000060
796 0.000059
797 0.000059
798 0.000060
799 0.000060
800 0.000061
801 0.000061
802 0.000062
803 0.000064
804 0.000069
805 0.000077
806 0.000080
807 0.000084
808 0.000087
809 0.000089
