# i correlation
1 0.001741
2 0.001691
3 0.001651
4 0.001618
5 0.001588
6 0.001557
7 0.001524
8 0.001494
9 0.001468
10 0.001439
11 0.001413
12 0.001391
13 0.001369
14 0.001345
15 0.001324
16 0.001299
17 0.001278
18 0.001260
19 0.001243
20 0.001222
21 0.001206
22 0.001189
23 0.001171
24 0.001154
25 0.001140
26 0.001131
27 0.001123
28 0.001117
29 0.001105
30 0.001103
31 0.001101
32 0.001100
33 0.001098
34 0.001094
35 0.001082
36 0.001077
37 0.001072
38 0.001064
39 0.001056
40 0.001043
41 0.001039
42 0.001043
43 0.001042
44 0.001038
45 0.001038
46 0.001039
47 0.001041
48 0.001037
49 0.001033
50 0.001022
51 0.001014
52 0.001006
53 0.000998
54 0.000989
55 0.000978
56 0.000966
57 0.000953
58 0.000944
59 0.000933
60 0.000924
61 0.000918
62 0.000911
63 0.000905
64 0.000904
65 0.000901
66 0.000898
67 0.000893
68 0.000885
69 0.000879
70 0.000875
71 0.000877
72 0.000876
73 0.000874
74 0.000867
75 0.000862
76 0.000856
77 0.000845
78 0.000838
79 0.000835
80 0.000831
81 0.000830
82 0.000824
83 0.000818
84 0.000811
85 0.000807
86 0.000798
87 0.000786
88 0.000780
89 0.000777
90 0.000771
91 0.000768
92 0.000768
93 0.000771
94 0.000775
95 0.000781
96 0.000787
97 0.000796
98 0.000806
99 0.000811
100 0.000814
101 0.000819
102 0.000819
103 0.000818
104 0.000819
105 0.000821
106 0.000822
107 0.000821
108 0.000817
109 0.000813
110 0.000809
111 0.000804
112 0.000799
113 0.000798
114 0.000796
115 0.000797
116 0.000793
117 0.000792
118 0.000794
119 0.000790
120 0.000782
121 0.000771
122 0.000764
123 0.000757
124 0.000750
125 0.000741
126 0.000736
127 0.000734
128 0.000736
129 0.000733
130 0.000735
131 0.000737
132 0.000738
133 0.000739
134 0.000739
135 0.000739
136 0.000741
137 0.000741
138 0.000739
139 0.000735
140 0.000737
141 0.000737
142 0.000736
143 0.000732
144 0.000726
145 0.000722
146 0.000723
147 0.000728
148 0.000729
149 0.000729
150 0.000726
151 0.000726
152 0.000726
153 0.000726
154 0.000725
155 0.000721
156 0.000717
157 0.000712
158 0.000706
159 0.000698
160 0.000692
161 0.000687
162 0.000683
163 0.000680
164 0.000678
165 0.000672
166 0.000666
167 0.000658
168 0.000649
169 0.000639
170 0.000632
171 0.000620
172 0.000610
173 0.000603
174 0.000594
175 0.000586
176 0.000577
177 0.000571
178 0.000561
179 0.000552
180 0.000542
181 0.000532
182 0.000524
183 0.000511
184 0.000502
185 0.000492
186 0.000482
187 0.000473
188 0.000464
189 0.000460
190 0.000459
191 0.000459
192 0.000460
193 0.000460
194 0.000464
195 0.000469
196 0.000472
197 0.000469
198 0.000469
199 0.000470
200 0.000474
201 0.000480
202 0.000483
203 0.000485
204 0.000488
205 0.000489
206 0.000491
207 0.000493
208 0.000495
209 0.000494
210 0.000495
211 0.000497
212 0.000499
213 0.000500
214 0.000501
215 0.000502
216 0.000504
217 0.000500
218 0.000495
219 0.000491
220 0.000485
221 0.000479
222 0.000469
223 0.000464
224 0.000460
225 0.000457
226 0.000459
227 0.000457
228 0.000456
229 0.000457
230 0.000454
231 0.000449
232 0.000444
233 0.000440
234 0.000437
235 0.000432
236 0.000429
237 0.000433
238 0.000436
239 0.000439
240 0.000436
241 0.000433
242 0.000432
243 0.000437
244 0.000439
245 0.000440
246 0.000443
247 0.000443
248 0.000444
249 0.000447
250 0.000451
251 0.000458
252 0.000463
253 0.000471
254 0.000473
255 0.000476
256 0.000477
257 0.000478
258 0.000484
259 0.000489
260 0.000494
261 0.000499
262 0.000506
263 0.000509
264 0.000512
265 0.000516
266 0.000518
267 0.000518
268 0.000520
269 0.000520
270 0.000519
271 0.000521
272 0.000525
273 0.000531
274 0.000537
275 0.000545
276 0.000551
277 0.000552
278 0.000553
279 0.000555
280 0.000559
281 0.000566
282 0.000571
283 0.000570
284 0.000567
285 0.000563
286 0.000556
287 0.000547
288 0.000538
289 0.000530
290 0.000521
291 0.000513
292 0.000506
293 0.000495
294 0.000483
295 0.000476
296 0.000471
297 0.000467
298 0.000462
299 0.000455
300 0.000451
301 0.000446
302 0.000439
303 0.000431
304 0.000428
305 0.000423
306 0.000416
307 0.000411
308 0.000411
309 0.000410
310 0.000415
311 0.000419
312 0.000419
313 0.000418
314 0.000414
315 0.000409
316 0.000405
317 0.000406
318 0.000406
319 0.000404
320 0.000400
321 0.000396
322 0.000396
323 0.000393
324 0.000389
325 0.000383
326 0.000382
327 0.000383
328 0.000383
329 0.000384
330 0.000385
331 0.000383
332 0.000381
333 0.000377
334 0.000378
335 0.000374
336 0.000370
337 0.000361
338 0.000349
339 0.000335
340 0.000320
341 0.000312
342 0.000305
343 0.000303
344 0.000304
345 0.000306
346 0.000304
347 0.000304
348 0.000305
349 0.000310
350 0.000311
351 0.000309
352 0.000311
353 0.000316
354 0.000321
355 0.000324
356 0.000331
357 0.000337
358 0.000340
359 0.000343
360 0.000348
361 0.000355
362 0.000363
363 0.000368
364 0.000372
365 0.000372
366 0.000377
367 0.000381
368 0.000387
369 0.000392
370 0.000392
371 0.000394
372 0.000392
373 0.000392
374 0.000391
375 0.000391
376 0.000390
377 0.000388
378 0.000384
379 0.000382
380 0.000383
381 0.000386
382 0.000390
383 0.000393
384 0.000394
385 0.000389
386 0.000389
387 0.000384
388 0.000381
389 0.000379
390 0.000380
391 0.000379
392 0.000376
393 0.000375
394 0.000376
395 0.000380
396 0.000379
397 0.000380
398 0.000380
399 0.000379
400 0.000374
401 0.000373
402 0.000374
403 0.000378
404 0.000377
405 0.000376
406 0.000372
407 0.000370
408 0.000368
409 0.000364
410 0.000361
411 0.000356
412 0.000348
413 0.000342
414 0.000340
415 0.000339
416 0.000342
417 0.000342
418 0.000342
419 0.000342
420 0.000341
421 0.000339
422 0.000338
423 0.000338
424 0.000338
425 0.000340
426 0.000338
427 0.000336
428 0.000339
429 0.000346
430 0.000350
431 0.000354
432 0.000359
433 0.000365
434 0.000370
435 0.000377
436 0.000378
437 0.000382
438 0.000388
439 0.000393
440 0.000395
441 0.000393
442 0.000389
443 0.000384
444 0.000380
445 0.000376
446 0.000371
447 0.000365
448 0.000355
449 0.000346
450 0.000338
451 0.000329
452 0.000324
453 0.000319
454 0.000312
455 0.000306
456 0.000298
457 0.000294
458 0.000289
459 0.000284
460 0.000279
461 0.000272
462 0.000268
463 0.000262
464 0.000256
465 0.000250
466 0.000244
467 0.000239
468 0.000233
469 0.000227
470 0.000219
471 0.000212
472 0.000206
473 0.000196
474 0.000193
475 0.000192
476 0.000190
477 0.000187
478 0.000182
479 0.000177
480 0.000174
481 0.000172
482 0.000170
483 0.000170
484 0.000168
485 0.000168
486 0.000167
487 0.000165
488 0.000163
489 0.000162
490 0.000160
491 0.000156
492 0.000153
493 0.000147
494 0.000145
495 0.000139
496 0.000135
497 0.000131
498 0.000127
499 0.000123
500 0.000121
501 0.000120
502 0.000117
503 0.000115
504 0.000115
505 0.000116
506 0.000118
507 0.000117
508 0.000120
509 0.000121
510 0.000122
511 0.000125
512 0.000129
513 0.000134
514 0.000135
515 0.000132
516 0.000134
517 0.000138
518 0.000143
519 0.000145
520 0.000146
521 0.000147
522 0.000150
523 0.000153
524 0.000154
525 0.000156
526 0.000158
527 0.000157
528 0.000158
529 0.000161
530 0.000167
531 0.000173
532 0.000178
533 0.000183
534 0.000187
535 0.000193
536 0.000198
537 0.000206
538 0.000216
539 0.000223
540 0.000227
541 0.000230
542 0.000228
543 0.000231
544 0.000234
545 0.000236
546 0.000236
547 0.000236
548 0.000237
549 0.000236
550 0.000237
551 0.000239
552 0.000241
553 0.000244
554 0.000244
555 0.000247
556 0.000255
557 0.000261
558 0.000264
559 0.000266
560 0.000266
561 0.000268
562 0.000271
563 0.000271
564 0.000273
565 0.000276
566 0.000278
567 0.000278
568 0.000275
569 0.000273
570 0.000270
571 0.000268
572 0.000268
573 0.000269
574 0.000270
575 0.000268
576 0.000266
577 0.000263
578 0.000255
579 0.000252
580 0.000249
581 0.000246
582 0.000243
583 0.000240
584 0.000237
585 0.000234
586 0.000231
587 0.000232
588 0.000231
589 0.000231
590 0.000230
591 0.000226
592 0.000222
593 0.000220
594 0.000221
595 0.000221
596 0.000219
597 0.000215
598 0.000215
599 0.000214
600 0.000215
601 0.000213
602 0.000211
603 0.000208
604 0.000205
605 0.000202
606 0.000197
607 0.000192
608 0.000186
609 0.000182
610 0.000179
611 0.000178
612 0.000177
613 0.000172
614 0.000165
615 0.000157
616 0.000146
617 0.000136
618 0.000126
619 0.000117
620 0.000108
621 0.000100
622 0.000092
623 0.000085
624 0.000077
625 0.000069
626 0.000066
627 0.000063
628 0.000058
629 0.000055
630 0.000055
631 0.000055
632 0.000058
633 0.000059
634 0.000062
635 0.000065
636 0.000069
637 0.000075
638 0.000078
639 0.000078
640 0.000079
641 0.000083
642 0.000087
643 0.000089
644 0.000090
645 0.000091
646 0.000087
647 0.000086
648 0.000087
649 0.000092
650 0.000096
651 0.000099
652 0.000100
653 0.000105
654 0.000111
655 0.000117
656 0.000124
657 0.000127
658 0.000133
659 0.000138
660 0.000140
661 0.000142
662 0.000143
663 0.000144
664 0.000145
665 0.000143
666 0.000142
667 0.000142
668 0.000144
669 0.000144
670 0.000144
671 0.000147
672 0.000150
673 0.000151
674 0.000148
675 0.000146
676 0.000146
677 0.000145
678 0.000144
679 0.000145
680 0.000144
681 0.000141
682 0.000139
683 0.000139
684 0.000139
685 0.000140
686 0.000140
687 0.000138
688 0.000134
689 0.000130
690 0.000130
691 0.000129
692 0.000125
693 0.000120
694 0.000116
695 0.000112
696 0.000105
697 0.000100
698 0.000097
699 0.000095
700 0.000094
701 0.000092
702 0.000089
703 0.000088
704 0.000085
705 0.000087
706 0.000087
707 0.000087
708 0.000086
709 0.000087
710 0.000087
711 0.000086
712 0.000084
713 0.000086
714 0.000089
715 0.000093
716 0.000097
717 0.000098
718 0.000098
719 0.000097
720 0.000097
721 0.000094
722 0.000090
723 0.000086
724 0.000085
725 0.000084
726 0.000082
727 0.000080
728 0.000078
729 0.000076
730 0.000072
731 0.000070
732 0.000068
733 0.000070
734 0.000068
735 0.000064
736 0.000064
737 0.000065
738 0.000062
739 0.000059
740 0.000056
741 0.000051
742 0.000048
743 0.000046
744 0.000043
745 0.000037
746 0.000030
747 0.000028
748 0.000027
749 0.000022
750 0.000019
751 0.000019
752 0.000019
753 0.000017
754 0.000011
755 0.000003
756 -0.000002
757 -0.000003
758 -0.000005
759 -0.000009
760 -0.000012
761 -0.000018
762 -0.000020
763 -0.000022
764 -0.000023
765 -0.000023
766 -0.000024
767 -0.000022
768 -0.000021
769 -0.000020
770 -0.000016
771 -0.000014
772 -0.000013
773 -0.000012
774 -0.000011
775 -0.000010
776 -0.000010
777 -0.000013
778 -0.000013
779 -0.000014
780 -0.000015
781 -0.000017
782 -0.000020
783 -0.000025
784 -0.000029
785 -0.000033
786 -0.000036
787 -0.000037
788 -0.000040
789 -0.000042
790 -0.000039
791 -0.000035
792 -0.000030
793 -0.000030
794 -0.000030
795 -0.000026
796 -0.000021
797 -0.000015
798 -0.000008
799 -0.000002
800 0.000003
801 0.000008
802 0.000012
803 0.000015
804 0.000017
805 0.000019
806 0.000023
807 0.000026
808 0.000032
809 0.000037
