# i correlation
1 0.001818
2 0.001771
3 0.001731
4 0.001693
5 0.001663
6 0.001639
7 0.001618
8 0.001604
9 0.001596
10 0.001590
11 0.001583
12 0.001578
13 0.001572
14 0.001564
15 0.001557
16 0.001549
17 0.001544
18 0.001538
19 0.001529
20 0.001518
21 0.001509
22 0.001500
23 0.001487
24 0.001477
25 0.001468
26 0.001461
27 0.001458
28 0.001446
29 0.001438
30 0.001428
31 0.001420
32 0.001413
33 0.001408
34 0.001404
35 0.001399
36 0.001396
37 0.001393
38 0.001393
39 0.001387
40 0.001380
41 0.001372
42 0.001362
43 0.001351
44 0.001339
45 0.001329
46 0.001322
47 0.001318
48 0.001313
49 0.001311
50 0.001303
51 0.001295
52 0.001291
53 0.001288
54 0.001284
55 0.001281
56 0.001279
57 0.001274
58 0.001268
59 0.001266
60 0.001264
61 0.001260
62 0.001258
63 0.001249
64 0.001243
65 0.001236
66 0.001229
67 0.001222
68 0.001217
69 0.001212
70 0.001205
71 0.001204
72 0.001202
73 0.001201
74 0.001205
75 0.001202
76 0.001196
77 0.001196
78 0.001192
79 0.001195
80 0.001197
81 0.001200
82 0.001198
83 0.001196
84 0.001191
85 0.001181
86 0.001172
87 0.001165
88 0.001160
89 0.001154
90 0.001148
91 0.001144
92 0.001134
93 0.001127
94 0.001121
95 0.001117
96 0.001117
97 0.001117
98 0.001120
99 0.001117
100 0.001115
101 0.001115
102 0.001111
103 0.001109
104 0.001106
105 0.001098
106 0.001093
107 0.001090
108 0.001089
109 0.001086
110 0.001085
111 0.001087
112 0.001083
113 0.001076
114 0.001066
115 0.001063
116 0.001056
117 0.001047
118 0.001044
119 0.001036
120 0.001035
121 0.001036
122 0.001034
123 0.001032
124 0.001027
125 0.001023
126 0.001019
127 0.001010
128 0.000999
129 0.000987
130 0.000980
131 0.000977
132 0.000969
133 0.000962
134 0.000956
135 0.000954
136 0.000951
137 0.000949
138 0.000952
139 0.000956
140 0.000957
141 0.000958
142 0.000958
143 0.000955
144 0.000952
145 0.000955
146 0.000949
147 0.000946
148 0.000943
149 0.000942
150 0.000936
151 0.000928
152 0.000914
153 0.000905
154 0.000900
155 0.000896
156 0.000893
157 0.000891
158 0.000890
159 0.000884
160 0.000886
161 0.000886
162 0.000888
163 0.000890
164 0.000889
165 0.000888
166 0.000885
167 0.000882
168 0.000876
169 0.000877
170 0.000879
171 0.000882
172 0.000887
173 0.000888
174 0.000883
175 0.000880
176 0.000874
177 0.000866
178 0.000858
179 0.000853
180 0.000850
181 0.000846
182 0.000843
183 0.000836
184 0.000829
185 0.000823
186 0.000821
187 0.000823
188 0.000820
189 0.000820
190 0.000817
191 0.000812
192 0.000811
193 0.000807
194 0.000803
195 0.000801
196 0.000795
197 0.000790
198 0.000783
199 0.000779
200 0.000779
201 0.000780
202 0.000780
203 0.000778
204 0.000778
205 0.000778
206 0.000778
207 0.000777
208 0.000775
209 0.000775
210 0.000771
211 0.000773
212 0.000774
213 0.000773
214 0.000776
215 0.000774
216 0.000770
217 0.000765
218 0.000763
219 0.000763
220 0.000763
221 0.000766
222 0.000773
223 0.000777
224 0.000779
225 0.000775
226 0.000767
227 0.000759
228 0.000753
229 0.000749
230 0.000742
231 0.000736
232 0.000733
233 0.000737
234 0.000737
235 0.000739
236 0.000740
237 0.000736
238 0.000735
239 0.000737
240 0.000733
241 0.000733
242 0.000736
243 0.000734
244 0.000730
245 0.000727
246 0.000725
247 0.000724
248 0.000722
249 0.000720
250 0.000718
251 0.000720
252 0.000721
253 0.000719
254 0.000718
255 0.000715
256 0.000711
257 0.000709
258 0.000705
259 0.000700
260 0.000698
261 0.000697
262 0.000696
263 0.000692
264 0.000684
265 0.000674
266 0.000668
267 0.000660
268 0.000650
269 0.000644
270 0.000638
271 0.000636
272 0.000639
273 0.000643
274 0.000646
275 0.000649
276 0.000655
277 0.000655
278 0.000653
279 0.000650
280 0.000648
281 0.000641
282 0.000635
283 0.000630
284 0.000625
285 0.000623
286 0.000619
287 0.000617
288 0.000620
289 0.000620
290 0.000620
291 0.000624
292 0.000625
293 0.000624
294 0.000626
295 0.000626
296 0.000627
297 0.000628
298 0.000629
299 0.000626
300 0.000620
301 0.000615
302 0.000612
303 0.000610
304 0.000608
305 0.000607
306 0.000604
307 0.000602
308 0.000595
309 0.000590
310 0.000585
311 0.000581
312 0.000582
313 0.000586
314 0.000592
315 0.000598
316 0.000603
317 0.000611
318 0.000617
319 0.000619
320 0.000615
321 0.000615
322 0.000610
323 0.000608
324 0.000606
325 0.000605
326 0.000603
327 0.000601
328 0.000600
329 0.000600
330 0.000599
331 0.000599
332 0.000596
333 0.000595
334 0.000596
335 0.000599
336 0.000599
337 0.000601
338 0.000600
339 0.000597
340 0.000596
341 0.000589
342 0.000583
343 0.000580
344 0.000577
345 0.000577
346 0.000574
347 0.000573
348 0.000571
349 0.000565
350 0.000564
351 0.000563
352 0.000559
353 0.000557
354 0.000562
355 0.000567
356 0.000572
357 0.000575
358 0.000576
359 0.000575
360 0.000574
361 0.000571
362 0.000572
363 0.000569
364 0.000565
365 0.000559
366 0.000557
367 0.000553
368 0.000550
369 0.000544
370 0.000536
371 0.000530
372 0.000532
373 0.000529
374 0.000531
375 0.000530
376 0.000533
377 0.000536
378 0.000545
379 0.000547
380 0.000548
381 0.000546
382 0.000545
383 0.000544
384 0.000543
385 0.000540
386 0.000539
387 0.000536
388 0.000533
389 0.000531
390 0.000530
391 0.000531
392 0.000527
393 0.000532
394 0.000534
395 0.000539
396 0.000549
397 0.000555
398 0.000556
399 0.000560
400 0.000563
401 0.000561
402 0.000557
403 0.000556
404 0.000556
405 0.000555
406 0.000552
407 0.000546
408 0.000547
409 0.000549
410 0.000546
411 0.000544
412 0.000543
413 0.000537
414 0.000536
415 0.000537
416 0.000537
417 0.000538
418 0.000541
419 0.000540
420 0.000537
421 0.000539
422 0.000543
423 0.000544
424 0.000543
425 0.000539
426 0.000533
427 0.000528
428 0.000524
429 0.000522
430 0.000518
431 0.000516
432 0.000515
433 0.000515
434 0.000521
435 0.000526
436 0.000533
437 0.000537
438 0.000536
439 0.000540
440 0.000538
441 0.000535
442 0.000531
443 0.000528
444 0.000522
445 0.000519
446 0.000516
447 0.000511
448 0.000508
449 0.000505
450 0.000498
451 0.000491
452 0.000489
453 0.000489
454 0.000486
455 0.000487
456 0.000488
457 0.000489
458 0.000487
459 0.000485
460 0.000481
461 0.000483
462 0.000480
463 0.000480
464 0.000478
465 0.000476
466 0.000476
467 0.000475
468 0.000473
469 0.000467
470 0.000464
471 0.000460
472 0.000454
473 0.000447
474 0.000444
475 0.000441
476 0.000437
477 0.000435
478 0.000436
479 0.000434
480 0.000434
481 0.000435
482 0.000436
483 0.000440
484 0.000441
485 0.000441
486 0.000440
487 0.000436
488 0.000430
489 0.000426
490 0.000421
491 0.000418
492 0.000415
493 0.000415
494 0.000415
495 0.000415
496 0.000416
497 0.000420
498 0.000422
499 0.000426
500 0.000430
501 0.000436
502 0.000438
503 0.000439
504 0.000441
505 0.000443
506 0.000448
507 0.000448
508 0.000445
509 0.000441
510 0.000439
511 0.000437
512 0.000434
513 0.000433
514 0.000431
515 0.000428
516 0.000433
517 0.000436
518 0.000437
519 0.000441
520 0.000439
521 0.000441
522 0.000440
523 0.000436
524 0.000430
525 0.000426
526 0.000421
527 0.000420
528 0.000418
529 0.000417
530 0.000420
531 0.000417
532 0.000416
533 0.000414
534 0.000407
535 0.000407
536 0.000407
537 0.000409
538 0.000414
539 0.000418
540 0.000424
541 0.000426
542 0.000428
543 0.000427
544 0.000427
545 0.000427
546 0.000428
547 0.000429
548 0.000429
549 0.000430
550 0.000431
551 0.000432
552 0.000429
553 0.000422
554 0.000422
555 0.000421
556 0.000419
557 0.000418
558 0.000414
559 0.000415
560 0.000418
561 0.000417
562 0.000413
563 0.000413
564 0.000416
565 0.000416
566 0.000419
567 0.000417
568 0.000416
569 0.000415
570 0.000413
571 0.000409
572 0.000406
573 0.000406
574 0.000404
575 0.000401
576 0.000397
577 0.000390
578 0.000386
579 0.000384
580 0.000383
581 0.000384
582 0.000384
583 0.000386
584 0.000386
585 0.000387
586 0.000385
587 0.000383
588 0.000381
589 0.000378
590 0.000379
591 0.000377
592 0.000376
593 0.000376
594 0.000377
595 0.000377
596 0.000378
597 0.000379
598 0.000378
599 0.000375
600 0.000368
601 0.000368
602 0.000368
603 0.000369
604 0.000368
605 0.000370
606 0.000371
607 0.000369
608 0.000367
609 0.000367
610 0.000366
611 0.000367
612 0.000367
613 0.000365
614 0.000363
615 0.000358
616 0.000351
617 0.000347
618 0.000344
619 0.000343
620 0.000338
621 0.000336
622 0.000334
623 0.000337
624 0.000337
625 0.000339
626 0.000339
627 0.000338
628 0.000339
629 0.000341
630 0.000342
631 0.000344
632 0.000348
633 0.000347
634 0.000346
635 0.000341
636 0.000337
637 0.000332
638 0.000328
639 0.000325
640 0.000325
641 0.000327
642 0.000327
643 0.000326
644 0.000327
645 0.000327
646 0.000326
647 0.000327
648 0.000328
649 0.000324
650 0.000323
651 0.000322
652 0.000322
653 0.000321
654 0.000322
655 0.000325
656 0.000326
657 0.000331
658 0.000337
659 0.000338
660 0.000340
661 0.000341
662 0.000339
663 0.000337
664 0.000337
665 0.000332
666 0.000328
667 0.000327
668 0.000323
669 0.000318
670 0.000317
671 0.000315
672 0.000317
673 0.000319
674 0.000319
675 0.000319
676 0.000320
677 0.000322
678 0.000325
679 0.000329
680 0.000330
681 0.000334
682 0.000335
683 0.000334
684 0.000332
685 0.000335
686 0.000339
687 0.000342
688 0.000344
689 0.000342
690 0.000336
691 0.000331
692 0.000325
693 0.000320
694 0.000317
695 0.000313
696 0.000311
697 0.000310
698 0.000306
699 0.000302
700 0.000300
701 0.000297
702 0.000295
703 0.000293
704 0.000287
705 0.000283
706 0.000279
707 0.000273
708 0.000270
709 0.000268
710 0.000266
711 0.000264
712 0.000263
713 0.000261
714 0.000263
715 0.000262
716 0.000259
717 0.000257
718 0.000253
719 0.000248
720 0.000245
721 0.000243
722 0.000243
723 0.000243
724 0.000241
725 0.000235
726 0.000231
727 0.000226
728 0.000226
729 0.000224
730 0.000222
731 0.000217
732 0.000215
733 0.000213
734 0.000212
735 0.000214
736 0.000216
737 0.000218
738 0.000220
739 0.000221
740 0.000220
741 0.000221
742 0.000215
743 0.000210
744 0.000210
745 0.000206
746 0.000201
747 0.000195
748 0.000189
749 0.000182
750 0.000177
751 0.000171
752 0.000171
753 0.000168
754 0.000171
755 0.000175
756 0.000177
757 0.000178
758 0.000178
759 0.000180
760 0.000181
761 0.000181
762 0.000183
763 0.000183
764 0.000180
765 0.000177
766 0.000172
767 0.000166
768 0.000164
769 0.000160
770 0.000160
771 0.000160
772 0.000160
773 0.000162
774 0.000163
775 0.000162
776 0.000161
777 0.000158
778 0.000154
779 0.000150
780 0.000147
781 0.000143
782 0.000138
783 0.000136
784 0.000135
785 0.000132
786 0.000129
787 0.000124
788 0.000119
789 0.000117
790 0.000117
791 0.000115
792 0.000116
793 0.000115
794 0.000112
795 0.000109
796 0.000107
797 0.000107
798 0.000109
799 0.000109
800 0.000107
801 0.000108
802 0.000107
803 0.000108
804 0.000107
805 0.000106
806 0.000103
807 0.000100
808 0.000098
809 0.000097
