# i correlation
1 0.001758
2 0.001709
3 0.001664
4 0.001635
5 0.001605
6 0.001583
7 0.001561
8 0.001544
9 0.001533
10 0.001527
11 0.001522
12 0.001516
13 0.001507
14 0.001494
15 0.001483
16 0.001475
17 0.001464
18 0.001453
19 0.001441
20 0.001425
21 0.001413
22 0.001406
23 0.001397
24 0.001384
25 0.001369
26 0.001358
27 0.001353
28 0.001345
29 0.001338
30 0.001332
31 0.001327
32 0.001313
33 0.001306
34 0.001296
35 0.001291
36 0.001283
37 0.001277
38 0.001271
39 0.001263
40 0.001258
41 0.001252
42 0.001249
43 0.001249
44 0.001247
45 0.001241
46 0.001239
47 0.001237
48 0.001230
49 0.001224
50 0.001219
51 0.001214
52 0.001204
53 0.001200
54 0.001192
55 0.001190
56 0.001184
57 0.001179
58 0.001174
59 0.001171
60 0.001166
61 0.001160
62 0.001155
63 0.001149
64 0.001145
65 0.001144
66 0.001144
67 0.001140
68 0.001134
69 0.001127
70 0.001116
71 0.001108
72 0.001102
73 0.001096
74 0.001096
75 0.001102
76 0.001107
77 0.001110
78 0.001109
79 0.001109
80 0.001106
81 0.001108
82 0.001107
83 0.001105
84 0.001107
85 0.001109
86 0.001111
87 0.001108
88 0.001110
89 0.001106
90 0.001104
91 0.001102
92 0.001094
93 0.001087
94 0.001082
95 0.001080
96 0.001077
97 0.001072
98 0.001070
99 0.001066
100 0.001057
101 0.001043
102 0.001029
103 0.001019
104 0.001012
105 0.001004
106 0.000999
107 0.000990
108 0.000989
109 0.000988
110 0.000993
111 0.000997
112 0.000997
113 0.000995
114 0.000992
115 0.000986
116 0.000982
117 0.000979
118 0.000972
119 0.000968
120 0.000963
121 0.000965
122 0.000966
123 0.000969
124 0.000964
125 0.000960
126 0.000962
127 0.000962
128 0.000963
129 0.000962
130 0.000960
131 0.000959
132 0.000959
133 0.000959
134 0.000957
135 0.000950
136 0.000943
137 0.000933
138 0.000927
139 0.000922
140 0.000919
141 0.000917
142 0.000914
143 0.000912
144 0.000912
145 0.000909
146 0.000907
147 0.000902
148 0.000892
149 0.000881
150 0.000875
151 0.000865
152 0.000858
153 0.000851
154 0.000849
155 0.000850
156 0.000848
157 0.000844
158 0.000840
159 0.000835
160 0.000833
161 0.000829
162 0.000823
163 0.000822
164 0.000821
165 0.000819
166 0.000818
167 0.000820
168 0.000817
169 0.000818
170 0.000820
171 0.000819
172 0.000821
173 0.000827
174 0.000834
175 0.000833
176 0.000833
177 0.000834
178 0.000832
179 0.000828
180 0.000822
181 0.000818
182 0.000816
183 0.000814
184 0.000805
185 0.000802
186 0.000804
187 0.000801
188 0.000796
189 0.000790
190 0.000785
191 0.000777
192 0.000770
193 0.000764
194 0.000757
195 0.000751
196 0.000744
197 0.000743
198 0.000744
199 0.000744
200 0.000743
201 0.000740
202 0.000731
203 0.000720
204 0.000713
205 0.000708
206 0.000700
207 0.000695
208 0.000694
209 0.000690
210 0.000686
211 0.000687
212 0.000689
213 0.000688
214 0.000690
215 0.000686
216 0.000678
217 0.000672
218 0.000663
219 0.000654
220 0.000647
221 0.000640
222 0.000630
223 0.000623
224 0.000616
225 0.000612
226 0.000607
227 0.000602
228 0.000596
229 0.000595
230 0.000593
231 0.000593
232 0.000589
233 0.000588
234 0.000588
235 0.000586
236 0.000585
237 0.000583
238 0.000582
239 0.000584
240 0.000584
241 0.000583
242 0.000583
243 0.000583
244 0.000582
245 0.000580
246 0.000576
247 0.000565
248 0.000556
249 0.000549
250 0.000547
251 0.000550
252 0.000555
253 0.000557
254 0.000556
255 0.000560
256 0.000562
257 0.000563
258 0.000566
259 0.000560
260 0.000557
261 0.000556
262 0.000558
263 0.000558
264 0.000560
265 0.000557
266 0.000557
267 0.000559
268 0.000562
269 0.000564
270 0.000566
271 0.000566
272 0.000565
273 0.000565
274 0.000565
275 0.000561
276 0.000562
277 0.000562
278 0.000561
279 0.000555
280 0.000553
281 0.000547
282 0.000543
283 0.000536
284 0.000530
285 0.000525
286 0.000526
287 0.000524
288 0.000528
289 0.000530
290 0.000532
291 0.000531
292 0.000527
293 0.000525
294 0.000522
295 0.000520
296 0.000520
297 0.000523
298 0.000522
299 0.000521
300 0.000521
301 0.000518
302 0.000514
303 0.000506
304 0.000500
305 0.000494
306 0.000490
307 0.000484
308 0.000480
309 0.000478
310 0.000479
311 0.000482
312 0.000485
313 0.000486
314 0.000482
315 0.000480
316 0.000477
317 0.000472
318 0.000465
319 0.000464
320 0.000464
321 0.000464
322 0.000463
323 0.000462
324 0.000459
325 0.000455
326 0.000449
327 0.000447
328 0.000449
329 0.000448
330 0.000450
331 0.000448
332 0.000444
333 0.000441
334 0.000438
335 0.000432
336 0.000425
337 0.000424
338 0.000418
339 0.000415
340 0.000411
341 0.000409
342 0.000408
343 0.000409
344 0.000409
345 0.000403
346 0.000401
347 0.000397
348 0.000396
349 0.000391
350 0.000384
351 0.000375
352 0.000368
353 0.000359
354 0.000354
355 0.000351
356 0.000352
357 0.000353
358 0.000350
359 0.000348
360 0.000346
361 0.000346
362 0.000343
363 0.000342
364 0.000335
365 0.000330
366 0.000325
367 0.000326
368 0.000324
369 0.000323
370 0.000321
371 0.000319
372 0.000321
373 0.000322
374 0.000324
375 0.000325
376 0.000323
377 0.000323
378 0.000322
379 0.000321
380 0.000316
381 0.000315
382 0.000307
383 0.000303
384 0.000300
385 0.000298
386 0.000298
387 0.000299
388 0.000299
389 0.000296
390 0.000298
391 0.000296
392 0.000294
393 0.000290
394 0.000291
395 0.000287
396 0.000287
397 0.000285
398 0.000284
399 0.000282
400 0.000282
401 0.000280
402 0.000278
403 0.000274
404 0.000272
405 0.000270
406 0.000271
407 0.000273
408 0.000276
409 0.000275
410 0.000277
411 0.000279
412 0.000283
413 0.000284
414 0.000283
415 0.000282
416 0.000283
417 0.000283
418 0.000285
419 0.000290
420 0.000292
421 0.000293
422 0.000294
423 0.000300
424 0.000306
425 0.000313
426 0.000315
427 0.000315
428 0.000316
429 0.000317
430 0.000314
431 0.000309
432 0.000306
433 0.000305
434 0.000302
435 0.000298
436 0.000293
437 0.000291
438 0.000289
439 0.000289
440 0.000287
441 0.000286
442 0.000284
443 0.000285
444 0.000288
445 0.000290
446 0.000290
447 0.000288
448 0.000286
449 0.000283
450 0.000283
451 0.000282
452 0.000281
453 0.000279
454 0.000280
455 0.000285
456 0.000288
457 0.000290
458 0.000288
459 0.000290
460 0.000290
461 0.000288
462 0.000285
463 0.000282
464 0.000274
465 0.000268
466 0.000266
467 0.000267
468 0.000264
469 0.000265
470 0.000264
471 0.000266
472 0.000268
473 0.000268
474 0.000267
475 0.000267
476 0.000268
477 0.000266
478 0.000262
479 0.000260
480 0.000256
481 0.000252
482 0.000251
483 0.000253
484 0.000256
485 0.000256
486 0.000254
487 0.000249
488 0.000251
489 0.000254
490 0.000254
491 0.000252
492 0.000253
493 0.000251
494 0.000254
495 0.000257
496 0.000258
497 0.000254
498 0.000252
499 0.000245
500 0.000240
501 0.000235
502 0.000230
503 0.000226
504 0.000225
505 0.000225
506 0.000229
507 0.000234
508 0.000235
509 0.000237
510 0.000242
511 0.000247
512 0.000249
513 0.000251
514 0.000251
515 0.000248
516 0.000244
517 0.000241
518 0.000232
519 0.000224
520 0.000216
521 0.000212
522 0.000207
523 0.000206
524 0.000206
525 0.000205
526 0.000201
527 0.000198
528 0.000197
529 0.000199
530 0.000199
531 0.000198
532 0.000197
533 0.000197
534 0.000198
535 0.000195
536 0.000193
537 0.000191
538 0.000187
539 0.000185
540 0.000184
541 0.000187
542 0.000190
543 0.000193
544 0.000197
545 0.000198
546 0.000198
547 0.000199
548 0.000203
549 0.000206
550 0.000210
551 0.000214
552 0.000215
553 0.000213
554 0.000210
555 0.000205
556 0.000203
557 0.000203
558 0.000203
559 0.000201
560 0.000202
561 0.000205
562 0.000204
563 0.000202
564 0.000200
565 0.000199
566 0.000196
567 0.000196
568 0.000195
569 0.000194
570 0.000196
571 0.000199
572 0.000203
573 0.000207
574 0.000210
575 0.000213
576 0.000214
577 0.000213
578 0.000209
579 0.000207
580 0.000207
581 0.000207
582 0.000208
583 0.000213
584 0.000215
585 0.000218
586 0.000217
587 0.000219
588 0.000224
589 0.000229
590 0.000233
591 0.000235
592 0.000238
593 0.000240
594 0.000243
595 0.000246
596 0.000246
597 0.000248
598 0.000250
599 0.000253
600 0.000254
601 0.000258
602 0.000260
603 0.000260
604 0.000257
605 0.000256
606 0.000256
607 0.000257
608 0.000253
609 0.000250
610 0.000250
611 0.000254
612 0.000257
613 0.000260
614 0.000259
615 0.000256
616 0.000253
617 0.000251
618 0.000250
619 0.000250
620 0.000249
621 0.000243
622 0.000239
623 0.000236
624 0.000235
625 0.000235
626 0.000235
627 0.000239
628 0.000241
629 0.000245
630 0.000246
631 0.000241
632 0.000237
633 0.000235
634 0.000233
635 0.000230
636 0.000229
637 0.000230
638 0.000228
639 0.000229
640 0.000231
641 0.000233
642 0.000231
643 0.000231
644 0.000230
645 0.000228
646 0.000223
647 0.000215
648 0.000207
649 0.000199
650 0.000193
651 0.000183
652 0.000175
653 0.000170
654 0.000164
655 0.000158
656 0.000154
657 0.000150
658 0.000148
659 0.000145
660 0.000148
661 0.000149
662 0.000151
663 0.000153
664 0.000152
665 0.000151
666 0.000149
667 0.000149
668 0.000151
669 0.000152
670 0.000152
671 0.000152
672 0.000148
673 0.000146
674 0.000145
675 0.000146
676 0.000147
677 0.000145
678 0.000146
679 0.000143
680 0.000147
681 0.000151
682 0.000153
683 0.000154
684 0.000158
685 0.000161
686 0.000163
687 0.000168
688 0.000172
689 0.000177
690 0.000181
691 0.000186
692 0.000190
693 0.000191
694 0.000192
695 0.000190
696 0.000190
697 0.000190
698 0.000190
699 0.000187
700 0.000185
701 0.000182
702 0.000178
703 0.000176
704 0.000175
705 0.000174
706 0.000175
707 0.000176
708 0.000176
709 0.000176
710 0.000174
711 0.000179
712 0.000180
713 0.000183
714 0.000183
715 0.000183
716 0.000181
717 0.000176
718 0.000173
719 0.000170
720 0.000166
721 0.000166
722 0.000166
723 0.000168
724 0.000171
725 0.000174
726 0.000174
727 0.000176
728 0.000174
729 0.000175
730 0.000174
731 0.000172
732 0.000168
733 0.000160
734 0.000157
735 0.000156
736 0.000154
737 0.000151
738 0.000148
739 0.000144
740 0.000141
741 0.000136
742 0.000130
743 0.000122
744 0.000115
745 0.000109
746 0.000104
747 0.000102
748 0.000100
749 0.000101
750 0.000104
751 0.000106
752 0.000108
753 0.000110
754 0.000111
755 0.000112
756 0.000113
757 0.000116
758 0.000117
759 0.000119
760 0.000121
761 0.000122
762 0.000124
763 0.000124
764 0.000121
765 0.000121
766 0.000124
767 0.000125
768 0.000126
769 0.000129
770 0.000130
771 0.000133
772 0.000136
773 0.000140
774 0.000144
775 0.000149
776 0.000151
777 0.000153
778 0.000153
779 0.000152
780 0.000152
781 0.000153
782 0.000153
783 0.000152
784 0.000152
785 0.000156
786 0.000158
787 0.000161
788 0.000164
789 0.000168
790 0.000169
791 0.000168
792 0.000163
793 0.000158
794 0.000152
795 0.000146
796 0.000143
797 0.000141
798 0.000136
799 0.000134
800 0.000133
801 0.000132
802 0.000133
803 0.000136
804 0.000140
805 0.000142
806 0.000144
807 0.000146
808 0.000145
809 0.000145
