# i correlation
1 0.001589
2 0.001539
3 0.001498
4 0.001461
5 0.001430
6 0.001398
7 0.001372
8 0.001346
9 0.001323
10 0.001307
11 0.001290
12 0.001275
13 0.001266
14 0.001258
15 0.001251
16 0.001245
17 0.001248
18 0.001245
19 0.001240
20 0.001235
21 0.001228
22 0.001225
23 0.001223
24 0.001223
25 0.001218
26 0.001208
27 0.001199
28 0.001188
29 0.001177
30 0.001167
31 0.001149
32 0.001137
33 0.001125
34 0.001112
35 0.001100
36 0.001086
37 0.001075
38 0.001064
39 0.001056
40 0.001051
41 0.001049
42 0.001051
43 0.001050
44 0.001047
45 0.001043
46 0.001033
47 0.001020
48 0.001009
49 0.000999
50 0.000994
51 0.000990
52 0.000984
53 0.000975
54 0.000967
55 0.000956
56 0.000947
57 0.000942
58 0.000934
59 0.000934
60 0.000937
61 0.000942
62 0.000942
63 0.000935
64 0.000935
65 0.000939
66 0.000946
67 0.000949
68 0.000951
69 0.000952
70 0.000951
71 0.000948
72 0.000935
73 0.000919
74 0.000902
75 0.000889
76 0.000872
77 0.000860
78 0.000856
79 0.000859
80 0.000860
81 0.000863
82 0.000861
83 0.000863
84 0.000862
85 0.000863
86 0.000867
87 0.000873
88 0.000877
89 0.000878
90 0.000878
91 0.000873
92 0.000867
93 0.000866
94 0.000870
95 0.000874
96 0.000867
97 0.000859
98 0.000850
99 0.000840
100 0.000833
101 0.000828
102 0.000820
103 0.000815
104 0.000813
105 0.000814
106 0.000813
107 0.000812
108 0.000815
109 0.000813
110 0.000805
111 0.000802
112 0.000800
113 0.000802
114 0.000800
115 0.000799
116 0.000787
117 0.000780
118 0.000774
119 0.000773
120 0.000772
121 0.000772
122 0.000776
123 0.000779
124 0.000776
125 0.000776
126 0.000772
127 0.000768
128 0.000763
129 0.000755
130 0.000744
131 0.000738
132 0.000738
133 0.000736
134 0.000732
135 0.000727
136 0.000725
137 0.000727
138 0.000732
139 0.000737
140 0.000741
141 0.000744
142 0.000744
143 0.000733
144 0.000719
145 0.000712
146 0.000707
147 0.000705
148 0.000700
149 0.000698
150 0.000695
151 0.000693
152 0.000692
153 0.000691
154 0.000687
155 0.000684
156 0.000677
157 0.000670
158 0.000661
159 0.000650
160 0.000642
161 0.000635
162 0.000627
163 0.000622
164 0.000618
165 0.000618
166 0.000617
167 0.000612
168 0.000612
169 0.000612
170 0.000611
171 0.000610
172 0.000611
173 0.000617
174 0.000625
175 0.000631
176 0.000634
177 0.000639
178 0.000638
179 0.000636
180 0.000632
181 0.000624
182 0.000618
183 0.000610
184 0.000608
185 0.000603
186 0.000599
187 0.000597
188 0.000593
189 0.000592
190 0.000592
191 0.000595
192 0.000602
193 0.000605
194 0.000613
195 0.000619
196 0.000624
197 0.000623
198 0.000627
199 0.000625
200 0.000617
201 0.000612
202 0.000611
203 0.000613
204 0.000612
205 0.000609
206 0.000608
207 0.000609
208 0.000611
209 0.000615
210 0.000614
211 0.000607
212 0.000601
213 0.000592
214 0.000578
215 0.000567
216 0.000560
217 0.000555
218 0.000550
219 0.000550
220 0.000556
221 0.000562
222 0.000565
223 0.000565
224 0.000562
225 0.000555
226 0.000551
227 0.000550
228 0.000549
229 0.000545
230 0.000546
231 0.000543
232 0.000540
233 0.000533
234 0.000531
235 0.000528
236 0.000529
237 0.000531
238 0.000532
239 0.000527
240 0.000529
241 0.000532
242 0.000535
243 0.000535
244 0.000531
245 0.000530
246 0.000530
247 0.000530
248 0.000528
249 0.000523
250 0.000518
251 0.000511
252 0.000504
253 0.000497
254 0.000489
255 0.000483
256 0.000473
257 0.000462
258 0.000451
259 0.000443
260 0.000442
261 0.000438
262 0.000437
263 0.000437
264 0.000436
265 0.000434
266 0.000433
267 0.000434
268 0.000431
269 0.000426
270 0.000422
271 0.000421
272 0.000418
273 0.000413
274 0.000406
275 0.000400
276 0.000393
277 0.000390
278 0.000389
279 0.000390
280 0.000393
281 0.000398
282 0.000402
283 0.000402
284 0.000401
285 0.000397
286 0.000392
287 0.000387
288 0.000390
289 0.000395
290 0.000400
291 0.000407
292 0.000415
293 0.000422
294 0.000425
295 0.000426
296 0.000427
297 0.000426
298 0.000423
299 0.000422
300 0.000418
301 0.000415
302 0.000413
303 0.000416
304 0.000414
305 0.000407
306 0.000404
307 0.000402
308 0.000397
309 0.000393
310 0.000386
311 0.000384
312 0.000385
313 0.000388
314 0.000393
315 0.000395
316 0.000400
317 0.000407
318 0.000415
319 0.000421
320 0.000423
321 0.000425
322 0.000425
323 0.000429
324 0.000434
325 0.000439
326 0.000449
327 0.000451
328 0.000450
329 0.000450
330 0.000447
331 0.000450
332 0.000452
333 0.000452
334 0.000453
335 0.000449
336 0.000448
337 0.000443
338 0.000437
339 0.000427
340 0.000414
341 0.000406
342 0.000405
343 0.000408
344 0.000408
345 0.000410
346 0.000409
347 0.000408
348 0.000408
349 0.000414
350 0.000421
351 0.000427
352 0.000430
353 0.000426
354 0.000421
355 0.000416
356 0.000410
357 0.000401
358 0.000397
359 0.000398
360 0.000399
361 0.000401
362 0.000399
363 0.000399
364 0.000396
365 0.000395
366 0.000394
367 0.000390
368 0.000390
369 0.000390
370 0.000389
371 0.000390
372 0.000394
373 0.000397
374 0.000403
375 0.000408
376 0.000413
377 0.000418
378 0.000420
379 0.000420
380 0.000418
381 0.000416
382 0.000416
383 0.000419
384 0.000419
385 0.000417
386 0.000419
387 0.000419
388 0.000419
389 0.000419
390 0.000417
391 0.000414
392 0.000411
393 0.000409
394 0.000409
395 0.000408
396 0.000405
397 0.000405
398 0.000405
399 0.000401
400 0.000400
401 0.000399
402 0.000397
403 0.000398
404 0.000399
405 0.000399
406 0.000397
407 0.000395
408 0.000392
409 0.000387
410 0.000380
411 0.000377
412 0.000375
413 0.000375
414 0.000374
415 0.000370
416 0.000369
417 0.000367
418 0.000369
419 0.000370
420 0.000374
421 0.000376
422 0.000378
423 0.000373
424 0.000367
425 0.000363
426 0.000361
427 0.000357
428 0.000352
429 0.000349
430 0.000346
431 0.000346
432 0.000349
433 0.000355
434 0.000358
435 0.000358
436 0.000360
437 0.000364
438 0.000366
439 0.000369
440 0.000371
441 0.000372
442 0.000371
443 0.000374
444 0.000378
445 0.000383
446 0.000389
447 0.000392
448 0.000392
449 0.000393
450 0.000388
451 0.000386
452 0.000382
453 0.000378
454 0.000377
455 0.000375
456 0.000372
457 0.000371
458 0.000369
459 0.000364
460 0.000359
461 0.000352
462 0.000347
463 0.000340
464 0.000337
465 0.000338
466 0.000336
467 0.000336
468 0.000336
469 0.000336
470 0.000339
471 0.000343
472 0.000349
473 0.000355
474 0.000360
475 0.000360
476 0.000361
477 0.000359
478 0.000359
479 0.000357
480 0.000353
481 0.000352
482 0.000348
483 0.000348
484 0.000348
485 0.000343
486 0.000337
487 0.000334
488 0.000334
489 0.000330
490 0.000327
491 0.000327
492 0.000326
493 0.000322
494 0.000321
495 0.000317
496 0.000306
497 0.000303
498 0.000302
499 0.000297
500 0.000297
501 0.000301
502 0.000306
503 0.000308
504 0.000307
505 0.000308
506 0.000311
507 0.000308
508 0.000309
509 0.000308
510 0.000304
511 0.000302
512 0.000300
513 0.000297
514 0.000295
515 0.000296
516 0.000296
517 0.000294
518 0.000290
519 0.000289
520 0.000286
521 0.000284
522 0.000280
523 0.000277
524 0.000277
525 0.000278
526 0.000280
527 0.000281
528 0.000281
529 0.000280
530 0.000280
531 0.000280
532 0.000278
533 0.000278
534 0.000280
535 0.000281
536 0.000284
537 0.000284
538 0.000283
539 0.000283
540 0.000286
541 0.000287
542 0.000286
543 0.000289
544 0.000295
545 0.000301
546 0.000304
547 0.000304
548 0.000304
549 0.000302
550 0.000297
551 0.000292
552 0.000289
553 0.000288
554 0.000292
555 0.000294
556 0.000294
557 0.000290
558 0.000287
559 0.000287
560 0.000289
561 0.000287
562 0.000288
563 0.000294
564 0.000298
565 0.000299
566 0.000302
567 0.000302
568 0.000303
569 0.000307
570 0.000309
571 0.000315
572 0.000319
573 0.000324
574 0.000330
575 0.000335
576 0.000342
577 0.000344
578 0.000345
579 0.000347
580 0.000350
581 0.000353
582 0.000354
583 0.000349
584 0.000342
585 0.000337
586 0.000337
587 0.000336
588 0.000331
589 0.000326
590 0.000324
591 0.000320
592 0.000315
593 0.000313
594 0.000310
595 0.000308
596 0.000309
597 0.000308
598 0.000309
599 0.000312
600 0.000313
601 0.000309
602 0.000306
603 0.000301
604 0.000295
605 0.000292
606 0.000293
607 0.000295
608 0.000293
609 0.000292
610 0.000294
611 0.000295
612 0.000295
613 0.000293
614 0.000295
615 0.000297
616 0.000301
617 0.000302
618 0.000298
619 0.000295
620 0.000296
621 0.000296
622 0.000295
623 0.000292
624 0.000293
625 0.000293
626 0.000292
627 0.000288
628 0.000283
629 0.000279
630 0.000275
631 0.000273
632 0.000271
633 0.000267
634 0.000263
635 0.000261
636 0.000257
637 0.000252
638 0.000245
639 0.000240
640 0.000237
641 0.000238
642 0.000239
643 0.000242
644 0.000248
645 0.000250
646 0.000249
647 0.000248
648 0.000246
649 0.000245
650 0.000244
651 0.000242
652 0.000242
653 0.000241
654 0.000238
655 0.000236
656 0.000230
657 0.000227
658 0.000224
659 0.000220
660 0.000216
661 0.000214
662 0.000208
663 0.000202
664 0.000195
665 0.000191
666 0.000189
667 0.000189
668 0.000191
669 0.000193
670 0.000193
671 0.000195
672 0.000196
673 0.000194
674 0.000194
675 0.000194
676 0.000195
677 0.000202
678 0.000208
679 0.000212
680 0.000214
681 0.000215
682 0.000217
683 0.000215
684 0.000213
685 0.000214
686 0.000216
687 0.000220
688 0.000224
689 0.000228
690 0.000230
691 0.000232
692 0.000233
693 0.000232
694 0.000234
695 0.000239
696 0.000243
697 0.000247
698 0.000249
699 0.000249
700 0.000248
701 0.000251
702 0.000255
703 0.000258
704 0.000262
705 0.000263
706 0.000262
707 0.000259
708 0.000257
709 0.000255
710 0.000255
711 0.000257
712 0.000259
713 0.000260
714 0.000262
715 0.000265
716 0.000265
717 0.000263
718 0.000262
719 0.000264
720 0.000265
721 0.000265
722 0.000266
723 0.000262
724 0.000259
725 0.000257
726 0.000252
727 0.000247
728 0.000242
729 0.000239
730 0.000233
731 0.000229
732 0.000228
733 0.000225
734 0.000222
735 0.000218
736 0.000214
737 0.000212
738 0.000212
739 0.000213
740 0.000215
741 0.000214
742 0.000210
743 0.000205
744 0.000199
745 0.000192
746 0.000187
747 0.000184
748 0.000180
749 0.000178
750 0.000175
751 0.000171
752 0.000168
753 0.000165
754 0.000163
755 0.000162
756 0.000165
757 0.000166
758 0.000168
759 0.000168
760 0.000166
761 0.000166
762 0.000165
763 0.000164
764 0.000164
765 0.000164
766 0.000163
767 0.000162
768 0.000162
769 0.000162
770 0.000162
771 0.000161
772 0.000161
773 0.000160
774 0.000162
775 0.000164
776 0.000167
777 0.000169
778 0.000169
779 0.000169
780 0.000168
781 0.000169
782 0.000169
783 0.000168
784 0.000167
785 0.000168
786 0.000169
787 0.000169
788 0.000165
789 0.000162
790 0.000159
791 0.000156
792 0.000156
793 0.000152
794 0.000148
795 0.000143
796 0.000137
797 0.000134
798 0.000131
799 0.000131
800 0.000131
801 0.000131
802 0.000130
803 0.000130
804 0.000129
805 0.000128
806 0.000128
807 0.000128
808 0.000125
809 0.000123
