# i correlation
1 0.001333
2 0.001283
3 0.001245
4 0.001212
5 0.001182
6 0.001161
7 0.001145
8 0.001137
9 0.001131
10 0.001119
11 0.001115
12 0.001111
13 0.001102
14 0.001095
15 0.001081
16 0.001071
17 0.001061
18 0.001052
19 0.001043
20 0.001033
21 0.001026
22 0.001013
23 0.001004
24 0.000997
25 0.000986
26 0.000974
27 0.000963
28 0.000951
29 0.000941
30 0.000930
31 0.000922
32 0.000916
33 0.000913
34 0.000913
35 0.000908
36 0.000906
37 0.000907
38 0.000910
39 0.000901
40 0.000898
41 0.000892
42 0.000887
43 0.000885
44 0.000887
45 0.000888
46 0.000893
47 0.000897
48 0.000897
49 0.000893
50 0.000888
51 0.000876
52 0.000868
53 0.000860
54 0.000852
55 0.000854
56 0.000856
57 0.000854
58 0.000850
59 0.000851
60 0.000850
61 0.000848
62 0.000848
63 0.000848
64 0.000853
65 0.000849
66 0.000841
67 0.000835
68 0.000829
69 0.000822
70 0.000816
71 0.000813
72 0.000807
73 0.000803
74 0.000797
75 0.000793
76 0.000790
77 0.000790
78 0.000787
79 0.000777
80 0.000769
81 0.000767
82 0.000764
83 0.000762
84 0.000758
85 0.000757
86 0.000755
87 0.000750
88 0.000747
89 0.000741
90 0.000732
91 0.000724
92 0.000716
93 0.000704
94 0.000698
95 0.000697
96 0.000694
97 0.000693
98 0.000692
99 0.000694
100 0.000693
101 0.000695
102 0.000703
103 0.000703
104 0.000703
105 0.000707
106 0.000709
107 0.000710
108 0.000710
109 0.000711
110 0.000711
111 0.000714
112 0.000714
113 0.000712
114 0.000716
115 0.000720
116 0.000720
117 0.000717
118 0.000718
119 0.000721
120 0.000721
121 0.000720
122 0.000722
123 0.000730
124 0.000738
125 0.000740
126 0.000741
127 0.000741
128 0.000736
129 0.000731
130 0.000728
131 0.000727
132 0.000724
133 0.000724
134 0.000719
135 0.000716
136 0.000710
137 0.000701
138 0.000695
139 0.000696
140 0.000693
141 0.000690
142 0.000685
143 0.000682
144 0.000680
145 0.000680
146 0.000676
147 0.000674
148 0.000672
149 0.000668
150 0.000658
151 0.000653
152 0.000654
153 0.000651
154 0.000648
155 0.000643
156 0.000635
157 0.000625
158 0.000616
159 0.000609
160 0.000602
161 0.000597
162 0.000587
163 0.000577
164 0.000571
165 0.000566
166 0.000562
167 0.000561
168 0.000560
169 0.000557
170 0.000554
171 0.000555
172 0.000556
173 0.000560
174 0.000560
175 0.000558
176 0.000555
177 0.000554
178 0.000549
179 0.000552
180 0.000555
181 0.000550
182 0.000543
183 0.000540
184 0.000538
185 0.000537
186 0.000543
187 0.000550
188 0.000557
189 0.000560
190 0.000559
191 0.000562
192 0.000561
193 0.000557
194 0.000553
195 0.000553
196 0.000555
197 0.000555
198 0.000554
199 0.000550
200 0.000550
201 0.000549
202 0.000548
203 0.000550
204 0.000554
205 0.000552
206 0.000547
207 0.000544
208 0.000539
209 0.000533
210 0.000528
211 0.000527
212 0.000531
213 0.000534
214 0.000538
215 0.000543
216 0.000547
217 0.000547
218 0.000542
219 0.000535
220 0.000531
221 0.000528
222 0.000521
223 0.000515
224 0.000511
225 0.000508
226 0.000505
227 0.000498
228 0.000492
229 0.000495
230 0.000495
231 0.000496
232 0.000498
233 0.000496
234 0.000497
235 0.000496
236 0.000494
237 0.000491
238 0.000487
239 0.000483
240 0.000480
241 0.000479
242 0.000483
243 0.000491
244 0.000494
245 0.000490
246 0.000482
247 0.000477
248 0.000469
249 0.000462
250 0.000463
251 0.000469
252 0.000473
253 0.000480
254 0.000486
255 0.000490
256 0.000486
257 0.000482
258 0.000479
259 0.000476
260 0.000474
261 0.000470
262 0.000469
263 0.000473
264 0.000475
265 0.000476
266 0.000473
267 0.000472
268 0.000469
269 0.000467
270 0.000461
271 0.000457
272 0.000453
273 0.000450
274 0.000449
275 0.000449
276 0.000452
277 0.000452
278 0.000454
279 0.000456
280 0.000456
281 0.000456
282 0.000458
283 0.000453
284 0.000449
285 0.000444
286 0.000436
287 0.000428
288 0.000427
289 0.000429
290 0.000431
291 0.000433
292 0.000436
293 0.000439
294 0.000440
295 0.000439
296 0.000432
297 0.000428
298 0.000428
299 0.000431
300 0.000432
301 0.000432
302 0.000436
303 0.000440
304 0.000440
305 0.000436
306 0.000434
307 0.000432
308 0.000432
309 0.000432
310 0.000429
311 0.000427
312 0.000427
313 0.000426
314 0.000430
315 0.000430
316 0.000427
317 0.000423
318 0.000419
319 0.000416
320 0.000419
321 0.000419
322 0.000420
323 0.000421
324 0.000424
325 0.000424
326 0.000428
327 0.000424
328 0.000424
329 0.000424
330 0.000421
331 0.000424
332 0.000424
333 0.000422
334 0.000421
335 0.000423
336 0.000421
337 0.000418
338 0.000415
339 0.000415
340 0.000416
341 0.000410
342 0.000405
343 0.000398
344 0.000395
345 0.000396
346 0.000398
347 0.000400
348 0.000406
349 0.000408
350 0.000407
351 0.000403
352 0.000396
353 0.000388
354 0.000376
355 0.000361
356 0.000348
357 0.000341
358 0.000339
359 0.000344
360 0.000349
361 0.000349
362 0.000348
363 0.000344
364 0.000340
365 0.000335
366 0.000334
367 0.000332
368 0.000334
369 0.000337
370 0.000338
371 0.000338
372 0.000337
373 0.000340
374 0.000344
375 0.000347
376 0.000351
377 0.000353
378 0.000354
379 0.000351
380 0.000349
381 0.000344
382 0.000336
383 0.000332
384 0.000335
385 0.000337
386 0.000338
387 0.000341
388 0.000345
389 0.000345
390 0.000351
391 0.000358
392 0.000363
393 0.000361
394 0.000361
395 0.000365
396 0.000367
397 0.000373
398 0.000373
399 0.000369
400 0.000362
401 0.000353
402 0.000342
403 0.000335
404 0.000335
405 0.000331
406 0.000329
407 0.000326
408 0.000326
409 0.000330
410 0.000327
411 0.000323
412 0.000319
413 0.000314
414 0.000308
415 0.000307
416 0.000307
417 0.000309
418 0.000311
419 0.000311
420 0.000309
421 0.000310
422 0.000310
423 0.000311
424 0.000309
425 0.000308
426 0.000304
427 0.000300
428 0.000298
429 0.000294
430 0.000296
431 0.000298
432 0.000301
433 0.000306
434 0.000310
435 0.000312
436 0.000317
437 0.000320
438 0.000324
439 0.000333
440 0.000340
441 0.000345
442 0.000348
443 0.000346
444 0.000345
445 0.000344
446 0.000341
447 0.000344
448 0.000347
449 0.000350
450 0.000355
451 0.000360
452 0.000359
453 0.000357
454 0.000357
455 0.000359
456 0.000360
457 0.000361
458 0.000356
459 0.000357
460 0.000351
461 0.000346
462 0.000339
463 0.000334
464 0.000326
465 0.000321
466 0.000314
467 0.000307
468 0.000304
469 0.000299
470 0.000293
471 0.000287
472 0.000278
473 0.000275
474 0.000270
475 0.000265
476 0.000261
477 0.000255
478 0.000250
479 0.000247
480 0.000245
481 0.000240
482 0.000237
483 0.000235
484 0.000233
485 0.000233
486 0.000236
487 0.000239
488 0.000238
489 0.000237
490 0.000232
491 0.000227
492 0.000225
493 0.000221
494 0.000221
495 0.000223
496 0.000226
497 0.000233
498 0.000238
499 0.000245
500 0.000251
501 0.000254
502 0.000252
503 0.000251
504 0.000247
505 0.000248
506 0.000256
507 0.000258
508 0.000260
509 0.000258
510 0.000256
511 0.000252
512 0.000249
513 0.000243
514 0.000243
515 0.000245
516 0.000246
517 0.000244
518 0.000247
519 0.000254
520 0.000261
521 0.000268
522 0.000272
523 0.000278
524 0.000282
525 0.000280
526 0.000277
527 0.000274
528 0.000275
529 0.000270
530 0.000267
531 0.000261
532 0.000255
533 0.000252
534 0.000247
535 0.000245
536 0.000245
537 0.000247
538 0.000248
539 0.000250
540 0.000252
541 0.000250
542 0.000246
543 0.000242
544 0.000241
545 0.000239
546 0.000237
547 0.000236
548 0.000231
549 0.000230
550 0.000225
551 0.000223
552 0.000223
553 0.000221
554 0.000216
555 0.000214
556 0.000212
557 0.000211
558 0.000211
559 0.000207
560 0.000204
561 0.000202
562 0.000199
563 0.000200
564 0.000205
565 0.000209
566 0.000211
567 0.000212
568 0.000213
569 0.000210
570 0.000208
571 0.000209
572 0.000210
573 0.000210
574 0.000211
575 0.000213
576 0.000215
577 0.000217
578 0.000218
579 0.000222
580 0.000224
581 0.000223
582 0.000219
583 0.000223
584 0.000227
585 0.000229
586 0.000229
587 0.000229
588 0.000231
589 0.000234
590 0.000232
591 0.000230
592 0.000230
593 0.000231
594 0.000232
595 0.000229
596 0.000225
597 0.000223
598 0.000220
599 0.000214
600 0.000211
601 0.000211
602 0.000213
603 0.000212
604 0.000211
605 0.000212
606 0.000213
607 0.000211
608 0.000210
609 0.000205
610 0.000201
611 0.000198
612 0.000198
613 0.000203
614 0.000206
615 0.000204
616 0.000201
617 0.000200
618 0.000197
619 0.000195
620 0.000192
621 0.000191
622 0.000189
623 0.000186
624 0.000186
625 0.000186
626 0.000188
627 0.000193
628 0.000199
629 0.000204
630 0.000211
631 0.000218
632 0.000225
633 0.000226
634 0.000227
635 0.000228
636 0.000228
637 0.000225
638 0.000225
639 0.000225
640 0.000227
641 0.000231
642 0.000236
643 0.000239
644 0.000242
645 0.000245
646 0.000248
647 0.000251
648 0.000254
649 0.000258
650 0.000261
651 0.000266
652 0.000271
653 0.000275
654 0.000281
655 0.000283
656 0.000283
657 0.000280
658 0.000274
659 0.000270
660 0.000267
661 0.000265
662 0.000266
663 0.000269
664 0.000272
665 0.000274
666 0.000277
667 0.000277
668 0.000277
669 0.000276
670 0.000273
671 0.000271
672 0.000267
673 0.000267
674 0.000267
675 0.000269
676 0.000271
677 0.000268
678 0.000266
679 0.000267
680 0.000268
681 0.000264
682 0.000260
683 0.000258
684 0.000253
685 0.000248
686 0.000243
687 0.000238
688 0.000234
689 0.000229
690 0.000225
691 0.000221
692 0.000219
693 0.000214
694 0.000212
695 0.000210
696 0.000210
697 0.000208
698 0.000206
699 0.000209
700 0.000211
701 0.000210
702 0.000209
703 0.000208
704 0.000207
705 0.000204
706 0.000198
707 0.000195
708 0.000194
709 0.000190
710 0.000188
711 0.000188
712 0.000189
713 0.000193
714 0.000195
715 0.000194
716 0.000193
717 0.000192
718 0.000192
719 0.000195
720 0.000197
721 0.000200
722 0.000198
723 0.000196
724 0.000195
725 0.000192
726 0.000189
727 0.000184
728 0.000182
729 0.000180
730 0.000177
731 0.000175
732 0.000175
733 0.000174
734 0.000170
735 0.000164
736 0.000160
737 0.000158
738 0.000155
739 0.000155
740 0.000157
741 0.000157
742 0.000157
743 0.000155
744 0.000155
745 0.000155
746 0.000153
747 0.000149
748 0.000146
749 0.000143
750 0.000142
751 0.000141
752 0.000141
753 0.000143
754 0.000145
755 0.000146
756 0.000146
757 0.000146
758 0.000145
759 0.000144
760 0.000144
761 0.000147
762 0.000145
763 0.000141
764 0.000139
765 0.000141
766 0.000143
767 0.000144
768 0.000145
769 0.000145
770 0.000145
771 0.000145
772 0.000144
773 0.000143
774 0.000142
775 0.000142
776 0.000141
777 0.000142
778 0.000143
779 0.000144
780 0.000143
781 0.000143
782 0.000145
783 0.000147
784 0.000148
785 0.000149
786 0.000149
787 0.000150
788 0.000151
789 0.000151
790 0.000150
791 0.000149
792 0.000149
793 0.000147
794 0.000145
795 0.000145
796 0.000145
797 0.000142
798 0.000141
799 0.000142
800 0.000142
801 0.000143
802 0.000142
803 0.000142
804 0.000137
805 0.000134
806 0.000130
807 0.000124
808 0.000119
809 0.000115
