# i correlation
1 0.001861
2 0.001805
3 0.001760
4 0.001721
5 0.001686
6 0.001655
7 0.001628
8 0.001601
9 0.001571
10 0.001543
11 0.001523
12 0.001498
13 0.001482
14 0.001464
15 0.001444
16 0.001423
17 0.001404
18 0.001387
19 0.001376
20 0.001366
21 0.001360
22 0.001359
23 0.001356
24 0.001353
25 0.001353
26 0.001350
27 0.001344
28 0.001334
29 0.001329
30 0.001320
31 0.001314
32 0.001306
33 0.001298
34 0.001287
35 0.001283
36 0.001281
37 0.001276
38 0.001259
39 0.001241
40 0.001230
41 0.001219
42 0.001210
43 0.001197
44 0.001192
45 0.001184
46 0.001177
47 0.001168
48 0.001167
49 0.001162
50 0.001161
51 0.001162
52 0.001167
53 0.001168
54 0.001170
55 0.001172
56 0.001182
57 0.001189
58 0.001196
59 0.001196
60 0.001188
61 0.001185
62 0.001183
63 0.001178
64 0.001170
65 0.001162
66 0.001157
67 0.001151
68 0.001142
69 0.001133
70 0.001123
71 0.001114
72 0.001107
73 0.001104
74 0.001098
75 0.001091
76 0.001086
77 0.001085
78 0.001082
79 0.001085
80 0.001090
81 0.001096
82 0.001097
83 0.001095
84 0.001093
85 0.001090
86 0.001085
87 0.001082
88 0.001077
89 0.001070
90 0.001060
91 0.001044
92 0.001034
93 0.001030
94 0.001026
95 0.001016
96 0.001004
97 0.000998
98 0.000995
99 0.000989
100 0.000987
101 0.000988
102 0.000991
103 0.000993
104 0.000998
105 0.000997
106 0.001000
107 0.001006
108 0.001017
109 0.001022
110 0.001029
111 0.001038
112 0.001045
113 0.001051
114 0.001060
115 0.001063
116 0.001059
117 0.001055
118 0.001051
119 0.001048
120 0.001042
121 0.001032
122 0.001024
123 0.001010
124 0.000997
125 0.000986
126 0.000976
127 0.000968
128 0.000952
129 0.000941
130 0.000935
131 0.000928
132 0.000918
133 0.000908
134 0.000897
135 0.000895
136 0.000893
137 0.000894
138 0.000894
139 0.000890
140 0.000888
141 0.000882
142 0.000877
143 0.000879
144 0.000883
145 0.000887
146 0.000892
147 0.000888
148 0.000889
149 0.000893
150 0.000895
151 0.000896
152 0.000893
153 0.000896
154 0.000897
155 0.000898
156 0.000906
157 0.000909
158 0.000908
159 0.000904
160 0.000901
161 0.000898
162 0.000897
163 0.000899
164 0.000903
165 0.000903
166 0.000900
167 0.000901
168 0.000900
169 0.000894
170 0.000890
171 0.000886
172 0.000887
173 0.000889
174 0.000893
175 0.000897
176 0.000898
177 0.000898
178 0.000895
179 0.000890
180 0.000882
181 0.000879
182 0.000872
183 0.000867
184 0.000861
185 0.000856
186 0.000856
187 0.000854
188 0.000852
189 0.000852
190 0.000854
191 0.000858
192 0.000860
193 0.000864
194 0.000869
195 0.000864
196 0.000854
197 0.000850
198 0.000842
199 0.000834
200 0.000827
201 0.000825
202 0.000819
203 0.000815
204 0.000818
205 0.000814
206 0.000802
207 0.000793
208 0.000783
209 0.000771
210 0.000760
211 0.000748
212 0.000746
213 0.000739
214 0.000731
215 0.000725
216 0.000725
217 0.000721
218 0.000721
219 0.000723
220 0.000728
221 0.000727
222 0.000725
223 0.000727
224 0.000724
225 0.000724
226 0.000727
227 0.000733
228 0.000739
229 0.000745
230 0.000754
231 0.000759
232 0.000755
233 0.000753
234 0.000752
235 0.000743
236 0.000735
237 0.000729
238 0.000726
239 0.000724
240 0.000717
241 0.000717
242 0.000713
243 0.000703
244 0.000693
245 0.000685
246 0.000677
247 0.000670
248 0.000661
249 0.000654
250 0.000650
251 0.000645
252 0.000643
253 0.000637
254 0.000631
255 0.000622
256 0.000617
257 0.000611
258 0.000610
259 0.000604
260 0.000605
261 0.000606
262 0.000607
263 0.000607
264 0.000609
265 0.000611
266 0.000613
267 0.000613
268 0.000616
269 0.000615
270 0.000618
271 0.000621
272 0.000618
273 0.000618
274 0.000620
275 0.000625
276 0.000630
277 0.000629
278 0.000631
279 0.000629
280 0.000626
281 0.000626
282 0.000625
283 0.000624
284 0.000624
285 0.000624
286 0.000625
287 0.000628
288 0.000630
289 0.000633
290 0.000628
291 0.000627
292 0.000626
293 0.000627
294 0.000626
295 0.000626
296 0.000619
297 0.000613
298 0.000606
299 0.000606
300 0.000609
301 0.000615
302 0.000618
303 0.000622
304 0.000627
305 0.000632
306 0.000638
307 0.000641
308 0.000646
309 0.000648
310 0.000649
311 0.000646
312 0.000643
313 0.000638
314 0.000641
315 0.000638
316 0.000633
317 0.000626
318 0.000623
319 0.000618
320 0.000615
321 0.000613
322 0.000611
323 0.000609
324 0.000606
325 0.000600
326 0.000592
327 0.000582
328 0.000574
329 0.000573
330 0.000574
331 0.000584
332 0.000586
333 0.000589
334 0.000589
335 0.000586
336 0.000580
337 0.000578
338 0.000573
339 0.000574
340 0.000577
341 0.000577
342 0.000580
343 0.000583
344 0.000585
345 0.000593
346 0.000596
347 0.000599
348 0.000598
349 0.000597
350 0.000597
351 0.000593
352 0.000585
353 0.000581
354 0.000580
355 0.000584
356 0.000585
357 0.000579
358 0.000579
359 0.000574
360 0.000568
361 0.000566
362 0.000562
363 0.000555
364 0.000547
365 0.000536
366 0.000531
367 0.000526
368 0.000526
369 0.000528
370 0.000525
371 0.000521
372 0.000522
373 0.000519
374 0.000516
375 0.000510
376 0.000504
377 0.000499
378 0.000494
379 0.000487
380 0.000483
381 0.000484
382 0.000484
383 0.000486
384 0.000487
385 0.000488
386 0.000485
387 0.000490
388 0.000490
389 0.000492
390 0.000493
391 0.000497
392 0.000499
393 0.000497
394 0.000494
395 0.000493
396 0.000492
397 0.000492
398 0.000501
399 0.000502
400 0.000501
401 0.000498
402 0.000493
403 0.000492
404 0.000492
405 0.000493
406 0.000497
407 0.000502
408 0.000506
409 0.000510
410 0.000512
411 0.000517
412 0.000518
413 0.000516
414 0.000519
415 0.000519
416 0.000521
417 0.000522
418 0.000525
419 0.000527
420 0.000531
421 0.000527
422 0.000524
423 0.000520
424 0.000519
425 0.000517
426 0.000513
427 0.000511
428 0.000510
429 0.000507
430 0.000503
431 0.000501
432 0.000502
433 0.000504
434 0.000505
435 0.000510
436 0.000509
437 0.000506
438 0.000500
439 0.000494
440 0.000487
441 0.000483
442 0.000486
443 0.000493
444 0.000496
445 0.000498
446 0.000501
447 0.000501
448 0.000499
449 0.000494
450 0.000491
451 0.000489
452 0.000487
453 0.000485
454 0.000483
455 0.000480
456 0.000477
457 0.000477
458 0.000476
459 0.000480
460 0.000481
461 0.000475
462 0.000475
463 0.000476
464 0.000474
465 0.000470
466 0.000466
467 0.000464
468 0.000471
469 0.000475
470 0.000480
471 0.000481
472 0.000479
473 0.000476
474 0.000472
475 0.000467
476 0.000462
477 0.000459
478 0.000457
479 0.000457
480 0.000459
481 0.000460
482 0.000460
483 0.000455
484 0.000446
485 0.000438
486 0.000432
487 0.000425
488 0.000424
489 0.000422
490 0.000419
491 0.000417
492 0.000416
493 0.000419
494 0.000422
495 0.000428
496 0.000434
497 0.000434
498 0.000431
499 0.000433
500 0.000436
501 0.000438
502 0.000436
503 0.000436
504 0.000438
505 0.000444
506 0.000445
507 0.000444
508 0.000442
509 0.000443
510 0.000438
511 0.000436
512 0.000438
513 0.000435
514 0.000432
515 0.000431
516 0.000429
517 0.000422
518 0.000418
519 0.000414
520 0.000411
521 0.000406
522 0.000410
523 0.000412
524 0.000414
525 0.000416
526 0.000420
527 0.000425
528 0.000427
529 0.000426
530 0.000429
531 0.000429
532 0.000429
533 0.000427
534 0.000424
535 0.000422
536 0.000422
537 0.000423
538 0.000423
539 0.000418
540 0.000409
541 0.000403
542 0.000396
543 0.000387
544 0.000382
545 0.000376
546 0.000371
547 0.000371
548 0.000369
549 0.000372
550 0.000369
551 0.000365
552 0.000366
553 0.000365
554 0.000363
555 0.000363
556 0.000361
557 0.000358
558 0.000350
559 0.000339
560 0.000330
561 0.000326
562 0.000328
563 0.000333
564 0.000335
565 0.000334
566 0.000333
567 0.000332
568 0.000335
569 0.000334
570 0.000331
571 0.000327
572 0.000323
573 0.000319
574 0.000319
575 0.000320
576 0.000320
577 0.000322
578 0.000326
579 0.000327
580 0.000326
581 0.000330
582 0.000336
583 0.000342
584 0.000347
585 0.000352
586 0.000351
587 0.000348
588 0.000347
589 0.000348
590 0.000350
591 0.000345
592 0.000344
593 0.000346
594 0.000347
595 0.000347
596 0.000343
597 0.000340
598 0.000332
599 0.000327
600 0.000324
601 0.000321
602 0.000320
603 0.000318
604 0.000316
605 0.000314
606 0.000312
607 0.000313
608 0.000316
609 0.000317
610 0.000323
611 0.000328
612 0.000332
613 0.000333
614 0.000332
615 0.000332
616 0.000328
617 0.000324
618 0.000320
619 0.000317
620 0.000314
621 0.000309
622 0.000301
623 0.000290
624 0.000282
625 0.000275
626 0.000273
627 0.000266
628 0.000255
629 0.000244
630 0.000236
631 0.000233
632 0.000230
633 0.000225
634 0.000224
635 0.000222
636 0.000222
637 0.000224
638 0.000230
639 0.000239
640 0.000245
641 0.000250
642 0.000255
643 0.000259
644 0.000260
645 0.000264
646 0.000270
647 0.000274
648 0.000278
649 0.000280
650 0.000283
651 0.000285
652 0.000287
653 0.000287
654 0.000288
655 0.000287
656 0.000289
657 0.000291
658 0.000289
659 0.000290
660 0.000289
661 0.000291
662 0.000294
663 0.000300
664 0.000309
665 0.000312
666 0.000313
667 0.000317
668 0.000321
669 0.000324
670 0.000327
671 0.000329
672 0.000330
673 0.000329
674 0.000328
675 0.000328
676 0.000334
677 0.000337
678 0.000337
679 0.000335
680 0.000331
681 0.000324
682 0.000322
683 0.000320
684 0.000317
685 0.000314
686 0.000312
687 0.000310
688 0.000309
689 0.000308
690 0.000308
691 0.000307
692 0.000309
693 0.000313
694 0.000312
695 0.000309
696 0.000306
697 0.000304
698 0.000301
699 0.000303
700 0.000306
701 0.000308
702 0.000306
703 0.000304
704 0.000302
705 0.000298
706 0.000294
707 0.000288
708 0.000283
709 0.000279
710 0.000273
711 0.000267
712 0.000264
713 0.000260
714 0.000256
715 0.000249
716 0.000243
717 0.000235
718 0.000226
719 0.000222
720 0.000222
721 0.000226
722 0.000226
723 0.000228
724 0.000229
725 0.000231
726 0.000230
727 0.000231
728 0.000234
729 0.000236
730 0.000239
731 0.000239
732 0.000239
733 0.000236
734 0.000237
735 0.000233
736 0.000228
737 0.000219
738 0.000212
739 0.000204
740 0.000197
741 0.000190
742 0.000182
743 0.000177
744 0.000170
745 0.000165
746 0.000162
747 0.000159
748 0.000155
749 0.000151
750 0.000147
751 0.000146
752 0.000145
753 0.000150
754 0.000152
755 0.000151
756 0.000154
757 0.000159
758 0.000171
759 0.000177
760 0.000179
761 0.000183
762 0.000184
763 0.000181
764 0.000175
765 0.000172
766 0.000170
767 0.000168
768 0.000165
769 0.000164
770 0.000161
771 0.000158
772 0.000157
773 0.000150
774 0.000144
775 0.000143
776 0.000142
777 0.000140
778 0.000140
779 0.000138
780 0.000138
781 0.000136
782 0.000136
783 0.000138
784 0.000139
785 0.000140
786 0.000143
787 0.000146
788 0.000147
789 0.000144
790 0.000144
791 0.000146
792 0.000145
793 0.000146
794 0.000147
795 0.000142
796 0.000137
797 0.000132
798 0.000127
799 0.000121
800 0.000112
801 0.000103
802 0.000096
803 0.000089
804 0.000083
805 0.000077
806 0.000070
807 0.000064
808 0.000058
809 0.000052
