# i correlation
1 0.001920
2 0.001865
3 0.001821
4 0.001784
5 0.001752
6 0.001720
7 0.001695
8 0.001675
9 0.001661
10 0.001646
11 0.001627
12 0.001604
13 0.001582
14 0.001558
15 0.001542
16 0.001529
17 0.001521
18 0.001513
19 0.001504
20 0.001496
21 0.001493
22 0.001488
23 0.001483
24 0.001477
25 0.001469
26 0.001459
27 0.001451
28 0.001440
29 0.001428
30 0.001423
31 0.001415
32 0.001408
33 0.001403
34 0.001394
35 0.001387
36 0.001379
37 0.001373
38 0.001362
39 0.001354
40 0.001342
41 0.001326
42 0.001305
43 0.001290
44 0.001280
45 0.001271
46 0.001259
47 0.001249
48 0.001244
49 0.001246
50 0.001244
51 0.001244
52 0.001242
53 0.001241
54 0.001243
55 0.001251
56 0.001257
57 0.001264
58 0.001269
59 0.001269
60 0.001266
61 0.001262
62 0.001257
63 0.001250
64 0.001243
65 0.001234
66 0.001231
67 0.001224
68 0.001216
69 0.001206
70 0.001199
71 0.001190
72 0.001182
73 0.001176
74 0.001168
75 0.001157
76 0.001148
77 0.001143
78 0.001137
79 0.001129
80 0.001125
81 0.001121
82 0.001114
83 0.001106
84 0.001099
85 0.001089
86 0.001077
87 0.001065
88 0.001053
89 0.001047
90 0.001045
91 0.001045
92 0.001045
93 0.001044
94 0.001042
95 0.001040
96 0.001041
97 0.001039
98 0.001029
99 0.001024
100 0.001022
101 0.001024
102 0.001018
103 0.001016
104 0.001017
105 0.001014
106 0.001013
107 0.001013
108 0.001016
109 0.001015
110 0.001012
111 0.001009
112 0.001005
113 0.001002
114 0.001001
115 0.000996
116 0.000996
117 0.000995
118 0.000989
119 0.000984
120 0.000973
121 0.000964
122 0.000950
123 0.000938
124 0.000932
125 0.000925
126 0.000924
127 0.000923
128 0.000922
129 0.000922
130 0.000918
131 0.000913
132 0.000905
133 0.000893
134 0.000885
135 0.000880
136 0.000879
137 0.000878
138 0.000877
139 0.000870
140 0.000869
141 0.000871
142 0.000866
143 0.000859
144 0.000850
145 0.000840
146 0.000830
147 0.000822
148 0.000815
149 0.000815
150 0.000819
151 0.000824
152 0.000829
153 0.000831
154 0.000833
155 0.000832
156 0.000826
157 0.000827
158 0.000830
159 0.000833
160 0.000830
161 0.000823
162 0.000820
163 0.000815
164 0.000812
165 0.000814
166 0.000816
167 0.000815
168 0.000816
169 0.000813
170 0.000809
171 0.000802
172 0.000791
173 0.000783
174 0.000783
175 0.000778
176 0.000780
177 0.000784
178 0.000789
179 0.000787
180 0.000780
181 0.000779
182 0.000775
183 0.000771
184 0.000765
185 0.000758
186 0.000752
187 0.000750
188 0.000746
189 0.000740
190 0.000737
191 0.000729
192 0.000728
193 0.000724
194 0.000723
195 0.000717
196 0.000712
197 0.000709
198 0.000707
199 0.000703
200 0.000704
201 0.000705
202 0.000705
203 0.000704
204 0.000698
205 0.000690
206 0.000683
207 0.000680
208 0.000680
209 0.000679
210 0.000681
211 0.000681
212 0.000679
213 0.000674
214 0.000669
215 0.000660
216 0.000657
217 0.000656
218 0.000660
219 0.000663
220 0.000663
221 0.000665
222 0.000669
223 0.000673
224 0.000673
225 0.000677
226 0.000674
227 0.000679
228 0.000676
229 0.000675
230 0.000675
231 0.000673
232 0.000672
233 0.000680
234 0.000679
235 0.000676
236 0.000673
237 0.000671
238 0.000667
239 0.000659
240 0.000653
241 0.000645
242 0.000637
243 0.000629
244 0.000624
245 0.000621
246 0.000614
247 0.000606
248 0.000605
249 0.000607
250 0.000603
251 0.000602
252 0.000595
253 0.000590
254 0.000588
255 0.000584
256 0.000577
257 0.000578
258 0.000582
259 0.000589
260 0.000598
261 0.000609
262 0.000620
263 0.000628
264 0.000632
265 0.000634
266 0.000637
267 0.000640
268 0.000646
269 0.000649
270 0.000654
271 0.000661
272 0.000664
273 0.000664
274 0.000666
275 0.000666
276 0.000665
277 0.000664
278 0.000669
279 0.000675
280 0.000681
281 0.000682
282 0.000685
283 0.000688
284 0.000689
285 0.000695
286 0.000697
287 0.000699
288 0.000709
289 0.000713
290 0.000716
291 0.000719
292 0.000720
293 0.000728
294 0.000726
295 0.000729
296 0.000727
297 0.000728
298 0.000728
299 0.000726
300 0.000722
301 0.000715
302 0.000709
303 0.000706
304 0.000699
305 0.000690
306 0.000686
307 0.000681
308 0.000679
309 0.000675
310 0.000670
311 0.000661
312 0.000655
313 0.000648
314 0.000641
315 0.000638
316 0.000631
317 0.000624
318 0.000620
319 0.000622
320 0.000621
321 0.000619
322 0.000614
323 0.000609
324 0.000603
325 0.000599
326 0.000595
327 0.000590
328 0.000589
329 0.000581
330 0.000577
331 0.000573
332 0.000572
333 0.000570
334 0.000566
335 0.000563
336 0.000562
337 0.000566
338 0.000570
339 0.000573
340 0.000574
341 0.000574
342 0.000574
343 0.000574
344 0.000575
345 0.000577
346 0.000579
347 0.000576
348 0.000575
349 0.000571
350 0.000565
351 0.000558
352 0.000555
353 0.000552
354 0.000552
355 0.000551
356 0.000548
357 0.000549
358 0.000551
359 0.000551
360 0.000552
361 0.000555
362 0.000564
363 0.000569
364 0.000569
365 0.000569
366 0.000564
367 0.000562
368 0.000559
369 0.000555
370 0.000555
371 0.000554
372 0.000555
373 0.000555
374 0.000552
375 0.000551
376 0.000555
377 0.000559
378 0.000561
379 0.000563
380 0.000572
381 0.000577
382 0.000580
383 0.000581
384 0.000581
385 0.000580
386 0.000579
387 0.000578
388 0.000581
389 0.000588
390 0.000593
391 0.000595
392 0.000598
393 0.000596
394 0.000592
395 0.000592
396 0.000585
397 0.000580
398 0.000577
399 0.000577
400 0.000576
401 0.000581
402 0.000583
403 0.000584
404 0.000582
405 0.000574
406 0.000568
407 0.000562
408 0.000554
409 0.000548
410 0.000538
411 0.000531
412 0.000529
413 0.000526
414 0.000526
415 0.000522
416 0.000518
417 0.000517
418 0.000509
419 0.000510
420 0.000510
421 0.000513
422 0.000514
423 0.000515
424 0.000512
425 0.000509
426 0.000502
427 0.000499
428 0.000495
429 0.000493
430 0.000488
431 0.000487
432 0.000483
433 0.000477
434 0.000473
435 0.000467
436 0.000462
437 0.000459
438 0.000460
439 0.000462
440 0.000467
441 0.000469
442 0.000468
443 0.000467
444 0.000464
445 0.000461
446 0.000462
447 0.000465
448 0.000471
449 0.000474
450 0.000478
451 0.000483
452 0.000488
453 0.000492
454 0.000495
455 0.000493
456 0.000494
457 0.000496
458 0.000500
459 0.000501
460 0.000499
461 0.000498
462 0.000497
463 0.000493
464 0.000488
465 0.000480
466 0.000473
467 0.000471
468 0.000468
469 0.000466
470 0.000462
471 0.000455
472 0.000454
473 0.000454
474 0.000454
475 0.000449
476 0.000444
477 0.000445
478 0.000446
479 0.000449
480 0.000452
481 0.000453
482 0.000455
483 0.000455
484 0.000455
485 0.000455
486 0.000452
487 0.000453
488 0.000448
489 0.000444
490 0.000445
491 0.000452
492 0.000456
493 0.000460
494 0.000460
495 0.000462
496 0.000466
497 0.000470
498 0.000479
499 0.000485
500 0.000489
501 0.000490
502 0.000493
503 0.000494
504 0.000495
505 0.000498
506 0.000499
507 0.000501
508 0.000501
509 0.000500
510 0.000498
511 0.000495
512 0.000490
513 0.000489
514 0.000486
515 0.000485
516 0.000483
517 0.000486
518 0.000492
519 0.000491
520 0.000490
521 0.000485
522 0.000484
523 0.000483
524 0.000479
525 0.000475
526 0.000471
527 0.000469
528 0.000470
529 0.000469
530 0.000469
531 0.000473
532 0.000474
533 0.000475
534 0.000473
535 0.000470
536 0.000466
537 0.000461
538 0.000458
539 0.000457
540 0.000454
541 0.000453
542 0.000453
543 0.000451
544 0.000446
545 0.000441
546 0.000439
547 0.000432
548 0.000429
549 0.000428
550 0.000431
551 0.000435
552 0.000437
553 0.000435
554 0.000436
555 0.000439
556 0.000436
557 0.000438
558 0.000443
559 0.000450
560 0.000457
561 0.000462
562 0.000464
563 0.000464
564 0.000464
565 0.000462
566 0.000463
567 0.000462
568 0.000462
569 0.000462
570 0.000463
571 0.000466
572 0.000463
573 0.000464
574 0.000464
575 0.000461
576 0.000458
577 0.000453
578 0.000449
579 0.000444
580 0.000439
581 0.000437
582 0.000435
583 0.000436
584 0.000436
585 0.000435
586 0.000436
587 0.000435
588 0.000436
589 0.000436
590 0.000436
591 0.000439
592 0.000438
593 0.000437
594 0.000432
595 0.000429
596 0.000427
597 0.000424
598 0.000422
599 0.000420
600 0.000419
601 0.000416
602 0.000413
603 0.000413
604 0.000408
605 0.000402
606 0.000399
607 0.000401
608 0.000405
609 0.000406
610 0.000409
611 0.000412
612 0.000414
613 0.000417
614 0.000420
615 0.000420
616 0.000420
617 0.000417
618 0.000415
619 0.000415
620 0.000412
621 0.000410
622 0.000409
623 0.000410
624 0.000411
625 0.000418
626 0.000422
627 0.000422
628 0.000425
629 0.000423
630 0.000419
631 0.000416
632 0.000414
633 0.000409
634 0.000410
635 0.000414
636 0.000416
637 0.000414
638 0.000412
639 0.000412
640 0.000410
641 0.000410
642 0.000410
643 0.000409
644 0.000409
645 0.000410
646 0.000413
647 0.000415
648 0.000417
649 0.000418
650 0.000417
651 0.000418
652 0.000418
653 0.000419
654 0.000420
655 0.000424
656 0.000427
657 0.000426
658 0.000427
659 0.000428
660 0.000431
661 0.000433
662 0.000432
663 0.000435
664 0.000439
665 0.000445
666 0.000448
667 0.000449
668 0.000447
669 0.000448
670 0.000447
671 0.000445
672 0.000442
673 0.000441
674 0.000442
675 0.000442
676 0.000443
677 0.000446
678 0.000446
679 0.000446
680 0.000448
681 0.000451
682 0.000453
683 0.000454
684 0.000458
685 0.000461
686 0.000464
687 0.000466
688 0.000466
689 0.000463
690 0.000460
691 0.000458
692 0.000459
693 0.000455
694 0.000450
695 0.000444
696 0.000438
697 0.000436
698 0.000431
699 0.000426
700 0.000423
701 0.000421
702 0.000420
703 0.000415
704 0.000409
705 0.000405
706 0.000397
707 0.000390
708 0.000381
709 0.000374
710 0.000371
711 0.000366
712 0.000365
713 0.000359
714 0.000352
715 0.000347
716 0.000346
717 0.000345
718 0.000342
719 0.000341
720 0.000342
721 0.000343
722 0.000344
723 0.000342
724 0.000339
725 0.000336
726 0.000335
727 0.000334
728 0.000335
729 0.000336
730 0.000334
731 0.000332
732 0.000331
733 0.000329
734 0.000324
735 0.000319
736 0.000319
737 0.000317
738 0.000317
739 0.000316
740 0.000314
741 0.000313
742 0.000314
743 0.000315
744 0.000314
745 0.000314
746 0.000313
747 0.000314
748 0.000311
749 0.000306
750 0.000301
751 0.000295
752 0.000290
753 0.000283
754 0.000277
755 0.000271
756 0.000265
757 0.000256
758 0.000246
759 0.000239
760 0.000233
761 0.000228
762 0.000223
763 0.000216
764 0.000210
765 0.000209
766 0.000209
767 0.000208
768 0.000207
769 0.000205
770 0.000202
771 0.000201
772 0.000199
773 0.000195
774 0.000187
775 0.000178
776 0.000171
777 0.000169
778 0.000168
779 0.000167
780 0.000162
781 0.000158
782 0.000153
783 0.000151
784 0.000151
785 0.000151
786 0.000149
787 0.000146
788 0.000142
789 0.000138
790 0.000135
791 0.000131
792 0.000127
793 0.000126
794 0.000125
795 0.000124
796 0.000122
797 0.000122
798 0.000120
799 0.000119
800 0.000120
801 0.000124
802 0.000126
803 0.000130
804 0.000132
805 0.000135
806 0.000139
807 0.000138
808 0.000136
809 0.000134
