# i correlation
1 0.001638
2 0.001593
3 0.001552
4 0.001517
5 0.001487
6 0.001458
7 0.001435
8 0.001411
9 0.001383
10 0.001360
11 0.001336
12 0.001320
13 0.001303
14 0.001296
15 0.001289
16 0.001284
17 0.001277
18 0.001275
19 0.001266
20 0.001264
21 0.001263
22 0.001260
23 0.001260
24 0.001257
25 0.001253
26 0.001251
27 0.001250
28 0.001248
29 0.001240
30 0.001233
31 0.001228
32 0.001220
33 0.001209
34 0.001199
35 0.001192
36 0.001188
37 0.001187
38 0.001184
39 0.001180
40 0.001171
41 0.001167
42 0.001164
43 0.001162
44 0.001162
45 0.001166
46 0.001166
47 0.001165
48 0.001161
49 0.001164
50 0.001162
51 0.001161
52 0.001159
53 0.001161
54 0.001161
55 0.001161
56 0.001152
57 0.001145
58 0.001138
59 0.001134
60 0.001132
61 0.001124
62 0.001117
63 0.001109
64 0.001097
65 0.001091
66 0.001079
67 0.001074
68 0.001069
69 0.001065
70 0.001064
71 0.001067
72 0.001064
73 0.001063
74 0.001061
75 0.001060
76 0.001064
77 0.001065
78 0.001067
79 0.001065
80 0.001065
81 0.001064
82 0.001059
83 0.001053
84 0.001045
85 0.001038
86 0.001030
87 0.001018
88 0.001008
89 0.000994
90 0.000986
91 0.000985
92 0.000991
93 0.000992
94 0.000991
95 0.000985
96 0.000983
97 0.000983
98 0.000986
99 0.000984
100 0.000983
101 0.000977
102 0.000971
103 0.000960
104 0.000956
105 0.000946
106 0.000944
107 0.000940
108 0.000941
109 0.000941
110 0.000944
111 0.000944
112 0.000949
113 0.000952
114 0.000956
115 0.000961
116 0.000967
117 0.000972
118 0.000975
119 0.000977
120 0.000978
121 0.000977
122 0.000976
123 0.000970
124 0.000967
125 0.000963
126 0.000957
127 0.000952
128 0.000947
129 0.000947
130 0.000951
131 0.000947
132 0.000941
133 0.000934
134 0.000926
135 0.000927
136 0.000927
137 0.000933
138 0.000934
139 0.000933
140 0.000927
141 0.000922
142 0.000918
143 0.000918
144 0.000917
145 0.000920
146 0.000920
147 0.000922
148 0.000924
149 0.000922
150 0.000922
151 0.000921
152 0.000919
153 0.000920
154 0.000915
155 0.000909
156 0.000902
157 0.000900
158 0.000895
159 0.000886
160 0.000874
161 0.000865
162 0.000857
163 0.000855
164 0.000856
165 0.000852
166 0.000850
167 0.000851
168 0.000855
169 0.000856
170 0.000852
171 0.000850
172 0.000844
173 0.000841
174 0.000835
175 0.000831
176 0.000827
177 0.000825
178 0.000823
179 0.000819
180 0.000815
181 0.000809
182 0.000805
183 0.000800
184 0.000798
185 0.000796
186 0.000795
187 0.000787
188 0.000781
189 0.000780
190 0.000784
191 0.000788
192 0.000794
193 0.000797
194 0.000797
195 0.000803
196 0.000801
197 0.000801
198 0.000806
199 0.000807
200 0.000808
201 0.000809
202 0.000808
203 0.000805
204 0.000805
205 0.000802
206 0.000801
207 0.000803
208 0.000802
209 0.000800
210 0.000799
211 0.000798
212 0.000799
213 0.000806
214 0.000810
215 0.000810
216 0.000806
217 0.000797
218 0.000797
219 0.000792
220 0.000785
221 0.000781
222 0.000775
223 0.000774
224 0.000768
225 0.000760
226 0.000753
227 0.000751
228 0.000753
229 0.000754
230 0.000755
231 0.000757
232 0.000751
233 0.000747
234 0.000743
235 0.000740
236 0.000738
237 0.000736
238 0.000732
239 0.000731
240 0.000726
241 0.000719
242 0.000712
243 0.000704
244 0.000700
245 0.000699
246 0.000696
247 0.000693
248 0.000691
249 0.000684
250 0.000679
251 0.000675
252 0.000673
253 0.000672
254 0.000673
255 0.000674
256 0.000673
257 0.000673
258 0.000671
259 0.000668
260 0.000666
261 0.000663
262 0.000664
263 0.000668
264 0.000670
265 0.000674
266 0.000679
267 0.000682
268 0.000689
269 0.000698
270 0.000701
271 0.000697
272 0.000695
273 0.000694
274 0.000692
275 0.000693
276 0.000691
277 0.000692
278 0.000688
279 0.000678
280 0.000671
281 0.000665
282 0.000658
283 0.000652
284 0.000652
285 0.000648
286 0.000645
287 0.000645
288 0.000642
289 0.000644
290 0.000645
291 0.000645
292 0.000647
293 0.000649
294 0.000647
295 0.000649
296 0.000648
297 0.000644
298 0.000636
299 0.000632
300 0.000628
301 0.000628
302 0.000624
303 0.000617
304 0.000609
305 0.000603
306 0.000595
307 0.000591
308 0.000586
309 0.000577
310 0.000567
311 0.000560
312 0.000555
313 0.000549
314 0.000543
315 0.000544
316 0.000542
317 0.000540
318 0.000535
319 0.000534
320 0.000535
321 0.000535
322 0.000531
323 0.000533
324 0.000535
325 0.000538
326 0.000540
327 0.000540
328 0.000543
329 0.000546
330 0.000549
331 0.000551
332 0.000554
333 0.000557
334 0.000560
335 0.000562
336 0.000558
337 0.000559
338 0.000555
339 0.000546
340 0.000542
341 0.000539
342 0.000534
343 0.000529
344 0.000525
345 0.000524
346 0.000524
347 0.000521
348 0.000522
349 0.000524
350 0.000527
351 0.000529
352 0.000534
353 0.000535
354 0.000536
355 0.000538
356 0.000538
357 0.000536
358 0.000538
359 0.000531
360 0.000526
361 0.000521
362 0.000519
363 0.000515
364 0.000509
365 0.000502
366 0.000501
367 0.000493
368 0.000491
369 0.000486
370 0.000484
371 0.000482
372 0.000480
373 0.000477
374 0.000475
375 0.000472
376 0.000469
377 0.000468
378 0.000469
379 0.000469
380 0.000468
381 0.000468
382 0.000469
383 0.000470
384 0.000473
385 0.000477
386 0.000482
387 0.000485
388 0.000490
389 0.000489
390 0.000487
391 0.000485
392 0.000482
393 0.000484
394 0.000483
395 0.000481
396 0.000477
397 0.000476
398 0.000469
399 0.000467
400 0.000464
401 0.000461
402 0.000456
403 0.000452
404 0.000448
405 0.000451
406 0.000456
407 0.000465
408 0.000469
409 0.000476
410 0.000477
411 0.000479
412 0.000483
413 0.000490
414 0.000494
415 0.000496
416 0.000496
417 0.000502
418 0.000501
419 0.000502
420 0.000498
421 0.000496
422 0.000495
423 0.000498
424 0.000494
425 0.000493
426 0.000495
427 0.000493
428 0.000489
429 0.000484
430 0.000477
431 0.000469
432 0.000464
433 0.000463
434 0.000465
435 0.000462
436 0.000459
437 0.000458
438 0.000453
439 0.000448
440 0.000440
441 0.000435
442 0.000432
443 0.000428
444 0.000423
445 0.000423
446 0.000425
447 0.000424
448 0.000421
449 0.000420
450 0.000423
451 0.000420
452 0.000418
453 0.000415
454 0.000413
455 0.000413
456 0.000409
457 0.000406
458 0.000404
459 0.000399
460 0.000394
461 0.000386
462 0.000380
463 0.000370
464 0.000368
465 0.000361
466 0.000352
467 0.000346
468 0.000340
469 0.000336
470 0.000338
471 0.000341
472 0.000343
473 0.000348
474 0.000351
475 0.000353
476 0.000353
477 0.000350
478 0.000349
479 0.000350
480 0.000348
481 0.000351
482 0.000354
483 0.000355
484 0.000355
485 0.000356
486 0.000355
487 0.000357
488 0.000359
489 0.000357
490 0.000352
491 0.000348
492 0.000346
493 0.000344
494 0.000344
495 0.000341
496 0.000338
497 0.000335
498 0.000335
499 0.000341
500 0.000344
501 0.000350
502 0.000352
503 0.000358
504 0.000358
505 0.000362
506 0.000365
507 0.000366
508 0.000365
509 0.000363
510 0.000360
511 0.000354
512 0.000342
513 0.000333
514 0.000320
515 0.000312
516 0.000306
517 0.000301
518 0.000294
519 0.000286
520 0.000277
521 0.000269
522 0.000259
523 0.000256
524 0.000252
525 0.000251
526 0.000252
527 0.000250
528 0.000247
529 0.000246
530 0.000246
531 0.000245
532 0.000245
533 0.000248
534 0.000247
535 0.000247
536 0.000250
537 0.000253
538 0.000255
539 0.000254
540 0.000252
541 0.000251
542 0.000248
543 0.000248
544 0.000249
545 0.000248
546 0.000247
547 0.000247
548 0.000245
549 0.000245
550 0.000248
551 0.000249
552 0.000249
553 0.000249
554 0.000251
555 0.000253
556 0.000257
557 0.000257
558 0.000259
559 0.000259
560 0.000257
561 0.000258
562 0.000256
563 0.000257
564 0.000263
565 0.000270
566 0.000275
567 0.000275
568 0.000275
569 0.000274
570 0.000274
571 0.000274
572 0.000274
573 0.000272
574 0.000269
575 0.000264
576 0.000261
577 0.000257
578 0.000252
579 0.000250
580 0.000247
581 0.000245
582 0.000240
583 0.000236
584 0.000233
585 0.000228
586 0.000227
587 0.000225
588 0.000223
589 0.000222
590 0.000217
591 0.000215
592 0.000215
593 0.000217
594 0.000216
595 0.000213
596 0.000212
597 0.000212
598 0.000211
599 0.000211
600 0.000210
601 0.000213
602 0.000217
603 0.000222
604 0.000226
605 0.000225
606 0.000223
607 0.000222
608 0.000221
609 0.000221
610 0.000224
611 0.000225
612 0.000224
613 0.000220
614 0.000217
615 0.000215
616 0.000213
617 0.000209
618 0.000211
619 0.000216
620 0.000215
621 0.000215
622 0.000213
623 0.000211
624 0.000213
625 0.000212
626 0.000211
627 0.000209
628 0.000209
629 0.000209
630 0.000209
631 0.000209
632 0.000208
633 0.000208
634 0.000202
635 0.000199
636 0.000197
637 0.000194
638 0.000191
639 0.000187
640 0.000183
641 0.000180
642 0.000180
643 0.000180
644 0.000178
645 0.000174
646 0.000175
647 0.000178
648 0.000179
649 0.000180
650 0.000182
651 0.000184
652 0.000184
653 0.000186
654 0.000188
655 0.000185
656 0.000186
657 0.000186
658 0.000184
659 0.000178
660 0.000172
661 0.000167
662 0.000163
663 0.000159
664 0.000159
665 0.000161
666 0.000158
667 0.000154
668 0.000149
669 0.000145
670 0.000146
671 0.000148
672 0.000150
673 0.000154
674 0.000160
675 0.000165
676 0.000168
677 0.000169
678 0.000174
679 0.000174
680 0.000174
681 0.000173
682 0.000170
683 0.000168
684 0.000166
685 0.000164
686 0.000161
687 0.000158
688 0.000156
689 0.000156
690 0.000155
691 0.000156
692 0.000156
693 0.000157
694 0.000158
695 0.000160
696 0.000166
697 0.000167
698 0.000167
699 0.000166
700 0.000165
701 0.000170
702 0.000172
703 0.000175
704 0.000177
705 0.000176
706 0.000176
707 0.000176
708 0.000175
709 0.000172
710 0.000168
711 0.000163
712 0.000158
713 0.000152
714 0.000148
715 0.000144
716 0.000141
717 0.000138
718 0.000135
719 0.000133
720 0.000128
721 0.000123
722 0.000121
723 0.000121
724 0.000123
725 0.000122
726 0.000121
727 0.000124
728 0.000126
729 0.000127
730 0.000129
731 0.000130
732 0.000130
733 0.000127
734 0.000129
735 0.000126
736 0.000122
737 0.000119
738 0.000118
739 0.000116
740 0.000112
741 0.000109
742 0.000106
743 0.000101
744 0.000097
745 0.000094
746 0.000093
747 0.000094
748 0.000095
749 0.000095
750 0.000095
751 0.000096
752 0.000095
753 0.000091
754 0.000089
755 0.000088
756 0.000087
757 0.000087
758 0.000085
759 0.000080
760 0.000074
761 0.000068
762 0.000062
763 0.000058
764 0.000055
765 0.000054
766 0.000051
767 0.000048
768 0.000047
769 0.000047
770 0.000047
771 0.000051
772 0.000054
773 0.000058
774 0.000062
775 0.000067
776 0.000073
777 0.000078
778 0.000083
779 0.000088
780 0.000092
781 0.000091
782 0.000094
783 0.000098
784 0.000099
785 0.000097
786 0.000094
787 0.000093
788 0.000092
789 0.000090
790 0.000087
791 0.000084
792 0.000081
793 0.000075
794 0.000073
795 0.000073
796 0.000073
797 0.000070
798 0.000066
799 0.000063
800 0.000063
801 0.000064
802 0.000068
803 0.000071
804 0.000073
805 0.000075
806 0.000076
807 0.000079
808 0.000083
809 0.000085
