# i correlation
1 0.001753
2 0.001705
3 0.001669
4 0.001638
5 0.001605
6 0.001580
7 0.001558
8 0.001537
9 0.001521
10 0.001507
11 0.001494
12 0.001480
13 0.001468
14 0.001456
15 0.001445
16 0.001431
17 0.001423
18 0.001412
19 0.001404
20 0.001400
21 0.001400
22 0.001401
23 0.001397
24 0.001397
25 0.001396
26 0.001391
27 0.001379
28 0.001364
29 0.001349
30 0.001335
31 0.001323
32 0.001313
33 0.001299
34 0.001286
35 0.001275
36 0.001264
37 0.001252
38 0.001237
39 0.001229
40 0.001221
41 0.001219
42 0.001211
43 0.001206
44 0.001201
45 0.001195
46 0.001190
47 0.001188
48 0.001181
49 0.001175
50 0.001169
51 0.001160
52 0.001153
53 0.001146
54 0.001137
55 0.001125
56 0.001119
57 0.001116
58 0.001113
59 0.001109
60 0.001106
61 0.001098
62 0.001093
63 0.001087
64 0.001081
65 0.001077
66 0.001075
67 0.001068
68 0.001061
69 0.001055
70 0.001047
71 0.001038
72 0.001032
73 0.001022
74 0.001014
75 0.001011
76 0.001009
77 0.001001
78 0.000994
79 0.000991
80 0.000993
81 0.000989
82 0.000986
83 0.000983
84 0.000980
85 0.000968
86 0.000956
87 0.000948
88 0.000942
89 0.000937
90 0.000933
91 0.000928
92 0.000922
93 0.000919
94 0.000913
95 0.000904
96 0.000898
97 0.000891
98 0.000877
99 0.000862
100 0.000857
101 0.000859
102 0.000858
103 0.000854
104 0.000846
105 0.000839
106 0.000841
107 0.000843
108 0.000837
109 0.000829
110 0.000825
111 0.000824
112 0.000821
113 0.000812
114 0.000811
115 0.000812
116 0.000815
117 0.000815
118 0.000811
119 0.000801
120 0.000791
121 0.000790
122 0.000785
123 0.000777
124 0.000770
125 0.000763
126 0.000758
127 0.000757
128 0.000760
129 0.000763
130 0.000758
131 0.000755
132 0.000750
133 0.000742
134 0.000732
135 0.000720
136 0.000705
137 0.000693
138 0.000685
139 0.000677
140 0.000668
141 0.000668
142 0.000671
143 0.000671
144 0.000667
145 0.000668
146 0.000667
147 0.000667
148 0.000673
149 0.000672
150 0.000671
151 0.000671
152 0.000666
153 0.000658
154 0.000657
155 0.000652
156 0.000654
157 0.000656
158 0.000655
159 0.000651
160 0.000646
161 0.000637
162 0.000629
163 0.000627
164 0.000624
165 0.000617
166 0.000607
167 0.000598
168 0.000597
169 0.000594
170 0.000593
171 0.000588
172 0.000590
173 0.000591
174 0.000598
175 0.000599
176 0.000598
177 0.000594
178 0.000594
179 0.000588
180 0.000584
181 0.000584
182 0.000584
183 0.000586
184 0.000587
185 0.000591
186 0.000593
187 0.000598
188 0.000604
189 0.000610
190 0.000617
191 0.000620
192 0.000622
193 0.000621
194 0.000618
195 0.000613
196 0.000610
197 0.000606
198 0.000603
199 0.000601
200 0.000601
201 0.000595
202 0.000589
203 0.000582
204 0.000577
205 0.000575
206 0.000566
207 0.000562
208 0.000555
209 0.000550
210 0.000547
211 0.000550
212 0.000550
213 0.000555
214 0.000560
215 0.000561
216 0.000557
217 0.000560
218 0.000566
219 0.000566
220 0.000558
221 0.000549
222 0.000545
223 0.000538
224 0.000534
225 0.000529
226 0.000524
227 0.000515
228 0.000513
229 0.000510
230 0.000510
231 0.000508
232 0.000507
233 0.000507
234 0.000507
235 0.000514
236 0.000520
237 0.000523
238 0.000528
239 0.000538
240 0.000549
241 0.000555
242 0.000557
243 0.000558
244 0.000559
245 0.000559
246 0.000558
247 0.000556
248 0.000557
249 0.000555
250 0.000555
251 0.000549
252 0.000546
253 0.000543
254 0.000540
255 0.000534
256 0.000531
257 0.000529
258 0.000528
259 0.000531
260 0.000533
261 0.000532
262 0.000536
263 0.000543
264 0.000546
265 0.000552
266 0.000561
267 0.000564
268 0.000559
269 0.000555
270 0.000552
271 0.000548
272 0.000543
273 0.000538
274 0.000532
275 0.000529
276 0.000525
277 0.000520
278 0.000513
279 0.000507
280 0.000507
281 0.000505
282 0.000498
283 0.000494
284 0.000490
285 0.000486
286 0.000486
287 0.000482
288 0.000477
289 0.000475
290 0.000476
291 0.000477
292 0.000477
293 0.000480
294 0.000481
295 0.000486
296 0.000490
297 0.000495
298 0.000498
299 0.000503
300 0.000509
301 0.000514
302 0.000516
303 0.000520
304 0.000523
305 0.000526
306 0.000535
307 0.000543
308 0.000549
309 0.000551
310 0.000549
311 0.000547
312 0.000543
313 0.000538
314 0.000535
315 0.000536
316 0.000535
317 0.000535
318 0.000532
319 0.000530
320 0.000532
321 0.000535
322 0.000540
323 0.000545
324 0.000550
325 0.000547
326 0.000542
327 0.000534
328 0.000527
329 0.000519
330 0.000514
331 0.000507
332 0.000504
333 0.000506
334 0.000505
335 0.000502
336 0.000499
337 0.000495
338 0.000492
339 0.000491
340 0.000487
341 0.000488
342 0.000491
343 0.000493
344 0.000492
345 0.000492
346 0.000496
347 0.000501
348 0.000506
349 0.000506
350 0.000513
351 0.000516
352 0.000516
353 0.000518
354 0.000514
355 0.000510
356 0.000508
357 0.000502
358 0.000492
359 0.000485
360 0.000479
361 0.000473
362 0.000467
363 0.000464
364 0.000462
365 0.000457
366 0.000452
367 0.000448
368 0.000448
369 0.000444
370 0.000445
371 0.000445
372 0.000443
373 0.000442
374 0.000440
375 0.000440
376 0.000440
377 0.000441
378 0.000440
379 0.000434
380 0.000428
381 0.000427
382 0.000429
383 0.000431
384 0.000430
385 0.000427
386 0.000420
387 0.000418
388 0.000413
389 0.000409
390 0.000404
391 0.000403
392 0.000408
393 0.000412
394 0.000412
395 0.000409
396 0.000414
397 0.000414
398 0.000416
399 0.000417
400 0.000415
401 0.000413
402 0.000410
403 0.000406
404 0.000406
405 0.000403
406 0.000395
407 0.000394
408 0.000395
409 0.000392
410 0.000386
411 0.000381
412 0.000376
413 0.000376
414 0.000379
415 0.000377
416 0.000377
417 0.000379
418 0.000383
419 0.000381
420 0.000375
421 0.000369
422 0.000368
423 0.000368
424 0.000366
425 0.000366
426 0.000365
427 0.000358
428 0.000354
429 0.000351
430 0.000352
431 0.000354
432 0.000356
433 0.000358
434 0.000361
435 0.000366
436 0.000368
437 0.000371
438 0.000373
439 0.000371
440 0.000373
441 0.000376
442 0.000377
443 0.000376
444 0.000375
445 0.000376
446 0.000370
447 0.000363
448 0.000355
449 0.000347
450 0.000341
451 0.000337
452 0.000333
453 0.000331
454 0.000330
455 0.000328
456 0.000327
457 0.000327
458 0.000326
459 0.000327
460 0.000327
461 0.000324
462 0.000322
463 0.000319
464 0.000317
465 0.000315
466 0.000311
467 0.000310
468 0.000305
469 0.000300
470 0.000290
471 0.000286
472 0.000283
473 0.000279
474 0.000277
475 0.000276
476 0.000273
477 0.000267
478 0.000267
479 0.000265
480 0.000263
481 0.000259
482 0.000258
483 0.000256
484 0.000257
485 0.000259
486 0.000256
487 0.000253
488 0.000249
489 0.000245
490 0.000239
491 0.000230
492 0.000218
493 0.000211
494 0.000205
495 0.000204
496 0.000199
497 0.000200
498 0.000206
499 0.000213
500 0.000216
501 0.000217
502 0.000216
503 0.000215
504 0.000218
505 0.000222
506 0.000225
507 0.000229
508 0.000230
509 0.000231
510 0.000236
511 0.000241
512 0.000241
513 0.000238
514 0.000236
515 0.000235
516 0.000231
517 0.000223
518 0.000212
519 0.000203
520 0.000195
521 0.000189
522 0.000182
523 0.000174
524 0.000169
525 0.000174
526 0.000176
527 0.000177
528 0.000177
529 0.000177
530 0.000176
531 0.000177
532 0.000175
533 0.000175
534 0.000175
535 0.000177
536 0.000181
537 0.000184
538 0.000187
539 0.000190
540 0.000192
541 0.000188
542 0.000186
543 0.000183
544 0.000179
545 0.000172
546 0.000166
547 0.000166
548 0.000164
549 0.000162
550 0.000162
551 0.000163
552 0.000165
553 0.000163
554 0.000162
555 0.000162
556 0.000162
557 0.000164
558 0.000164
559 0.000167
560 0.000168
561 0.000173
562 0.000173
563 0.000178
564 0.000183
565 0.000184
566 0.000190
567 0.000193
568 0.000196
569 0.000195
570 0.000198
571 0.000196
572 0.000196
573 0.000197
574 0.000196
575 0.000193
576 0.000189
577 0.000185
578 0.000180
579 0.000173
580 0.000169
581 0.000167
582 0.000166
583 0.000167
584 0.000164
585 0.000161
586 0.000163
587 0.000163
588 0.000161
589 0.000162
590 0.000166
591 0.000169
592 0.000173
593 0.000176
594 0.000179
595 0.000179
596 0.000180
597 0.000175
598 0.000171
599 0.000165
600 0.000162
601 0.000160
602 0.000157
603 0.000153
604 0.000152
605 0.000155
606 0.000152
607 0.000153
608 0.000153
609 0.000152
610 0.000152
611 0.000153
612 0.000148
613 0.000149
614 0.000149
615 0.000148
616 0.000151
617 0.000155
618 0.000155
619 0.000155
620 0.000155
621 0.000155
622 0.000156
623 0.000159
624 0.000155
625 0.000147
626 0.000143
627 0.000141
628 0.000141
629 0.000141
630 0.000141
631 0.000140
632 0.000141
633 0.000146
634 0.000146
635 0.000144
636 0.000142
637 0.000141
638 0.000138
639 0.000134
640 0.000131
641 0.000132
642 0.000132
643 0.000132
644 0.000130
645 0.000129
646 0.000130
647 0.000130
648 0.000132
649 0.000133
650 0.000133
651 0.000128
652 0.000126
653 0.000125
654 0.000126
655 0.000128
656 0.000131
657 0.000135
658 0.000141
659 0.000146
660 0.000148
661 0.000149
662 0.000147
663 0.000148
664 0.000145
665 0.000140
666 0.000136
667 0.000136
668 0.000134
669 0.000133
670 0.000134
671 0.000134
672 0.000127
673 0.000127
674 0.000131
675 0.000131
676 0.000130
677 0.000132
678 0.000131
679 0.000131
680 0.000133
681 0.000133
682 0.000132
683 0.000133
684 0.000132
685 0.000134
686 0.000131
687 0.000127
688 0.000123
689 0.000121
690 0.000119
691 0.000115
692 0.000114
693 0.000114
694 0.000113
695 0.000110
696 0.000106
697 0.000102
698 0.000100
699 0.000098
700 0.000098
701 0.000099
702 0.000099
703 0.000096
704 0.000092
705 0.000089
706 0.000088
707 0.000086
708 0.000083
709 0.000081
710 0.000078
711 0.000074
712 0.000072
713 0.000069
714 0.000063
715 0.000061
716 0.000057
717 0.000054
718 0.000051
719 0.000048
720 0.000045
721 0.000041
722 0.000037
723 0.000035
724 0.000035
725 0.000037
726 0.000042
727 0.000043
728 0.000041
729 0.000040
730 0.000039
731 0.000035
732 0.000030
733 0.000025
734 0.000021
735 0.000019
736 0.000016
737 0.000014
738 0.000014
739 0.000016
740 0.000019
741 0.000023
742 0.000027
743 0.000030
744 0.000034
745 0.000037
746 0.000040
747 0.000043
748 0.000044
749 0.000049
750 0.000054
751 0.000063
752 0.000070
753 0.000076
754 0.000079
755 0.000083
756 0.000087
757 0.000090
758 0.000095
759 0.000097
760 0.000100
761 0.000103
762 0.000107
763 0.000108
764 0.000111
765 0.000114
766 0.000116
767 0.000117
768 0.000118
769 0.000116
770 0.000119
771 0.000123
772 0.000122
773 0.000124
774 0.000124
775 0.000128
776 0.000130
777 0.000136
778 0.000141
779 0.000146
780 0.000148
781 0.000150
782 0.000149
783 0.000149
784 0.000149
785 0.000153
786 0.000153
787 0.000152
788 0.000151
789 0.000152
790 0.000152
791 0.000151
792 0.000153
793 0.000150
794 0.000145
795 0.000142
796 0.000137
797 0.000132
798 0.000128
799 0.000123
800 0.000118
801 0.000117
802 0.000115
803 0.000114
804 0.000113
805 0.000113
806 0.000115
807 0.000118
808 0.000119
809 0.000122
