# i correlation
1 0.001645
2 0.001595
3 0.001550
4 0.001506
5 0.001473
6 0.001447
7 0.001421
8 0.001397
9 0.001378
10 0.001358
11 0.001342
12 0.001322
13 0.001302
14 0.001289
15 0.001279
16 0.001272
17 0.001262
18 0.001255
19 0.001241
20 0.001223
21 0.001215
22 0.001212
23 0.001205
24 0.001196
25 0.001187
26 0.001179
27 0.001172
28 0.001165
29 0.001157
30 0.001155
31 0.001148
32 0.001145
33 0.001141
34 0.001134
35 0.001123
36 0.001115
37 0.001100
38 0.001081
39 0.001066
40 0.001052
41 0.001044
42 0.001037
43 0.001029
44 0.001024
45 0.001022
46 0.001019
47 0.001021
48 0.001023
49 0.001027
50 0.001027
51 0.001025
52 0.001021
53 0.001013
54 0.001006
55 0.000999
56 0.000992
57 0.000991
58 0.000993
59 0.000990
60 0.000986
61 0.000980
62 0.000967
63 0.000953
64 0.000939
65 0.000932
66 0.000930
67 0.000928
68 0.000927
69 0.000922
70 0.000915
71 0.000910
72 0.000903
73 0.000896
74 0.000889
75 0.000886
76 0.000890
77 0.000891
78 0.000891
79 0.000889
80 0.000881
81 0.000874
82 0.000873
83 0.000876
84 0.000883
85 0.000888
86 0.000889
87 0.000895
88 0.000901
89 0.000902
90 0.000902
91 0.000897
92 0.000893
93 0.000888
94 0.000882
95 0.000879
96 0.000872
97 0.000862
98 0.000856
99 0.000854
100 0.000853
101 0.000852
102 0.000849
103 0.000845
104 0.000839
105 0.000829
106 0.000824
107 0.000818
108 0.000810
109 0.000804
110 0.000801
111 0.000799
112 0.000794
113 0.000786
114 0.000779
115 0.000771
116 0.000764
117 0.000761
118 0.000756
119 0.000747
120 0.000740
121 0.000734
122 0.000725
123 0.000718
124 0.000714
125 0.000708
126 0.000704
127 0.000702
128 0.000702
129 0.000701
130 0.000702
131 0.000699
132 0.000692
133 0.000685
134 0.000678
135 0.000676
136 0.000676
137 0.000684
138 0.000690
139 0.000692
140 0.000692
141 0.000686
142 0.000681
143 0.000677
144 0.000672
145 0.000673
146 0.000679
147 0.000680
148 0.000684
149 0.000684
150 0.000686
151 0.000687
152 0.000686
153 0.000690
154 0.000695
155 0.000694
156 0.000691
157 0.000692
158 0.000686
159 0.000682
160 0.000680
161 0.000679
162 0.000672
163 0.000666
164 0.000666
165 0.000668
166 0.000666
167 0.000665
168 0.000660
169 0.000662
170 0.000661
171 0.000663
172 0.000665
173 0.000663
174 0.000658
175 0.000658
176 0.000658
177 0.000657
178 0.000658
179 0.000657
180 0.000657
181 0.000654
182 0.000649
183 0.000652
184 0.000651
185 0.000646
186 0.000638
187 0.000641
188 0.000638
189 0.000635
190 0.000630
191 0.000624
192 0.000619
193 0.000618
194 0.000617
195 0.000617
196 0.000615
197 0.000611
198 0.000611
199 0.000613
200 0.000617
201 0.000623
202 0.000627
203 0.000630
204 0.000625
205 0.000625
206 0.000627
207 0.000623
208 0.000617
209 0.000615
210 0.000608
211 0.000603
212 0.000596
213 0.000586
214 0.000581
215 0.000574
216 0.000566
217 0.000558
218 0.000549
219 0.000539
220 0.000534
221 0.000534
222 0.000533
223 0.000536
224 0.000540
225 0.000545
226 0.000549
227 0.000548
228 0.000551
229 0.000550
230 0.000553
231 0.000554
232 0.000555
233 0.000554
234 0.000553
235 0.000547
236 0.000543
237 0.000543
238 0.000543
239 0.000544
240 0.000542
241 0.000540
242 0.000543
243 0.000542
244 0.000545
245 0.000549
246 0.000554
247 0.000556
248 0.000561
249 0.000567
250 0.000569
251 0.000571
252 0.000571
253 0.000570
254 0.000567
255 0.000567
256 0.000571
257 0.000572
258 0.000575
259 0.000580
260 0.000587
261 0.000591
262 0.000595
263 0.000594
264 0.000588
265 0.000579
266 0.000567
267 0.000560
268 0.000551
269 0.000542
270 0.000535
271 0.000530
272 0.000525
273 0.000517
274 0.000509
275 0.000501
276 0.000494
277 0.000490
278 0.000486
279 0.000483
280 0.000477
281 0.000469
282 0.000465
283 0.000465
284 0.000469
285 0.000471
286 0.000477
287 0.000476
288 0.000475
289 0.000476
290 0.000477
291 0.000481
292 0.000482
293 0.000482
294 0.000481
295 0.000476
296 0.000471
297 0.000469
298 0.000463
299 0.000461
300 0.000460
301 0.000457
302 0.000450
303 0.000443
304 0.000433
305 0.000426
306 0.000418
307 0.000415
308 0.000413
309 0.000411
310 0.000413
311 0.000413
312 0.000410
313 0.000404
314 0.000397
315 0.000389
316 0.000386
317 0.000384
318 0.000388
319 0.000390
320 0.000391
321 0.000393
322 0.000395
323 0.000394
324 0.000395
325 0.000394
326 0.000392
327 0.000391
328 0.000388
329 0.000387
330 0.000386
331 0.000387
332 0.000389
333 0.000389
334 0.000392
335 0.000394
336 0.000397
337 0.000400
338 0.000402
339 0.000404
340 0.000406
341 0.000410
342 0.000408
343 0.000408
344 0.000405
345 0.000404
346 0.000401
347 0.000395
348 0.000396
349 0.000396
350 0.000396
351 0.000401
352 0.000412
353 0.000418
354 0.000426
355 0.000431
356 0.000431
357 0.000429
358 0.000429
359 0.000432
360 0.000439
361 0.000444
362 0.000447
363 0.000447
364 0.000446
365 0.000444
366 0.000441
367 0.000438
368 0.000439
369 0.000438
370 0.000439
371 0.000437
372 0.000432
373 0.000426
374 0.000417
375 0.000410
376 0.000408
377 0.000408
378 0.000409
379 0.000412
380 0.000410
381 0.000403
382 0.000397
383 0.000390
384 0.000384
385 0.000380
386 0.000377
387 0.000380
388 0.000382
389 0.000385
390 0.000388
391 0.000385
392 0.000380
393 0.000370
394 0.000360
395 0.000353
396 0.000347
397 0.000336
398 0.000331
399 0.000327
400 0.000324
401 0.000324
402 0.000325
403 0.000324
404 0.000322
405 0.000319
406 0.000314
407 0.000310
408 0.000305
409 0.000307
410 0.000306
411 0.000310
412 0.000315
413 0.000323
414 0.000329
415 0.000335
416 0.000333
417 0.000337
418 0.000338
419 0.000339
420 0.000341
421 0.000342
422 0.000344
423 0.000347
424 0.000353
425 0.000356
426 0.000358
427 0.000362
428 0.000367
429 0.000371
430 0.000374
431 0.000379
432 0.000381
433 0.000382
434 0.000380
435 0.000376
436 0.000378
437 0.000381
438 0.000383
439 0.000386
440 0.000388
441 0.000385
442 0.000380
443 0.000379
444 0.000378
445 0.000377
446 0.000374
447 0.000372
448 0.000377
449 0.000382
450 0.000387
451 0.000392
452 0.000394
453 0.000394
454 0.000392
455 0.000392
456 0.000392
457 0.000389
458 0.000384
459 0.000377
460 0.000372
461 0.000370
462 0.000371
463 0.000371
464 0.000366
465 0.000362
466 0.000359
467 0.000358
468 0.000354
469 0.000349
470 0.000344
471 0.000339
472 0.000339
473 0.000340
474 0.000339
475 0.000337
476 0.000335
477 0.000333
478 0.000333
479 0.000334
480 0.000336
481 0.000331
482 0.000326
483 0.000324
484 0.000322
485 0.000328
486 0.000331
487 0.000331
488 0.000333
489 0.000335
490 0.000336
491 0.000343
492 0.000346
493 0.000346
494 0.000347
495 0.000346
496 0.000346
497 0.000346
498 0.000346
499 0.000348
500 0.000350
501 0.000355
502 0.000362
503 0.000367
504 0.000363
505 0.000360
506 0.000360
507 0.000362
508 0.000368
509 0.000378
510 0.000384
511 0.000389
512 0.000394
513 0.000394
514 0.000395
515 0.000396
516 0.000398
517 0.000400
518 0.000402
519 0.000405
520 0.000409
521 0.000410
522 0.000405
523 0.000401
524 0.000401
525 0.000399
526 0.000396
527 0.000394
528 0.000392
529 0.000389
530 0.000389
531 0.000385
532 0.000379
533 0.000379
534 0.000379
535 0.000381
536 0.000385
537 0.000384
538 0.000384
539 0.000386
540 0.000386
541 0.000387
542 0.000389
543 0.000391
544 0.000394
545 0.000398
546 0.000401
547 0.000398
548 0.000398
549 0.000398
550 0.000396
551 0.000394
552 0.000391
553 0.000385
554 0.000380
555 0.000377
556 0.000372
557 0.000371
558 0.000365
559 0.000360
560 0.000356
561 0.000351
562 0.000347
563 0.000347
564 0.000345
565 0.000340
566 0.000338
567 0.000335
568 0.000332
569 0.000331
570 0.000331
571 0.000330
572 0.000329
573 0.000326
574 0.000325
575 0.000324
576 0.000321
577 0.000320
578 0.000319
579 0.000317
580 0.000314
581 0.000312
582 0.000308
583 0.000304
584 0.000301
585 0.000304
586 0.000309
587 0.000316
588 0.000323
589 0.000328
590 0.000332
591 0.000336
592 0.000336
593 0.000341
594 0.000347
595 0.000348
596 0.000356
597 0.000362
598 0.000365
599 0.000365
600 0.000364
601 0.000365
602 0.000368
603 0.000374
604 0.000377
605 0.000379
606 0.000377
607 0.000377
608 0.000377
609 0.000373
610 0.000371
611 0.000366
612 0.000362
613 0.000361
614 0.000356
615 0.000351
616 0.000345
617 0.000340
618 0.000337
619 0.000334
620 0.000335
621 0.000336
622 0.000334
623 0.000336
624 0.000338
625 0.000338
626 0.000339
627 0.000337
628 0.000336
629 0.000335
630 0.000335
631 0.000337
632 0.000338
633 0.000339
634 0.000337
635 0.000335
636 0.000332
637 0.000328
638 0.000329
639 0.000332
640 0.000335
641 0.000335
642 0.000331
643 0.000325
644 0.000319
645 0.000318
646 0.000318
647 0.000317
648 0.000314
649 0.000313
650 0.000313
651 0.000314
652 0.000313
653 0.000311
654 0.000309
655 0.000307
656 0.000305
657 0.000306
658 0.000307
659 0.000304
660 0.000301
661 0.000297
662 0.000294
663 0.000294
664 0.000294
665 0.000290
666 0.000289
667 0.000283
668 0.000276
669 0.000271
670 0.000264
671 0.000258
672 0.000254
673 0.000254
674 0.000255
675 0.000258
676 0.000260
677 0.000260
678 0.000260
679 0.000261
680 0.000263
681 0.000268
682 0.000272
683 0.000272
684 0.000272
685 0.000268
686 0.000266
687 0.000266
688 0.000268
689 0.000271
690 0.000275
691 0.000280
692 0.000282
693 0.000282
694 0.000281
695 0.000280
696 0.000279
697 0.000281
698 0.000280
699 0.000281
700 0.000282
701 0.000284
702 0.000284
703 0.000285
704 0.000285
705 0.000284
706 0.000285
707 0.000286
708 0.000286
709 0.000284
710 0.000281
711 0.000279
712 0.000277
713 0.000275
714 0.000274
715 0.000273
716 0.000272
717 0.000269
718 0.000265
719 0.000260
720 0.000253
721 0.000247
722 0.000241
723 0.000240
724 0.000243
725 0.000246
726 0.000247
727 0.000245
728 0.000242
729 0.000236
730 0.000231
731 0.000228
732 0.000221
733 0.000217
734 0.000213
735 0.000212
736 0.000211
737 0.000210
738 0.000206
739 0.000205
740 0.000207
741 0.000209
742 0.000213
743 0.000214
744 0.000212
745 0.000211
746 0.000210
747 0.000209
748 0.000210
749 0.000209
750 0.000211
751 0.000212
752 0.000213
753 0.000213
754 0.000213
755 0.000211
756 0.000210
757 0.000209
758 0.000210
759 0.000209
760 0.000207
761 0.000204
762 0.000200
763 0.000197
764 0.000193
765 0.000188
766 0.000184
767 0.000178
768 0.000174
769 0.000172
770 0.000168
771 0.000163
772 0.000163
773 0.000163
774 0.000165
775 0.000167
776 0.000168
777 0.000172
778 0.000176
779 0.000179
780 0.000183
781 0.000185
782 0.000186
783 0.000187
784 0.000186
785 0.000185
786 0.000184
787 0.000181
788 0.000179
789 0.000176
790 0.000174
791 0.000176
792 0.000178
793 0.000180
794 0.000182
795 0.000184
796 0.000185
797 0.000188
798 0.000188
799 0.000188
800 0.000187
801 0.000187
802 0.000186
803 0.000188
804 0.000191
805 0.000191
806 0.000192
807 0.000191
808 0.000189
809 0.000187
