# i correlation
1 0.001718
2 0.001668
3 0.001619
4 0.001582
5 0.001550
6 0.001524
7 0.001499
8 0.001478
9 0.001460
10 0.001442
11 0.001420
12 0.001402
13 0.001381
14 0.001364
15 0.001347
16 0.001333
17 0.001326
18 0.001321
19 0.001320
20 0.001308
21 0.001297
22 0.001286
23 0.001278
24 0.001268
25 0.001256
26 0.001243
27 0.001227
28 0.001215
29 0.001204
30 0.001197
31 0.001193
32 0.001192
33 0.001188
34 0.001184
35 0.001181
36 0.001173
37 0.001169
38 0.001163
39 0.001153
40 0.001144
41 0.001141
42 0.001144
43 0.001139
44 0.001135
45 0.001130
46 0.001124
47 0.001119
48 0.001115
49 0.001115
50 0.001114
51 0.001113
52 0.001114
53 0.001114
54 0.001114
55 0.001103
56 0.001094
57 0.001084
58 0.001071
59 0.001057
60 0.001050
61 0.001044
62 0.001042
63 0.001032
64 0.001028
65 0.001024
66 0.001019
67 0.001015
68 0.001013
69 0.001006
70 0.001001
71 0.000994
72 0.000988
73 0.000982
74 0.000978
75 0.000968
76 0.000957
77 0.000940
78 0.000931
79 0.000925
80 0.000920
81 0.000910
82 0.000897
83 0.000884
84 0.000874
85 0.000867
86 0.000863
87 0.000858
88 0.000853
89 0.000855
90 0.000850
91 0.000849
92 0.000845
93 0.000844
94 0.000841
95 0.000834
96 0.000827
97 0.000818
98 0.000814
99 0.000809
100 0.000805
101 0.000792
102 0.000784
103 0.000782
104 0.000782
105 0.000782
106 0.000785
107 0.000780
108 0.000784
109 0.000783
110 0.000786
111 0.000785
112 0.000787
113 0.000789
114 0.000790
115 0.000786
116 0.000783
117 0.000780
118 0.000778
119 0.000769
120 0.000759
121 0.000754
122 0.000755
123 0.000757
124 0.000758
125 0.000758
126 0.000757
127 0.000759
128 0.000767
129 0.000767
130 0.000768
131 0.000769
132 0.000765
133 0.000765
134 0.000761
135 0.000756
136 0.000751
137 0.000745
138 0.000739
139 0.000730
140 0.000726
141 0.000719
142 0.000714
143 0.000711
144 0.000711
145 0.000708
146 0.000704
147 0.000700
148 0.000694
149 0.000686
150 0.000682
151 0.000671
152 0.000662
153 0.000650
154 0.000646
155 0.000641
156 0.000640
157 0.000638
158 0.000634
159 0.000632
160 0.000635
161 0.000638
162 0.000645
163 0.000651
164 0.000652
165 0.000650
166 0.000648
167 0.000643
168 0.000636
169 0.000630
170 0.000619
171 0.000606
172 0.000594
173 0.000583
174 0.000579
175 0.000569
176 0.000564
177 0.000555
178 0.000551
179 0.000546
180 0.000545
181 0.000542
182 0.000544
183 0.000550
184 0.000556
185 0.000562
186 0.000567
187 0.000570
188 0.000569
189 0.000571
190 0.000568
191 0.000566
192 0.000565
193 0.000569
194 0.000570
195 0.000574
196 0.000576
197 0.000584
198 0.000592
199 0.000597
200 0.000597
201 0.000599
202 0.000599
203 0.000598
204 0.000598
205 0.000593
206 0.000588
207 0.000581
208 0.000581
209 0.000575
210 0.000572
211 0.000568
212 0.000568
213 0.000559
214 0.000553
215 0.000546
216 0.000543
217 0.000544
218 0.000548
219 0.000550
220 0.000547
221 0.000540
222 0.000536
223 0.000528
224 0.000520
225 0.000510
226 0.000503
227 0.000498
228 0.000498
229 0.000496
230 0.000491
231 0.000485
232 0.000479
233 0.000471
234 0.000466
235 0.000463
236 0.000466
237 0.000468
238 0.000472
239 0.000477
240 0.000481
241 0.000484
242 0.000487
243 0.000489
244 0.000489
245 0.000488
246 0.000486
247 0.000481
248 0.000478
249 0.000477
250 0.000479
251 0.000478
252 0.000482
253 0.000488
254 0.000495
255 0.000499
256 0.000502
257 0.000497
258 0.000494
259 0.000494
260 0.000494
261 0.000496
262 0.000496
263 0.000499
264 0.000501
265 0.000500
266 0.000501
267 0.000496
268 0.000492
269 0.000484
270 0.000478
271 0.000475
272 0.000476
273 0.000477
274 0.000478
275 0.000476
276 0.000477
277 0.000475
278 0.000476
279 0.000473
280 0.000467
281 0.000458
282 0.000451
283 0.000444
284 0.000442
285 0.000438
286 0.000431
287 0.000426
288 0.000423
289 0.000418
290 0.000417
291 0.000415
292 0.000415
293 0.000417
294 0.000420
295 0.000417
296 0.000416
297 0.000421
298 0.000419
299 0.000418
300 0.000410
301 0.000405
302 0.000399
303 0.000394
304 0.000387
305 0.000378
306 0.000372
307 0.000372
308 0.000375
309 0.000379
310 0.000384
311 0.000390
312 0.000394
313 0.000397
314 0.000399
315 0.000400
316 0.000402
317 0.000398
318 0.000395
319 0.000387
320 0.000385
321 0.000383
322 0.000381
323 0.000378
324 0.000373
325 0.000370
326 0.000370
327 0.000369
328 0.000368
329 0.000366
330 0.000364
331 0.000362
332 0.000360
333 0.000360
334 0.000362
335 0.000365
336 0.000368
337 0.000365
338 0.000359
339 0.000353
340 0.000346
341 0.000346
342 0.000346
343 0.000343
344 0.000339
345 0.000340
346 0.000345
347 0.000350
348 0.000348
349 0.000343
350 0.000341
351 0.000336
352 0.000340
353 0.000342
354 0.000344
355 0.000342
356 0.000342
357 0.000337
358 0.000335
359 0.000336
360 0.000336
361 0.000332
362 0.000333
363 0.000331
364 0.000332
365 0.000333
366 0.000337
367 0.000340
368 0.000340
369 0.000340
370 0.000335
371 0.000333
372 0.000335
373 0.000336
374 0.000334
375 0.000332
376 0.000328
377 0.000324
378 0.000321
379 0.000318
380 0.000313
381 0.000311
382 0.000311
383 0.000315
384 0.000319
385 0.000321
386 0.000318
387 0.000314
388 0.000313
389 0.000310
390 0.000310
391 0.000306
392 0.000307
393 0.000303
394 0.000303
395 0.000301
396 0.000300
397 0.000292
398 0.000289
399 0.000284
400 0.000277
401 0.000276
402 0.000274
403 0.000277
404 0.000281
405 0.000286
406 0.000292
407 0.000301
408 0.000305
409 0.000308
410 0.000309
411 0.000306
412 0.000304
413 0.000303
414 0.000299
415 0.000297
416 0.000295
417 0.000293
418 0.000289
419 0.000285
420 0.000285
421 0.000284
422 0.000288
423 0.000290
424 0.000293
425 0.000298
426 0.000305
427 0.000313
428 0.000320
429 0.000326
430 0.000329
431 0.000328
432 0.000324
433 0.000315
434 0.000306
435 0.000296
436 0.000288
437 0.000284
438 0.000277
439 0.000275
440 0.000276
441 0.000280
442 0.000283
443 0.000282
444 0.000281
445 0.000280
446 0.000280
447 0.000282
448 0.000280
449 0.000281
450 0.000286
451 0.000293
452 0.000301
453 0.000304
454 0.000308
455 0.000307
456 0.000310
457 0.000312
458 0.000314
459 0.000315
460 0.000319
461 0.000325
462 0.000327
463 0.000327
464 0.000326
465 0.000322
466 0.000321
467 0.000315
468 0.000310
469 0.000306
470 0.000304
471 0.000300
472 0.000293
473 0.000288
474 0.000284
475 0.000282
476 0.000282
477 0.000285
478 0.000288
479 0.000288
480 0.000287
481 0.000286
482 0.000287
483 0.000286
484 0.000284
485 0.000279
486 0.000275
487 0.000269
488 0.000264
489 0.000261
490 0.000260
491 0.000260
492 0.000262
493 0.000261
494 0.000263
495 0.000264
496 0.000270
497 0.000271
498 0.000273
499 0.000273
500 0.000274
501 0.000271
502 0.000270
503 0.000270
504 0.000271
505 0.000272
506 0.000274
507 0.000273
508 0.000271
509 0.000268
510 0.000265
511 0.000265
512 0.000266
513 0.000263
514 0.000260
515 0.000258
516 0.000260
517 0.000261
518 0.000264
519 0.000264
520 0.000267
521 0.000270
522 0.000270
523 0.000269
524 0.000263
525 0.000256
526 0.000253
527 0.000248
528 0.000243
529 0.000241
530 0.000243
531 0.000242
532 0.000238
533 0.000234
534 0.000233
535 0.000233
536 0.000234
537 0.000233
538 0.000231
539 0.000231
540 0.000237
541 0.000239
542 0.000239
543 0.000238
544 0.000236
545 0.000231
546 0.000227
547 0.000219
548 0.000213
549 0.000210
550 0.000206
551 0.000200
552 0.000195
553 0.000193
554 0.000192
555 0.000188
556 0.000182
557 0.000176
558 0.000172
559 0.000165
560 0.000160
561 0.000152
562 0.000146
563 0.000140
564 0.000137
565 0.000134
566 0.000135
567 0.000135
568 0.000134
569 0.000136
570 0.000143
571 0.000143
572 0.000147
573 0.000151
574 0.000156
575 0.000162
576 0.000167
577 0.000169
578 0.000168
579 0.000168
580 0.000162
581 0.000159
582 0.000155
583 0.000152
584 0.000152
585 0.000154
586 0.000153
587 0.000155
588 0.000154
589 0.000156
590 0.000155
591 0.000160
592 0.000166
593 0.000167
594 0.000169
595 0.000170
596 0.000171
597 0.000171
598 0.000168
599 0.000159
600 0.000152
601 0.000149
602 0.000146
603 0.000140
604 0.000134
605 0.000127
606 0.000123
607 0.000118
608 0.000118
609 0.000116
610 0.000116
611 0.000116
612 0.000117
613 0.000113
614 0.000114
615 0.000114
616 0.000114
617 0.000114
618 0.000111
619 0.000110
620 0.000114
621 0.000115
622 0.000113
623 0.000113
624 0.000115
625 0.000112
626 0.000115
627 0.000117
628 0.000122
629 0.000124
630 0.000124
631 0.000117
632 0.000107
633 0.000097
634 0.000090
635 0.000083
636 0.000075
637 0.000069
638 0.000066
639 0.000064
640 0.000061
641 0.000056
642 0.000052
643 0.000048
644 0.000046
645 0.000045
646 0.000046
647 0.000048
648 0.000047
649 0.000051
650 0.000052
651 0.000055
652 0.000055
653 0.000054
654 0.000054
655 0.000051
656 0.000048
657 0.000048
658 0.000048
659 0.000049
660 0.000047
661 0.000048
662 0.000052
663 0.000054
664 0.000055
665 0.000057
666 0.000059
667 0.000056
668 0.000058
669 0.000060
670 0.000064
671 0.000068
672 0.000071
673 0.000073
674 0.000072
675 0.000068
676 0.000066
677 0.000064
678 0.000063
679 0.000062
680 0.000064
681 0.000069
682 0.000076
683 0.000080
684 0.000082
685 0.000080
686 0.000078
687 0.000077
688 0.000077
689 0.000077
690 0.000078
691 0.000079
692 0.000080
693 0.000077
694 0.000071
695 0.000069
696 0.000065
697 0.000061
698 0.000058
699 0.000050
700 0.000049
701 0.000047
702 0.000042
703 0.000040
704 0.000038
705 0.000035
706 0.000035
707 0.000033
708 0.000032
709 0.000030
710 0.000031
711 0.000031
712 0.000028
713 0.000022
714 0.000018
715 0.000017
716 0.000020
717 0.000021
718 0.000021
719 0.000025
720 0.000029
721 0.000030
722 0.000033
723 0.000037
724 0.000041
725 0.000042
726 0.000044
727 0.000042
728 0.000040
729 0.000040
730 0.000040
731 0.000038
732 0.000037
733 0.000034
734 0.000032
735 0.000032
736 0.000032
737 0.000033
738 0.000036
739 0.000037
740 0.000040
741 0.000043
742 0.000047
743 0.000050
744 0.000051
745 0.000050
746 0.000046
747 0.000042
748 0.000038
749 0.000031
750 0.000026
751 0.000023
752 0.000024
753 0.000022
754 0.000019
755 0.000017
756 0.000009
757 0.000005
758 -0.000001
759 -0.000004
760 -0.000004
761 -0.000004
762 -0.000004
763 -0.000006
764 -0.000009
765 -0.000015
766 -0.000021
767 -0.000029
768 -0.000034
769 -0.000039
770 -0.000044
771 -0.000045
772 -0.000045
773 -0.000045
774 -0.000044
775 -0.000045
776 -0.000044
777 -0.000043
778 -0.000041
779 -0.000040
780 -0.000039
781 -0.000040
782 -0.000039
783 -0.000037
784 -0.000031
785 -0.000029
786 -0.000024
787 -0.000022
788 -0.000021
789 -0.000019
790 -0.000015
791 -0.000012
792 -0.000008
793 -0.000004
794 0.000001
795 0.000004
796 0.000005
797 0.000007
798 0.000007
799 0.000004
800 -0.000002
801 -0.000008
802 -0.000014
803 -0.000018
804 -0.000021
805 -0.000023
806 -0.000023
807 -0.000027
808 -0.000032
809 -0.000037
