# i correlation
1 0.001580
2 0.001519
3 0.001463
4 0.001413
5 0.001375
6 0.001346
7 0.001324
8 0.001312
9 0.001303
10 0.001288
11 0.001266
12 0.001247
13 0.001226
14 0.001214
15 0.001203
16 0.001190
17 0.001183
18 0.001173
19 0.001170
20 0.001166
21 0.001160
22 0.001159
23 0.001158
24 0.001159
25 0.001157
26 0.001159
27 0.001158
28 0.001160
29 0.001162
30 0.001160
31 0.001154
32 0.001142
33 0.001131
34 0.001121
35 0.001112
36 0.001102
37 0.001091
38 0.001080
39 0.001069
40 0.001065
41 0.001063
42 0.001062
43 0.001062
44 0.001065
45 0.001067
46 0.001064
47 0.001057
48 0.001053
49 0.001047
50 0.001042
51 0.001036
52 0.001034
53 0.001030
54 0.001022
55 0.001018
56 0.001023
57 0.001032
58 0.001038
59 0.001043
60 0.001043
61 0.001038
62 0.001032
63 0.001020
64 0.001006
65 0.000987
66 0.000975
67 0.000964
68 0.000954
69 0.000943
70 0.000929
71 0.000916
72 0.000907
73 0.000899
74 0.000899
75 0.000898
76 0.000902
77 0.000905
78 0.000910
79 0.000910
80 0.000908
81 0.000905
82 0.000904
83 0.000904
84 0.000903
85 0.000899
86 0.000906
87 0.000910
88 0.000917
89 0.000921
90 0.000919
91 0.000917
92 0.000915
93 0.000913
94 0.000913
95 0.000907
96 0.000901
97 0.000899
98 0.000894
99 0.000882
100 0.000872
101 0.000867
102 0.000862
103 0.000865
104 0.000867
105 0.000873
106 0.000875
107 0.000878
108 0.000880
109 0.000880
110 0.000878
111 0.000875
112 0.000874
113 0.000874
114 0.000866
115 0.000858
116 0.000845
117 0.000834
118 0.000827
119 0.000823
120 0.000829
121 0.000833
122 0.000832
123 0.000829
124 0.000826
125 0.000817
126 0.000808
127 0.000795
128 0.000777
129 0.000764
130 0.000757
131 0.000751
132 0.000748
133 0.000743
134 0.000744
135 0.000750
136 0.000758
137 0.000764
138 0.000770
139 0.000773
140 0.000776
141 0.000779
142 0.000776
143 0.000769
144 0.000762
145 0.000758
146 0.000755
147 0.000751
148 0.000747
149 0.000746
150 0.000751
151 0.000751
152 0.000752
153 0.000754
154 0.000749
155 0.000740
156 0.000733
157 0.000727
158 0.000716
159 0.000703
160 0.000697
161 0.000692
162 0.000688
163 0.000687
164 0.000686
165 0.000692
166 0.000698
167 0.000702
168 0.000703
169 0.000702
170 0.000707
171 0.000711
172 0.000713
173 0.000710
174 0.000710
175 0.000712
176 0.000715
177 0.000715
178 0.000709
179 0.000704
180 0.000700
181 0.000695
182 0.000691
183 0.000689
184 0.000688
185 0.000689
186 0.000689
187 0.000689
188 0.000686
189 0.000683
190 0.000676
191 0.000668
192 0.000658
193 0.000649
194 0.000647
195 0.000649
196 0.000651
197 0.000652
198 0.000656
199 0.000658
200 0.000657
201 0.000658
202 0.000661
203 0.000659
204 0.000652
205 0.000644
206 0.000636
207 0.000630
208 0.000624
209 0.000618
210 0.000620
211 0.000617
212 0.000614
213 0.000608
214 0.000603
215 0.000600
216 0.000601
217 0.000599
218 0.000596
219 0.000592
220 0.000586
221 0.000578
222 0.000575
223 0.000571
224 0.000575
225 0.000581
226 0.000580
227 0.000581
228 0.000581
229 0.000583
230 0.000590
231 0.000590
232 0.000590
233 0.000589
234 0.000589
235 0.000581
236 0.000567
237 0.000555
238 0.000543
239 0.000541
240 0.000537
241 0.000534
242 0.000535
243 0.000538
244 0.000541
245 0.000545
246 0.000549
247 0.000554
248 0.000555
249 0.000554
250 0.000554
251 0.000554
252 0.000552
253 0.000548
254 0.000546
255 0.000543
256 0.000541
257 0.000532
258 0.000527
259 0.000524
260 0.000525
261 0.000530
262 0.000535
263 0.000535
264 0.000536
265 0.000540
266 0.000536
267 0.000533
268 0.000530
269 0.000527
270 0.000528
271 0.000529
272 0.000532
273 0.000534
274 0.000541
275 0.000550
276 0.000555
277 0.000562
278 0.000568
279 0.000571
280 0.000570
281 0.000567
282 0.000566
283 0.000564
284 0.000561
285 0.000554
286 0.000547
287 0.000545
288 0.000540
289 0.000535
290 0.000528
291 0.000527
292 0.000528
293 0.000526
294 0.000520
295 0.000512
296 0.000504
297 0.000496
298 0.000492
299 0.000490
300 0.000487
301 0.000488
302 0.000489
303 0.000489
304 0.000490
305 0.000487
306 0.000488
307 0.000491
308 0.000496
309 0.000500
310 0.000502
311 0.000507
312 0.000510
313 0.000510
314 0.000504
315 0.000498
316 0.000490
317 0.000485
318 0.000479
319 0.000472
320 0.000465
321 0.000463
322 0.000463
323 0.000466
324 0.000469
325 0.000468
326 0.000464
327 0.000460
328 0.000456
329 0.000447
330 0.000444
331 0.000441
332 0.000440
333 0.000443
334 0.000443
335 0.000444
336 0.000450
337 0.000457
338 0.000461
339 0.000461
340 0.000464
341 0.000464
342 0.000461
343 0.000461
344 0.000462
345 0.000461
346 0.000455
347 0.000450
348 0.000446
349 0.000443
350 0.000439
351 0.000435
352 0.000438
353 0.000442
354 0.000445
355 0.000451
356 0.000447
357 0.000442
358 0.000435
359 0.000431
360 0.000427
361 0.000428
362 0.000427
363 0.000429
364 0.000429
365 0.000432
366 0.000434
367 0.000440
368 0.000443
369 0.000448
370 0.000451
371 0.000453
372 0.000455
373 0.000454
374 0.000449
375 0.000444
376 0.000439
377 0.000435
378 0.000429
379 0.000419
380 0.000412
381 0.000408
382 0.000409
383 0.000408
384 0.000406
385 0.000408
386 0.000409
387 0.000412
388 0.000411
389 0.000406
390 0.000406
391 0.000406
392 0.000408
393 0.000406
394 0.000399
395 0.000394
396 0.000393
397 0.000393
398 0.000387
399 0.000381
400 0.000380
401 0.000382
402 0.000386
403 0.000383
404 0.000380
405 0.000379
406 0.000376
407 0.000368
408 0.000355
409 0.000346
410 0.000336
411 0.000332
412 0.000333
413 0.000335
414 0.000340
415 0.000345
416 0.000348
417 0.000348
418 0.000348
419 0.000351
420 0.000348
421 0.000346
422 0.000344
423 0.000338
424 0.000335
425 0.000331
426 0.000333
427 0.000335
428 0.000341
429 0.000343
430 0.000343
431 0.000343
432 0.000345
433 0.000349
434 0.000348
435 0.000349
436 0.000351
437 0.000350
438 0.000347
439 0.000337
440 0.000327
441 0.000324
442 0.000323
443 0.000324
444 0.000327
445 0.000332
446 0.000337
447 0.000339
448 0.000339
449 0.000344
450 0.000351
451 0.000352
452 0.000356
453 0.000360
454 0.000362
455 0.000363
456 0.000360
457 0.000358
458 0.000358
459 0.000357
460 0.000355
461 0.000351
462 0.000348
463 0.000344
464 0.000346
465 0.000344
466 0.000342
467 0.000338
468 0.000337
469 0.000332
470 0.000326
471 0.000319
472 0.000315
473 0.000312
474 0.000315
475 0.000322
476 0.000325
477 0.000330
478 0.000334
479 0.000337
480 0.000340
481 0.000339
482 0.000335
483 0.000332
484 0.000331
485 0.000328
486 0.000324
487 0.000319
488 0.000315
489 0.000313
490 0.000316
491 0.000320
492 0.000325
493 0.000332
494 0.000342
495 0.000351
496 0.000357
497 0.000362
498 0.000365
499 0.000364
500 0.000362
501 0.000356
502 0.000350
503 0.000347
504 0.000345
505 0.000345
506 0.000344
507 0.000346
508 0.000348
509 0.000351
510 0.000349
511 0.000344
512 0.000338
513 0.000330
514 0.000324
515 0.000319
516 0.000315
517 0.000313
518 0.000311
519 0.000309
520 0.000307
521 0.000305
522 0.000307
523 0.000306
524 0.000308
525 0.000311
526 0.000315
527 0.000324
528 0.000332
529 0.000337
530 0.000338
531 0.000333
532 0.000330
533 0.000329
534 0.000329
535 0.000329
536 0.000335
537 0.000339
538 0.000345
539 0.000351
540 0.000352
541 0.000354
542 0.000354
543 0.000354
544 0.000352
545 0.000348
546 0.000346
547 0.000343
548 0.000341
549 0.000336
550 0.000331
551 0.000329
552 0.000330
553 0.000334
554 0.000338
555 0.000340
556 0.000343
557 0.000345
558 0.000348
559 0.000349
560 0.000346
561 0.000341
562 0.000339
563 0.000340
564 0.000337
565 0.000335
566 0.000333
567 0.000337
568 0.000339
569 0.000339
570 0.000335
571 0.000330
572 0.000325
573 0.000321
574 0.000315
575 0.000310
576 0.000303
577 0.000298
578 0.000292
579 0.000291
580 0.000292
581 0.000290
582 0.000293
583 0.000293
584 0.000291
585 0.000293
586 0.000295
587 0.000300
588 0.000308
589 0.000320
590 0.000329
591 0.000337
592 0.000344
593 0.000350
594 0.000352
595 0.000355
596 0.000357
597 0.000356
598 0.000359
599 0.000360
600 0.000355
601 0.000346
602 0.000338
603 0.000329
604 0.000322
605 0.000313
606 0.000308
607 0.000304
608 0.000300
609 0.000294
610 0.000289
611 0.000281
612 0.000272
613 0.000265
614 0.000257
615 0.000257
616 0.000260
617 0.000263
618 0.000265
619 0.000267
620 0.000270
621 0.000273
622 0.000277
623 0.000278
624 0.000279
625 0.000280
626 0.000275
627 0.000272
628 0.000266
629 0.000262
630 0.000260
631 0.000259
632 0.000261
633 0.000262
634 0.000261
635 0.000262
636 0.000262
637 0.000260
638 0.000257
639 0.000256
640 0.000255
641 0.000254
642 0.000250
643 0.000246
644 0.000249
645 0.000254
646 0.000260
647 0.000265
648 0.000271
649 0.000279
650 0.000285
651 0.000292
652 0.000299
653 0.000302
654 0.000301
655 0.000301
656 0.000299
657 0.000299
658 0.000297
659 0.000295
660 0.000296
661 0.000297
662 0.000297
663 0.000293
664 0.000285
665 0.000278
666 0.000273
667 0.000267
668 0.000263
669 0.000259
670 0.000255
671 0.000252
672 0.000246
673 0.000242
674 0.000243
675 0.000245
676 0.000246
677 0.000246
678 0.000245
679 0.000247
680 0.000253
681 0.000257
682 0.000260
683 0.000262
684 0.000264
685 0.000263
686 0.000263
687 0.000257
688 0.000252
689 0.000247
690 0.000241
691 0.000234
692 0.000227
693 0.000225
694 0.000226
695 0.000227
696 0.000228
697 0.000228
698 0.000226
699 0.000224
700 0.000219
701 0.000215
702 0.000213
703 0.000215
704 0.000220
705 0.000229
706 0.000236
707 0.000240
708 0.000245
709 0.000246
710 0.000244
711 0.000240
712 0.000234
713 0.000229
714 0.000228
715 0.000229
716 0.000228
717 0.000225
718 0.000221
719 0.000218
720 0.000213
721 0.000207
722 0.000200
723 0.000194
724 0.000188
725 0.000186
726 0.000183
727 0.000182
728 0.000182
729 0.000183
730 0.000183
731 0.000184
732 0.000184
733 0.000180
734 0.000177
735 0.000174
736 0.000168
737 0.000164
738 0.000160
739 0.000157
740 0.000155
741 0.000152
742 0.000151
743 0.000153
744 0.000152
745 0.000153
746 0.000152
747 0.000150
748 0.000145
749 0.000138
750 0.000132
751 0.000123
752 0.000119
753 0.000114
754 0.000111
755 0.000107
756 0.000103
757 0.000099
758 0.000093
759 0.000091
760 0.000090
761 0.000090
762 0.000090
763 0.000089
764 0.000088
765 0.000086
766 0.000086
767 0.000083
768 0.000083
769 0.000085
770 0.000088
771 0.000091
772 0.000096
773 0.000102
774 0.000107
775 0.000109
776 0.000110
777 0.000108
778 0.000109
779 0.000108
780 0.000106
781 0.000105
782 0.000104
783 0.000104
784 0.000101
785 0.000100
786 0.000095
787 0.000092
788 0.000090
789 0.000089
790 0.000090
791 0.000092
792 0.000093
793 0.000094
794 0.000094
795 0.000094
796 0.000089
797 0.000086
798 0.000086
799 0.000088
800 0.000088
801 0.000090
802 0.000091
803 0.000089
804 0.000086
805 0.000083
806 0.000081
807 0.000077
808 0.000072
809 0.000070
