# i correlation
1 0.001498
2 0.001451
3 0.001405
4 0.001363
5 0.001327
6 0.001290
7 0.001259
8 0.001237
9 0.001224
10 0.001212
11 0.001202
12 0.001190
13 0.001176
14 0.001167
15 0.001163
16 0.001162
17 0.001157
18 0.001155
19 0.001151
20 0.001143
21 0.001134
22 0.001127
23 0.001122
24 0.001114
25 0.001106
26 0.001101
27 0.001095
28 0.001091
29 0.001081
30 0.001074
31 0.001064
32 0.001046
33 0.001025
34 0.001001
35 0.000977
36 0.000952
37 0.000932
38 0.000919
39 0.000905
40 0.000898
41 0.000899
42 0.000901
43 0.000903
44 0.000907
45 0.000905
46 0.000898
47 0.000890
48 0.000877
49 0.000865
50 0.000851
51 0.000835
52 0.000819
53 0.000809
54 0.000802
55 0.000795
56 0.000791
57 0.000790
58 0.000794
59 0.000793
60 0.000794
61 0.000795
62 0.000794
63 0.000789
64 0.000781
65 0.000771
66 0.000762
67 0.000760
68 0.000758
69 0.000761
70 0.000758
71 0.000759
72 0.000759
73 0.000757
74 0.000759
75 0.000761
76 0.000764
77 0.000768
78 0.000765
79 0.000760
80 0.000755
81 0.000747
82 0.000735
83 0.000727
84 0.000714
85 0.000709
86 0.000704
87 0.000699
88 0.000699
89 0.000697
90 0.000697
91 0.000698
92 0.000700
93 0.000702
94 0.000703
95 0.000702
96 0.000698
97 0.000695
98 0.000688
99 0.000686
100 0.000682
101 0.000676
102 0.000677
103 0.000679
104 0.000685
105 0.000691
106 0.000695
107 0.000699
108 0.000701
109 0.000705
110 0.000702
111 0.000700
112 0.000692
113 0.000684
114 0.000679
115 0.000671
116 0.000664
117 0.000659
118 0.000656
119 0.000658
120 0.000660
121 0.000670
122 0.000672
123 0.000673
124 0.000670
125 0.000666
126 0.000657
127 0.000651
128 0.000644
129 0.000638
130 0.000635
131 0.000629
132 0.000630
133 0.000629
134 0.000624
135 0.000619
136 0.000616
137 0.000616
138 0.000618
139 0.000623
140 0.000628
141 0.000633
142 0.000633
143 0.000630
144 0.000625
145 0.000621
146 0.000614
147 0.000609
148 0.000604
149 0.000602
150 0.000600
151 0.000596
152 0.000602
153 0.000600
154 0.000596
155 0.000589
156 0.000578
157 0.000570
158 0.000560
159 0.000551
160 0.000541
161 0.000533
162 0.000524
163 0.000523
164 0.000527
165 0.000531
166 0.000533
167 0.000536
168 0.000541
169 0.000544
170 0.000548
171 0.000542
172 0.000537
173 0.000530
174 0.000526
175 0.000525
176 0.000519
177 0.000509
178 0.000501
179 0.000497
180 0.000493
181 0.000492
182 0.000489
183 0.000490
184 0.000490
185 0.000496
186 0.000499
187 0.000500
188 0.000503
189 0.000505
190 0.000511
191 0.000514
192 0.000518
193 0.000515
194 0.000521
195 0.000523
196 0.000531
197 0.000535
198 0.000540
199 0.000542
200 0.000539
201 0.000539
202 0.000533
203 0.000522
204 0.000512
205 0.000501
206 0.000489
207 0.000481
208 0.000477
209 0.000472
210 0.000473
211 0.000471
212 0.000474
213 0.000478
214 0.000482
215 0.000484
216 0.000488
217 0.000492
218 0.000495
219 0.000499
220 0.000507
221 0.000511
222 0.000513
223 0.000516
224 0.000516
225 0.000515
226 0.000517
227 0.000517
228 0.000518
229 0.000516
230 0.000511
231 0.000509
232 0.000509
233 0.000504
234 0.000498
235 0.000493
236 0.000487
237 0.000477
238 0.000467
239 0.000460
240 0.000450
241 0.000439
242 0.000433
243 0.000428
244 0.000425
245 0.000422
246 0.000425
247 0.000429
248 0.000432
249 0.000434
250 0.000436
251 0.000440
252 0.000448
253 0.000450
254 0.000451
255 0.000450
256 0.000450
257 0.000450
258 0.000450
259 0.000449
260 0.000442
261 0.000434
262 0.000428
263 0.000421
264 0.000419
265 0.000415
266 0.000415
267 0.000415
268 0.000410
269 0.000405
270 0.000403
271 0.000394
272 0.000388
273 0.000388
274 0.000389
275 0.000393
276 0.000394
277 0.000398
278 0.000400
279 0.000396
280 0.000389
281 0.000383
282 0.000379
283 0.000371
284 0.000361
285 0.000354
286 0.000344
287 0.000336
288 0.000327
289 0.000326
290 0.000325
291 0.000327
292 0.000330
293 0.000339
294 0.000346
295 0.000350
296 0.000358
297 0.000363
298 0.000367
299 0.000366
300 0.000365
301 0.000365
302 0.000362
303 0.000360
304 0.000352
305 0.000352
306 0.000355
307 0.000359
308 0.000365
309 0.000371
310 0.000374
311 0.000376
312 0.000375
313 0.000380
314 0.000381
315 0.000380
316 0.000377
317 0.000374
318 0.000369
319 0.000368
320 0.000368
321 0.000365
322 0.000364
323 0.000364
324 0.000367
325 0.000368
326 0.000371
327 0.000374
328 0.000376
329 0.000376
330 0.000372
331 0.000375
332 0.000375
333 0.000375
334 0.000377
335 0.000378
336 0.000381
337 0.000385
338 0.000389
339 0.000391
340 0.000393
341 0.000395
342 0.000396
343 0.000397
344 0.000397
345 0.000396
346 0.000395
347 0.000390
348 0.000380
349 0.000369
350 0.000361
351 0.000355
352 0.000348
353 0.000344
354 0.000343
355 0.000342
356 0.000340
357 0.000333
358 0.000327
359 0.000322
360 0.000321
361 0.000319
362 0.000319
363 0.000317
364 0.000319
365 0.000320
366 0.000321
367 0.000321
368 0.000317
369 0.000316
370 0.000321
371 0.000324
372 0.000324
373 0.000326
374 0.000328
375 0.000330
376 0.000329
377 0.000328
378 0.000326
379 0.000322
380 0.000318
381 0.000313
382 0.000308
383 0.000300
384 0.000295
385 0.000292
386 0.000292
387 0.000290
388 0.000291
389 0.000292
390 0.000292
391 0.000292
392 0.000292
393 0.000292
394 0.000293
395 0.000291
396 0.000293
397 0.000290
398 0.000291
399 0.000291
400 0.000287
401 0.000282
402 0.000276
403 0.000272
404 0.000272
405 0.000272
406 0.000268
407 0.000265
408 0.000266
409 0.000266
410 0.000264
411 0.000263
412 0.000262
413 0.000258
414 0.000255
415 0.000253
416 0.000254
417 0.000257
418 0.000257
419 0.000256
420 0.000255
421 0.000259
422 0.000267
423 0.000274
424 0.000278
425 0.000282
426 0.000281
427 0.000283
428 0.000280
429 0.000275
430 0.000271
431 0.000266
432 0.000264
433 0.000262
434 0.000261
435 0.000260
436 0.000258
437 0.000257
438 0.000254
439 0.000252
440 0.000251
441 0.000253
442 0.000252
443 0.000253
444 0.000250
445 0.000254
446 0.000257
447 0.000262
448 0.000266
449 0.000271
450 0.000276
451 0.000280
452 0.000284
453 0.000290
454 0.000291
455 0.000291
456 0.000291
457 0.000287
458 0.000286
459 0.000285
460 0.000283
461 0.000277
462 0.000271
463 0.000266
464 0.000263
465 0.000263
466 0.000265
467 0.000267
468 0.000268
469 0.000264
470 0.000260
471 0.000257
472 0.000253
473 0.000250
474 0.000249
475 0.000253
476 0.000257
477 0.000259
478 0.000262
479 0.000268
480 0.000270
481 0.000271
482 0.000268
483 0.000266
484 0.000268
485 0.000268
486 0.000270
487 0.000271
488 0.000272
489 0.000270
490 0.000273
491 0.000271
492 0.000267
493 0.000264
494 0.000264
495 0.000268
496 0.000271
497 0.000274
498 0.000280
499 0.000286
500 0.000286
501 0.000285
502 0.000284
503 0.000283
504 0.000283
505 0.000283
506 0.000281
507 0.000279
508 0.000280
509 0.000283
510 0.000284
511 0.000283
512 0.000281
513 0.000278
514 0.000278
515 0.000276
516 0.000272
517 0.000268
518 0.000267
519 0.000267
520 0.000268
521 0.000271
522 0.000274
523 0.000278
524 0.000277
525 0.000278
526 0.000279
527 0.000280
528 0.000281
529 0.000284
530 0.000287
531 0.000290
532 0.000291
533 0.000292
534 0.000292
535 0.000287
536 0.000282
537 0.000279
538 0.000273
539 0.000267
540 0.000259
541 0.000253
542 0.000246
543 0.000238
544 0.000232
545 0.000226
546 0.000224
547 0.000218
548 0.000216
549 0.000213
550 0.000210
551 0.000208
552 0.000205
553 0.000208
554 0.000207
555 0.000204
556 0.000204
557 0.000202
558 0.000201
559 0.000201
560 0.000201
561 0.000201
562 0.000206
563 0.000208
564 0.000210
565 0.000211
566 0.000213
567 0.000216
568 0.000221
569 0.000226
570 0.000228
571 0.000230
572 0.000234
573 0.000238
574 0.000240
575 0.000239
576 0.000235
577 0.000229
578 0.000227
579 0.000223
580 0.000220
581 0.000218
582 0.000217
583 0.000219
584 0.000221
585 0.000221
586 0.000222
587 0.000224
588 0.000225
589 0.000226
590 0.000228
591 0.000231
592 0.000237
593 0.000241
594 0.000246
595 0.000249
596 0.000252
597 0.000255
598 0.000256
599 0.000257
600 0.000259
601 0.000260
602 0.000263
603 0.000262
604 0.000261
605 0.000258
606 0.000261
607 0.000259
608 0.000259
609 0.000258
610 0.000255
611 0.000254
612 0.000252
613 0.000252
614 0.000250
615 0.000245
616 0.000243
617 0.000242
618 0.000238
619 0.000232
620 0.000232
621 0.000231
622 0.000230
623 0.000228
624 0.000224
625 0.000219
626 0.000216
627 0.000212
628 0.000209
629 0.000210
630 0.000212
631 0.000215
632 0.000219
633 0.000221
634 0.000221
635 0.000219
636 0.000215
637 0.000211
638 0.000206
639 0.000202
640 0.000198
641 0.000196
642 0.000192
643 0.000189
644 0.000186
645 0.000183
646 0.000178
647 0.000174
648 0.000173
649 0.000170
650 0.000170
651 0.000169
652 0.000168
653 0.000166
654 0.000162
655 0.000161
656 0.000162
657 0.000162
658 0.000164
659 0.000163
660 0.000164
661 0.000164
662 0.000166
663 0.000168
664 0.000166
665 0.000165
666 0.000162
667 0.000157
668 0.000152
669 0.000146
670 0.000139
671 0.000132
672 0.000127
673 0.000123
674 0.000121
675 0.000121
676 0.000120
677 0.000120
678 0.000121
679 0.000123
680 0.000123
681 0.000122
682 0.000122
683 0.000123
684 0.000122
685 0.000120
686 0.000118
687 0.000117
688 0.000116
689 0.000118
690 0.000116
691 0.000120
692 0.000122
693 0.000122
694 0.000124
695 0.000123
696 0.000118
697 0.000112
698 0.000108
699 0.000105
700 0.000106
701 0.000108
702 0.000112
703 0.000116
704 0.000119
705 0.000123
706 0.000128
707 0.000134
708 0.000138
709 0.000139
710 0.000140
711 0.000140
712 0.000139
713 0.000136
714 0.000136
715 0.000135
716 0.000135
717 0.000136
718 0.000139
719 0.000144
720 0.000147
721 0.000148
722 0.000148
723 0.000153
724 0.000157
725 0.000161
726 0.000165
727 0.000166
728 0.000168
729 0.000167
730 0.000168
731 0.000169
732 0.000172
733 0.000177
734 0.000179
735 0.000181
736 0.000186
737 0.000191
738 0.000194
739 0.000191
740 0.000186
741 0.000182
742 0.000178
743 0.000175
744 0.000171
745 0.000167
746 0.000164
747 0.000162
748 0.000163
749 0.000165
750 0.000168
751 0.000171
752 0.000174
753 0.000177
754 0.000183
755 0.000186
756 0.000190
757 0.000189
758 0.000190
759 0.000189
760 0.000189
761 0.000189
762 0.000188
763 0.000189
764 0.000190
765 0.000190
766 0.000188
767 0.000184
768 0.000179
769 0.000178
770 0.000176
771 0.000172
772 0.000169
773 0.000167
774 0.000163
775 0.000158
776 0.000153
777 0.000149
778 0.000144
779 0.000141
780 0.000138
781 0.000138
782 0.000140
783 0.000141
784 0.000141
785 0.000140
786 0.000139
787 0.000137
788 0.000136
789 0.000132
790 0.000127
791 0.000124
792 0.000124
793 0.000122
794 0.000119
795 0.000116
796 0.000116
797 0.000117
798 0.000119
799 0.000120
800 0.000122
801 0.000124
802 0.000125
803 0.000124
804 0.000123
805 0.000121
806 0.000117
807 0.000117
808 0.000115
809 0.000112
