# i correlation
1 0.002147
2 0.002096
3 0.002051
4 0.002010
5 0.001974
6 0.001949
7 0.001929
8 0.001907
9 0.001884
10 0.001860
11 0.001839
12 0.001823
13 0.001812
14 0.001800
15 0.001791
16 0.001783
17 0.001774
18 0.001769
19 0.001760
20 0.001746
21 0.001736
22 0.001722
23 0.001711
24 0.001704
25 0.001704
26 0.001704
27 0.001711
28 0.001708
29 0.001704
30 0.001702
31 0.001692
32 0.001682
33 0.001675
34 0.001670
35 0.001661
36 0.001657
37 0.001647
38 0.001637
39 0.001624
40 0.001619
41 0.001615
42 0.001609
43 0.001598
44 0.001585
45 0.001573
46 0.001559
47 0.001550
48 0.001539
49 0.001531
50 0.001522
51 0.001512
52 0.001502
53 0.001488
54 0.001478
55 0.001469
56 0.001463
57 0.001460
58 0.001458
59 0.001452
60 0.001445
61 0.001441
62 0.001435
63 0.001428
64 0.001423
65 0.001423
66 0.001420
67 0.001413
68 0.001409
69 0.001402
70 0.001395
71 0.001385
72 0.001381
73 0.001375
74 0.001375
75 0.001377
76 0.001376
77 0.001373
78 0.001366
79 0.001361
80 0.001357
81 0.001345
82 0.001335
83 0.001328
84 0.001318
85 0.001311
86 0.001306
87 0.001302
88 0.001293
89 0.001281
90 0.001274
91 0.001266
92 0.001259
93 0.001252
94 0.001244
95 0.001237
96 0.001227
97 0.001218
98 0.001205
99 0.001194
100 0.001188
101 0.001182
102 0.001179
103 0.001174
104 0.001173
105 0.001172
106 0.001175
107 0.001179
108 0.001180
109 0.001185
110 0.001189
111 0.001193
112 0.001192
113 0.001199
114 0.001202
115 0.001201
116 0.001195
117 0.001192
118 0.001188
119 0.001178
120 0.001167
121 0.001163
122 0.001160
123 0.001156
124 0.001152
125 0.001147
126 0.001144
127 0.001140
128 0.001133
129 0.001128
130 0.001118
131 0.001105
132 0.001095
133 0.001083
134 0.001074
135 0.001060
136 0.001051
137 0.001044
138 0.001040
139 0.001033
140 0.001027
141 0.001021
142 0.001020
143 0.001015
144 0.001013
145 0.001010
146 0.001006
147 0.001002
148 0.000997
149 0.000992
150 0.000985
151 0.000976
152 0.000972
153 0.000967
154 0.000968
155 0.000971
156 0.000967
157 0.000963
158 0.000961
159 0.000960
160 0.000962
161 0.000963
162 0.000969
163 0.000968
164 0.000960
165 0.000953
166 0.000944
167 0.000939
168 0.000934
169 0.000924
170 0.000921
171 0.000917
172 0.000913
173 0.000909
174 0.000904
175 0.000900
176 0.000899
177 0.000896
178 0.000894
179 0.000896
180 0.000903
181 0.000906
182 0.000909
183 0.000910
184 0.000910
185 0.000914
186 0.000914
187 0.000917
188 0.000921
189 0.000923
190 0.000923
191 0.000925
192 0.000919
193 0.000910
194 0.000901
195 0.000892
196 0.000885
197 0.000885
198 0.000884
199 0.000879
200 0.000877
201 0.000875
202 0.000872
203 0.000869
204 0.000870
205 0.000871
206 0.000872
207 0.000872
208 0.000870
209 0.000867
210 0.000858
211 0.000848
212 0.000832
213 0.000823
214 0.000814
215 0.000804
216 0.000794
217 0.000786
218 0.000781
219 0.000776
220 0.000776
221 0.000775
222 0.000782
223 0.000786
224 0.000795
225 0.000804
226 0.000806
227 0.000809
228 0.000816
229 0.000821
230 0.000822
231 0.000818
232 0.000817
233 0.000814
234 0.000811
235 0.000810
236 0.000810
237 0.000814
238 0.000814
239 0.000813
240 0.000814
241 0.000814
242 0.000807
243 0.000806
244 0.000810
245 0.000812
246 0.000810
247 0.000809
248 0.000802
249 0.000802
250 0.000801
251 0.000802
252 0.000804
253 0.000808
254 0.000807
255 0.000812
256 0.000818
257 0.000823
258 0.000821
259 0.000820
260 0.000815
261 0.000807
262 0.000805
263 0.000808
264 0.000813
265 0.000819
266 0.000822
267 0.000821
268 0.000816
269 0.000810
270 0.000802
271 0.000801
272 0.000803
273 0.000805
274 0.000807
275 0.000808
276 0.000809
277 0.000810
278 0.000810
279 0.000808
280 0.000807
281 0.000802
282 0.000793
283 0.000790
284 0.000789
285 0.000787
286 0.000782
287 0.000773
288 0.000763
289 0.000755
290 0.000746
291 0.000739
292 0.000737
293 0.000730
294 0.000725
295 0.000716
296 0.000710
297 0.000702
298 0.000701
299 0.000700
300 0.000698
301 0.000697
302 0.000696
303 0.000691
304 0.000686
305 0.000684
306 0.000681
307 0.000682
308 0.000682
309 0.000685
310 0.000687
311 0.000689
312 0.000684
313 0.000676
314 0.000672
315 0.000669
316 0.000663
317 0.000655
318 0.000645
319 0.000638
320 0.000632
321 0.000630
322 0.000624
323 0.000617
324 0.000611
325 0.000606
326 0.000600
327 0.000596
328 0.000593
329 0.000586
330 0.000583
331 0.000575
332 0.000570
333 0.000563
334 0.000562
335 0.000563
336 0.000564
337 0.000566
338 0.000569
339 0.000570
340 0.000568
341 0.000573
342 0.000576
343 0.000582
344 0.000583
345 0.000586
346 0.000588
347 0.000589
348 0.000586
349 0.000579
350 0.000576
351 0.000576
352 0.000582
353 0.000589
354 0.000591
355 0.000590
356 0.000591
357 0.000590
358 0.000587
359 0.000587
360 0.000586
361 0.000586
362 0.000583
363 0.000583
364 0.000582
365 0.000578
366 0.000577
367 0.000572
368 0.000572
369 0.000573
370 0.000574
371 0.000579
372 0.000582
373 0.000583
374 0.000583
375 0.000583
376 0.000582
377 0.000585
378 0.000585
379 0.000586
380 0.000586
381 0.000583
382 0.000583
383 0.000579
384 0.000574
385 0.000574
386 0.000579
387 0.000586
388 0.000594
389 0.000602
390 0.000606
391 0.000605
392 0.000601
393 0.000602
394 0.000602
395 0.000604
396 0.000606
397 0.000600
398 0.000594
399 0.000586
400 0.000580
401 0.000575
402 0.000571
403 0.000565
404 0.000557
405 0.000546
406 0.000542
407 0.000539
408 0.000535
409 0.000534
410 0.000530
411 0.000527
412 0.000525
413 0.000524
414 0.000524
415 0.000528
416 0.000532
417 0.000539
418 0.000542
419 0.000544
420 0.000543
421 0.000543
422 0.000544
423 0.000543
424 0.000538
425 0.000534
426 0.000530
427 0.000526
428 0.000520
429 0.000513
430 0.000508
431 0.000501
432 0.000500
433 0.000499
434 0.000496
435 0.000495
436 0.000499
437 0.000501
438 0.000504
439 0.000505
440 0.000503
441 0.000497
442 0.000492
443 0.000491
444 0.000489
445 0.000490
446 0.000491
447 0.000488
448 0.000487
449 0.000482
450 0.000475
451 0.000471
452 0.000470
453 0.000473
454 0.000484
455 0.000489
456 0.000492
457 0.000495
458 0.000496
459 0.000493
460 0.000491
461 0.000489
462 0.000488
463 0.000487
464 0.000491
465 0.000493
466 0.000496
467 0.000493
468 0.000493
469 0.000492
470 0.000494
471 0.000496
472 0.000500
473 0.000509
474 0.000514
475 0.000517
476 0.000516
477 0.000514
478 0.000507
479 0.000499
480 0.000489
481 0.000483
482 0.000478
483 0.000476
484 0.000475
485 0.000477
486 0.000477
487 0.000476
488 0.000475
489 0.000474
490 0.000476
491 0.000475
492 0.000471
493 0.000467
494 0.000463
495 0.000455
496 0.000448
497 0.000441
498 0.000436
499 0.000428
500 0.000428
501 0.000429
502 0.000434
503 0.000436
504 0.000438
505 0.000435
506 0.000432
507 0.000430
508 0.000427
509 0.000424
510 0.000421
511 0.000418
512 0.000414
513 0.000415
514 0.000416
515 0.000423
516 0.000424
517 0.000421
518 0.000415
519 0.000409
520 0.000404
521 0.000397
522 0.000387
523 0.000384
524 0.000380
525 0.000377
526 0.000376
527 0.000372
528 0.000372
529 0.000376
530 0.000381
531 0.000385
532 0.000393
533 0.000400
534 0.000406
535 0.000406
536 0.000410
537 0.000409
538 0.000405
539 0.000401
540 0.000399
541 0.000399
542 0.000399
543 0.000403
544 0.000407
545 0.000411
546 0.000411
547 0.000407
548 0.000403
549 0.000401
550 0.000401
551 0.000404
552 0.000408
553 0.000410
554 0.000406
555 0.000401
556 0.000398
557 0.000393
558 0.000389
559 0.000385
560 0.000387
561 0.000386
562 0.000382
563 0.000380
564 0.000377
565 0.000373
566 0.000371
567 0.000367
568 0.000359
569 0.000349
570 0.000344
571 0.000340
572 0.000336
573 0.000330
574 0.000326
575 0.000320
576 0.000316
577 0.000316
578 0.000319
579 0.000321
580 0.000322
581 0.000324
582 0.000326
583 0.000326
584 0.000325
585 0.000324
586 0.000320
587 0.000319
588 0.000321
589 0.000316
590 0.000311
591 0.000308
592 0.000303
593 0.000303
594 0.000303
595 0.000304
596 0.000302
597 0.000301
598 0.000301
599 0.000299
600 0.000300
601 0.000300
602 0.000298
603 0.000295
604 0.000291
605 0.000284
606 0.000278
607 0.000270
608 0.000264
609 0.000257
610 0.000253
611 0.000247
612 0.000245
613 0.000243
614 0.000238
615 0.000237
616 0.000237
617 0.000237
618 0.000240
619 0.000244
620 0.000246
621 0.000249
622 0.000252
623 0.000251
624 0.000249
625 0.000249
626 0.000249
627 0.000247
628 0.000249
629 0.000247
630 0.000246
631 0.000240
632 0.000235
633 0.000230
634 0.000222
635 0.000215
636 0.000209
637 0.000204
638 0.000197
639 0.000196
640 0.000198
641 0.000197
642 0.000196
643 0.000196
644 0.000196
645 0.000197
646 0.000203
647 0.000211
648 0.000215
649 0.000219
650 0.000220
651 0.000215
652 0.000214
653 0.000221
654 0.000223
655 0.000228
656 0.000230
657 0.000232
658 0.000233
659 0.000232
660 0.000232
661 0.000232
662 0.000235
663 0.000239
664 0.000239
665 0.000239
666 0.000239
667 0.000239
668 0.000241
669 0.000240
670 0.000242
671 0.000243
672 0.000239
673 0.000238
674 0.000240
675 0.000241
676 0.000241
677 0.000241
678 0.000243
679 0.000243
680 0.000244
681 0.000245
682 0.000247
683 0.000245
684 0.000243
685 0.000238
686 0.000232
687 0.000229
688 0.000225
689 0.000221
690 0.000217
691 0.000214
692 0.000212
693 0.000212
694 0.000211
695 0.000212
696 0.000212
697 0.000210
698 0.000212
699 0.000212
700 0.000213
701 0.000216
702 0.000217
703 0.000217
704 0.000216
705 0.000217
706 0.000213
707 0.000214
708 0.000212
709 0.000208
710 0.000206
711 0.000209
712 0.000212
713 0.000214
714 0.000214
715 0.000212
716 0.000210
717 0.000209
718 0.000208
719 0.000209
720 0.000212
721 0.000213
722 0.000216
723 0.000217
724 0.000213
725 0.000209
726 0.000207
727 0.000203
728 0.000200
729 0.000199
730 0.000201
731 0.000203
732 0.000204
733 0.000205
734 0.000208
735 0.000209
736 0.000205
737 0.000205
738 0.000206
739 0.000209
740 0.000213
741 0.000218
742 0.000221
743 0.000226
744 0.000230
745 0.000231
746 0.000230
747 0.000231
748 0.000234
749 0.000231
750 0.000229
751 0.000226
752 0.000223
753 0.000221
754 0.000221
755 0.000220
756 0.000218
757 0.000217
758 0.000217
759 0.000214
760 0.000213
761 0.000211
762 0.000209
763 0.000206
764 0.000202
765 0.000198
766 0.000192
767 0.000189
768 0.000186
769 0.000183
770 0.000185
771 0.000186
772 0.000184
773 0.000186
774 0.000186
775 0.000187
776 0.000184
777 0.000180
778 0.000178
779 0.000175
780 0.000174
781 0.000177
782 0.000181
783 0.000183
784 0.000185
785 0.000189
786 0.000193
787 0.000196
788 0.000201
789 0.000209
790 0.000214
791 0.000217
792 0.000221
793 0.000220
794 0.000220
795 0.000223
796 0.000225
797 0.000226
798 0.000226
799 0.000227
800 0.000229
801 0.000230
802 0.000229
803 0.000229
804 0.000227
805 0.000225
806 0.000219
807 0.000217
808 0.000213
809 0.000211
