# i correlation
1 0.001513
2 0.001465
3 0.001425
4 0.001398
5 0.001370
6 0.001349
7 0.001329
8 0.001313
9 0.001294
10 0.001278
11 0.001263
12 0.001248
13 0.001233
14 0.001225
15 0.001219
16 0.001210
17 0.001198
18 0.001183
19 0.001168
20 0.001158
21 0.001152
22 0.001146
23 0.001142
24 0.001134
25 0.001133
26 0.001133
27 0.001135
28 0.001131
29 0.001125
30 0.001117
31 0.001110
32 0.001102
33 0.001100
34 0.001100
35 0.001100
36 0.001104
37 0.001107
38 0.001106
39 0.001103
40 0.001098
41 0.001095
42 0.001089
43 0.001081
44 0.001072
45 0.001062
46 0.001053
47 0.001038
48 0.001027
49 0.001022
50 0.001016
51 0.001016
52 0.001014
53 0.001011
54 0.001004
55 0.000994
56 0.000991
57 0.000985
58 0.000981
59 0.000975
60 0.000969
61 0.000961
62 0.000955
63 0.000949
64 0.000955
65 0.000960
66 0.000963
67 0.000969
68 0.000973
69 0.000975
70 0.000970
71 0.000967
72 0.000967
73 0.000968
74 0.000969
75 0.000963
76 0.000955
77 0.000947
78 0.000945
79 0.000939
80 0.000932
81 0.000926
82 0.000926
83 0.000921
84 0.000910
85 0.000900
86 0.000888
87 0.000879
88 0.000873
89 0.000872
90 0.000878
91 0.000884
92 0.000888
93 0.000888
94 0.000888
95 0.000887
96 0.000888
97 0.000887
98 0.000887
99 0.000883
100 0.000882
101 0.000876
102 0.000868
103 0.000860
104 0.000852
105 0.000847
106 0.000844
107 0.000841
108 0.000835
109 0.000830
110 0.000832
111 0.000831
112 0.000825
113 0.000821
114 0.000813
115 0.000805
116 0.000805
117 0.000806
118 0.000806
119 0.000805
120 0.000801
121 0.000797
122 0.000786
123 0.000780
124 0.000772
125 0.000767
126 0.000765
127 0.000767
128 0.000765
129 0.000767
130 0.000764
131 0.000770
132 0.000775
133 0.000779
134 0.000778
135 0.000779
136 0.000781
137 0.000782
138 0.000776
139 0.000776
140 0.000771
141 0.000765
142 0.000758
143 0.000755
144 0.000747
145 0.000735
146 0.000730
147 0.000726
148 0.000724
149 0.000717
150 0.000709
151 0.000700
152 0.000689
153 0.000682
154 0.000677
155 0.000667
156 0.000657
157 0.000649
158 0.000644
159 0.000645
160 0.000647
161 0.000645
162 0.000645
163 0.000646
164 0.000647
165 0.000647
166 0.000648
167 0.000648
168 0.000644
169 0.000646
170 0.000651
171 0.000655
172 0.000654
173 0.000653
174 0.000653
175 0.000653
176 0.000652
177 0.000653
178 0.000653
179 0.000651
180 0.000647
181 0.000644
182 0.000639
183 0.000634
184 0.000630
185 0.000633
186 0.000629
187 0.000629
188 0.000634
189 0.000637
190 0.000634
191 0.000627
192 0.000621
193 0.000616
194 0.000609
195 0.000604
196 0.000597
197 0.000590
198 0.000585
199 0.000586
200 0.000591
201 0.000595
202 0.000594
203 0.000597
204 0.000601
205 0.000603
206 0.000607
207 0.000608
208 0.000610
209 0.000614
210 0.000621
211 0.000621
212 0.000618
213 0.000610
214 0.000607
215 0.000612
216 0.000614
217 0.000614
218 0.000616
219 0.000613
220 0.000607
221 0.000598
222 0.000594
223 0.000588
224 0.000583
225 0.000573
226 0.000569
227 0.000568
228 0.000565
229 0.000561
230 0.000557
231 0.000561
232 0.000561
233 0.000564
234 0.000567
235 0.000566
236 0.000563
237 0.000564
238 0.000564
239 0.000567
240 0.000564
241 0.000562
242 0.000563
243 0.000561
244 0.000562
245 0.000566
246 0.000568
247 0.000567
248 0.000570
249 0.000575
250 0.000575
251 0.000570
252 0.000567
253 0.000564
254 0.000558
255 0.000553
256 0.000551
257 0.000549
258 0.000546
259 0.000547
260 0.000546
261 0.000548
262 0.000550
263 0.000545
264 0.000541
265 0.000535
266 0.000530
267 0.000522
268 0.000520
269 0.000517
270 0.000513
271 0.000513
272 0.000515
273 0.000510
274 0.000507
275 0.000505
276 0.000506
277 0.000508
278 0.000509
279 0.000508
280 0.000509
281 0.000508
282 0.000512
283 0.000515
284 0.000517
285 0.000521
286 0.000528
287 0.000530
288 0.000531
289 0.000535
290 0.000533
291 0.000531
292 0.000526
293 0.000523
294 0.000520
295 0.000517
296 0.000511
297 0.000505
298 0.000505
299 0.000508
300 0.000514
301 0.000518
302 0.000524
303 0.000527
304 0.000526
305 0.000523
306 0.000519
307 0.000515
308 0.000512
309 0.000509
310 0.000508
311 0.000503
312 0.000498
313 0.000499
314 0.000502
315 0.000499
316 0.000502
317 0.000504
318 0.000504
319 0.000502
320 0.000501
321 0.000502
322 0.000500
323 0.000497
324 0.000492
325 0.000490
326 0.000486
327 0.000484
328 0.000484
329 0.000484
330 0.000485
331 0.000484
332 0.000481
333 0.000483
334 0.000479
335 0.000475
336 0.000473
337 0.000473
338 0.000472
339 0.000472
340 0.000469
341 0.000466
342 0.000466
343 0.000465
344 0.000467
345 0.000469
346 0.000471
347 0.000476
348 0.000477
349 0.000477
350 0.000473
351 0.000471
352 0.000470
353 0.000472
354 0.000475
355 0.000480
356 0.000483
357 0.000481
358 0.000480
359 0.000483
360 0.000484
361 0.000480
362 0.000477
363 0.000475
364 0.000471
365 0.000464
366 0.000461
367 0.000458
368 0.000457
369 0.000459
370 0.000461
371 0.000459
372 0.000457
373 0.000455
374 0.000457
375 0.000457
376 0.000460
377 0.000462
378 0.000465
379 0.000465
380 0.000465
381 0.000467
382 0.000474
383 0.000476
384 0.000473
385 0.000471
386 0.000473
387 0.000472
388 0.000474
389 0.000473
390 0.000470
391 0.000465
392 0.000463
393 0.000462
394 0.000458
395 0.000457
396 0.000453
397 0.000453
398 0.000454
399 0.000453
400 0.000446
401 0.000441
402 0.000435
403 0.000430
404 0.000424
405 0.000426
406 0.000426
407 0.000423
408 0.000418
409 0.000414
410 0.000409
411 0.000408
412 0.000409
413 0.000410
414 0.000409
415 0.000408
416 0.000407
417 0.000403
418 0.000399
419 0.000397
420 0.000401
421 0.000407
422 0.000411
423 0.000411
424 0.000409
425 0.000410
426 0.000415
427 0.000419
428 0.000426
429 0.000430
430 0.000432
431 0.000429
432 0.000427
433 0.000427
434 0.000430
435 0.000431
436 0.000431
437 0.000434
438 0.000436
439 0.000439
440 0.000437
441 0.000433
442 0.000427
443 0.000425
444 0.000421
445 0.000418
446 0.000415
447 0.000415
448 0.000415
449 0.000420
450 0.000424
451 0.000427
452 0.000430
453 0.000435
454 0.000441
455 0.000445
456 0.000446
457 0.000447
458 0.000447
459 0.000447
460 0.000452
461 0.000454
462 0.000455
463 0.000450
464 0.000450
465 0.000451
466 0.000455
467 0.000451
468 0.000449
469 0.000442
470 0.000441
471 0.000441
472 0.000441
473 0.000439
474 0.000440
475 0.000440
476 0.000443
477 0.000446
478 0.000445
479 0.000446
480 0.000450
481 0.000452
482 0.000447
483 0.000444
484 0.000440
485 0.000436
486 0.000434
487 0.000437
488 0.000441
489 0.000444
490 0.000445
491 0.000443
492 0.000438
493 0.000436
494 0.000430
495 0.000431
496 0.000430
497 0.000428
498 0.000425
499 0.000424
500 0.000423
501 0.000422
502 0.000419
503 0.000416
504 0.000413
505 0.000412
506 0.000411
507 0.000409
508 0.000406
509 0.000405
510 0.000402
511 0.000402
512 0.000396
513 0.000395
514 0.000387
515 0.000378
516 0.000368
517 0.000363
518 0.000360
519 0.000356
520 0.000355
521 0.000350
522 0.000348
523 0.000347
524 0.000347
525 0.000345
526 0.000346
527 0.000345
528 0.000347
529 0.000349
530 0.000350
531 0.000352
532 0.000352
533 0.000350
534 0.000350
535 0.000350
536 0.000353
537 0.000354
538 0.000354
539 0.000354
540 0.000355
541 0.000354
542 0.000348
543 0.000339
544 0.000333
545 0.000331
546 0.000329
547 0.000331
548 0.000333
549 0.000333
550 0.000330
551 0.000331
552 0.000330
553 0.000332
554 0.000333
555 0.000334
556 0.000336
557 0.000338
558 0.000337
559 0.000337
560 0.000332
561 0.000326
562 0.000323
563 0.000320
564 0.000317
565 0.000315
566 0.000314
567 0.000314
568 0.000312
569 0.000309
570 0.000306
571 0.000307
572 0.000308
573 0.000309
574 0.000306
575 0.000308
576 0.000308
577 0.000307
578 0.000307
579 0.000305
580 0.000301
581 0.000297
582 0.000296
583 0.000297
584 0.000295
585 0.000294
586 0.000291
587 0.000293
588 0.000291
589 0.000290
590 0.000286
591 0.000282
592 0.000283
593 0.000289
594 0.000289
595 0.000289
596 0.000285
597 0.000285
598 0.000285
599 0.000284
600 0.000284
601 0.000284
602 0.000282
603 0.000281
604 0.000278
605 0.000279
606 0.000274
607 0.000272
608 0.000272
609 0.000274
610 0.000273
611 0.000272
612 0.000270
613 0.000271
614 0.000268
615 0.000264
616 0.000266
617 0.000265
618 0.000263
619 0.000262
620 0.000267
621 0.000270
622 0.000272
623 0.000271
624 0.000274
625 0.000274
626 0.000273
627 0.000272
628 0.000272
629 0.000276
630 0.000279
631 0.000284
632 0.000286
633 0.000286
634 0.000285
635 0.000279
636 0.000276
637 0.000274
638 0.000276
639 0.000278
640 0.000280
641 0.000281
642 0.000278
643 0.000275
644 0.000270
645 0.000269
646 0.000268
647 0.000266
648 0.000265
649 0.000266
650 0.000265
651 0.000262
652 0.000254
653 0.000246
654 0.000241
655 0.000238
656 0.000232
657 0.000228
658 0.000224
659 0.000222
660 0.000220
661 0.000221
662 0.000219
663 0.000217
664 0.000215
665 0.000217
666 0.000220
667 0.000224
668 0.000228
669 0.000232
670 0.000234
671 0.000236
672 0.000240
673 0.000243
674 0.000244
675 0.000247
676 0.000250
677 0.000253
678 0.000255
679 0.000253
680 0.000252
681 0.000245
682 0.000240
683 0.000239
684 0.000239
685 0.000238
686 0.000239
687 0.000240
688 0.000240
689 0.000240
690 0.000240
691 0.000241
692 0.000242
693 0.000240
694 0.000240
695 0.000241
696 0.000239
697 0.000238
698 0.000238
699 0.000242
700 0.000243
701 0.000242
702 0.000242
703 0.000241
704 0.000239
705 0.000239
706 0.000239
707 0.000238
708 0.000237
709 0.000233
710 0.000229
711 0.000229
712 0.000230
713 0.000229
714 0.000229
715 0.000232
716 0.000235
717 0.000232
718 0.000227
719 0.000225
720 0.000223
721 0.000220
722 0.000217
723 0.000215
724 0.000213
725 0.000209
726 0.000209
727 0.000205
728 0.000203
729 0.000203
730 0.000205
731 0.000205
732 0.000206
733 0.000205
734 0.000202
735 0.000196
736 0.000195
737 0.000195
738 0.000196
739 0.000198
740 0.000203
741 0.000208
742 0.000215
743 0.000219
744 0.000219
745 0.000221
746 0.000221
747 0.000224
748 0.000229
749 0.000227
750 0.000225
751 0.000223
752 0.000220
753 0.000216
754 0.000211
755 0.000206
756 0.000201
757 0.000198
758 0.000196
759 0.000196
760 0.000195
761 0.000194
762 0.000195
763 0.000195
764 0.000197
765 0.000200
766 0.000203
767 0.000203
768 0.000208
769 0.000210
770 0.000212
771 0.000212
772 0.000213
773 0.000215
774 0.000217
775 0.000219
776 0.000220
777 0.000222
778 0.000220
779 0.000220
780 0.000219
781 0.000219
782 0.000219
783 0.000220
784 0.000219
785 0.000219
786 0.000216
787 0.000211
788 0.000207
789 0.000204
790 0.000203
791 0.000202
792 0.000197
793 0.000195
794 0.000192
795 0.000188
796 0.000181
797 0.000174
798 0.000169
799 0.000166
800 0.000162
801 0.000157
802 0.000156
803 0.000153
804 0.000150
805 0.000148
806 0.000149
807 0.000149
808 0.000149
809 0.000152
