# i correlation
1 0.002023
2 0.001949
3 0.001894
4 0.001846
5 0.001805
6 0.001768
7 0.001727
8 0.001684
9 0.001648
10 0.001611
11 0.001587
12 0.001563
13 0.001545
14 0.001535
15 0.001519
16 0.001507
17 0.001501
18 0.001499
19 0.001490
20 0.001488
21 0.001483
22 0.001480
23 0.001470
24 0.001468
25 0.001468
26 0.001461
27 0.001462
28 0.001458
29 0.001457
30 0.001459
31 0.001455
32 0.001444
33 0.001434
34 0.001426
35 0.001410
36 0.001393
37 0.001378
38 0.001374
39 0.001371
40 0.001365
41 0.001354
42 0.001346
43 0.001336
44 0.001324
45 0.001309
46 0.001303
47 0.001306
48 0.001307
49 0.001302
50 0.001303
51 0.001300
52 0.001295
53 0.001282
54 0.001279
55 0.001276
56 0.001279
57 0.001277
58 0.001273
59 0.001273
60 0.001267
61 0.001269
62 0.001270
63 0.001268
64 0.001267
65 0.001266
66 0.001261
67 0.001248
68 0.001239
69 0.001229
70 0.001227
71 0.001216
72 0.001198
73 0.001182
74 0.001176
75 0.001160
76 0.001141
77 0.001133
78 0.001124
79 0.001118
80 0.001122
81 0.001125
82 0.001112
83 0.001099
84 0.001085
85 0.001075
86 0.001071
87 0.001058
88 0.001053
89 0.001051
90 0.001048
91 0.001043
92 0.001037
93 0.001028
94 0.001019
95 0.001008
96 0.000996
97 0.000984
98 0.000974
99 0.000967
100 0.000960
101 0.000961
102 0.000960
103 0.000961
104 0.000966
105 0.000972
106 0.000969
107 0.000963
108 0.000958
109 0.000956
110 0.000955
111 0.000953
112 0.000950
113 0.000942
114 0.000934
115 0.000931
116 0.000927
117 0.000922
118 0.000915
119 0.000913
120 0.000916
121 0.000924
122 0.000925
123 0.000923
124 0.000915
125 0.000904
126 0.000890
127 0.000885
128 0.000879
129 0.000875
130 0.000871
131 0.000866
132 0.000859
133 0.000855
134 0.000861
135 0.000866
136 0.000870
137 0.000873
138 0.000863
139 0.000852
140 0.000851
141 0.000853
142 0.000843
143 0.000835
144 0.000829
145 0.000824
146 0.000818
147 0.000816
148 0.000822
149 0.000816
150 0.000804
151 0.000805
152 0.000805
153 0.000799
154 0.000799
155 0.000798
156 0.000790
157 0.000783
158 0.000779
159 0.000783
160 0.000786
161 0.000788
162 0.000793
163 0.000786
164 0.000776
165 0.000767
166 0.000759
167 0.000754
168 0.000747
169 0.000743
170 0.000744
171 0.000751
172 0.000747
173 0.000744
174 0.000735
175 0.000732
176 0.000731
177 0.000729
178 0.000735
179 0.000739
180 0.000743
181 0.000739
182 0.000735
183 0.000732
184 0.000731
185 0.000732
186 0.000734
187 0.000738
188 0.000736
189 0.000738
190 0.000740
191 0.000738
192 0.000739
193 0.000739
194 0.000730
195 0.000730
196 0.000728
197 0.000725
198 0.000733
199 0.000738
200 0.000743
201 0.000749
202 0.000753
203 0.000748
204 0.000748
205 0.000751
206 0.000748
207 0.000740
208 0.000722
209 0.000705
210 0.000695
211 0.000685
212 0.000676
213 0.000669
214 0.000664
215 0.000663
216 0.000660
217 0.000666
218 0.000672
219 0.000672
220 0.000678
221 0.000680
222 0.000690
223 0.000692
224 0.000688
225 0.000688
226 0.000687
227 0.000682
228 0.000676
229 0.000677
230 0.000667
231 0.000647
232 0.000640
233 0.000624
234 0.000612
235 0.000599
236 0.000585
237 0.000575
238 0.000564
239 0.000558
240 0.000554
241 0.000552
242 0.000549
243 0.000550
244 0.000552
245 0.000557
246 0.000557
247 0.000558
248 0.000554
249 0.000557
250 0.000563
251 0.000559
252 0.000562
253 0.000563
254 0.000558
255 0.000555
256 0.000553
257 0.000547
258 0.000537
259 0.000534
260 0.000532
261 0.000528
262 0.000522
263 0.000514
264 0.000510
265 0.000497
266 0.000486
267 0.000479
268 0.000479
269 0.000480
270 0.000482
271 0.000483
272 0.000489
273 0.000492
274 0.000490
275 0.000489
276 0.000491
277 0.000493
278 0.000496
279 0.000501
280 0.000501
281 0.000504
282 0.000508
283 0.000510
284 0.000509
285 0.000512
286 0.000507
287 0.000499
288 0.000502
289 0.000492
290 0.000481
291 0.000476
292 0.000475
293 0.000472
294 0.000472
295 0.000466
296 0.000469
297 0.000471
298 0.000465
299 0.000457
300 0.000453
301 0.000445
302 0.000437
303 0.000436
304 0.000431
305 0.000420
306 0.000415
307 0.000417
308 0.000417
309 0.000421
310 0.000422
311 0.000434
312 0.000440
313 0.000440
314 0.000441
315 0.000443
316 0.000444
317 0.000442
318 0.000438
319 0.000435
320 0.000435
321 0.000440
322 0.000435
323 0.000429
324 0.000422
325 0.000425
326 0.000436
327 0.000445
328 0.000449
329 0.000449
330 0.000448
331 0.000448
332 0.000446
333 0.000448
334 0.000455
335 0.000453
336 0.000454
337 0.000451
338 0.000450
339 0.000450
340 0.000456
341 0.000462
342 0.000471
343 0.000468
344 0.000463
345 0.000459
346 0.000457
347 0.000459
348 0.000460
349 0.000466
350 0.000477
351 0.000482
352 0.000484
353 0.000484
354 0.000489
355 0.000496
356 0.000505
357 0.000508
358 0.000510
359 0.000521
360 0.000531
361 0.000541
362 0.000550
363 0.000562
364 0.000563
365 0.000564
366 0.000568
367 0.000568
368 0.000564
369 0.000570
370 0.000566
371 0.000555
372 0.000544
373 0.000537
374 0.000528
375 0.000515
376 0.000513
377 0.000520
378 0.000520
379 0.000512
380 0.000500
381 0.000496
382 0.000494
383 0.000491
384 0.000496
385 0.000496
386 0.000497
387 0.000500
388 0.000504
389 0.000508
390 0.000519
391 0.000532
392 0.000536
393 0.000543
394 0.000547
395 0.000545
396 0.000543
397 0.000549
398 0.000549
399 0.000546
400 0.000545
401 0.000544
402 0.000538
403 0.000530
404 0.000520
405 0.000514
406 0.000515
407 0.000518
408 0.000519
409 0.000514
410 0.000511
411 0.000510
412 0.000512
413 0.000510
414 0.000501
415 0.000498
416 0.000500
417 0.000505
418 0.000502
419 0.000500
420 0.000505
421 0.000510
422 0.000519
423 0.000527
424 0.000536
425 0.000535
426 0.000531
427 0.000532
428 0.000533
429 0.000531
430 0.000529
431 0.000533
432 0.000537
433 0.000540
434 0.000538
435 0.000530
436 0.000520
437 0.000511
438 0.000501
439 0.000489
440 0.000484
441 0.000477
442 0.000474
443 0.000472
444 0.000471
445 0.000468
446 0.000464
447 0.000462
448 0.000460
449 0.000465
450 0.000468
451 0.000471
452 0.000474
453 0.000474
454 0.000472
455 0.000473
456 0.000472
457 0.000467
458 0.000465
459 0.000464
460 0.000454
461 0.000447
462 0.000438
463 0.000429
464 0.000422
465 0.000416
466 0.000407
467 0.000407
468 0.000406
469 0.000405
470 0.000403
471 0.000407
472 0.000415
473 0.000418
474 0.000426
475 0.000426
476 0.000427
477 0.000426
478 0.000426
479 0.000426
480 0.000427
481 0.000428
482 0.000427
483 0.000432
484 0.000428
485 0.000423
486 0.000424
487 0.000426
488 0.000423
489 0.000417
490 0.000410
491 0.000405
492 0.000403
493 0.000398
494 0.000396
495 0.000385
496 0.000377
497 0.000374
498 0.000373
499 0.000375
500 0.000376
501 0.000379
502 0.000378
503 0.000380
504 0.000381
505 0.000384
506 0.000386
507 0.000388
508 0.000388
509 0.000382
510 0.000379
511 0.000378
512 0.000380
513 0.000383
514 0.000395
515 0.000398
516 0.000394
517 0.000394
518 0.000393
519 0.000385
520 0.000382
521 0.000381
522 0.000375
523 0.000365
524 0.000351
525 0.000341
526 0.000334
527 0.000326
528 0.000324
529 0.000321
530 0.000317
531 0.000314
532 0.000313
533 0.000311
534 0.000307
535 0.000308
536 0.000310
537 0.000308
538 0.000316
539 0.000320
540 0.000321
541 0.000324
542 0.000329
543 0.000334
544 0.000337
545 0.000339
546 0.000341
547 0.000342
548 0.000340
549 0.000340
550 0.000336
551 0.000330
552 0.000332
553 0.000335
554 0.000336
555 0.000337
556 0.000340
557 0.000341
558 0.000341
559 0.000341
560 0.000344
561 0.000350
562 0.000362
563 0.000367
564 0.000375
565 0.000381
566 0.000388
567 0.000393
568 0.000400
569 0.000401
570 0.000397
571 0.000398
572 0.000397
573 0.000396
574 0.000392
575 0.000387
576 0.000386
577 0.000385
578 0.000384
579 0.000387
580 0.000389
581 0.000387
582 0.000383
583 0.000379
584 0.000375
585 0.000374
586 0.000377
587 0.000374
588 0.000371
589 0.000371
590 0.000371
591 0.000372
592 0.000377
593 0.000382
594 0.000388
595 0.000399
596 0.000403
597 0.000403
598 0.000400
599 0.000395
600 0.000385
601 0.000376
602 0.000368
603 0.000358
604 0.000349
605 0.000337
606 0.000332
607 0.000325
608 0.000320
609 0.000318
610 0.000318
611 0.000319
612 0.000317
613 0.000321
614 0.000325
615 0.000330
616 0.000335
617 0.000335
618 0.000331
619 0.000332
620 0.000333
621 0.000331
622 0.000331
623 0.000335
624 0.000335
625 0.000332
626 0.000333
627 0.000339
628 0.000346
629 0.000356
630 0.000364
631 0.000370
632 0.000373
633 0.000378
634 0.000385
635 0.000390
636 0.000396
637 0.000399
638 0.000401
639 0.000400
640 0.000397
641 0.000395
642 0.000395
643 0.000395
644 0.000391
645 0.000391
646 0.000387
647 0.000382
648 0.000379
649 0.000378
650 0.000373
651 0.000369
652 0.000357
653 0.000348
654 0.000344
655 0.000335
656 0.000327
657 0.000324
658 0.000313
659 0.000305
660 0.000297
661 0.000290
662 0.000285
663 0.000280
664 0.000263
665 0.000249
666 0.000241
667 0.000239
668 0.000232
669 0.000225
670 0.000220
671 0.000211
672 0.000209
673 0.000211
674 0.000209
675 0.000206
676 0.000207
677 0.000203
678 0.000203
679 0.000209
680 0.000210
681 0.000209
682 0.000206
683 0.000200
684 0.000197
685 0.000193
686 0.000185
687 0.000181
688 0.000177
689 0.000175
690 0.000178
691 0.000181
692 0.000177
693 0.000178
694 0.000178
695 0.000176
696 0.000176
697 0.000182
698 0.000187
699 0.000189
700 0.000191
701 0.000196
702 0.000195
703 0.000193
704 0.000192
705 0.000194
706 0.000193
707 0.000191
708 0.000188
709 0.000186
710 0.000182
711 0.000178
712 0.000174
713 0.000169
714 0.000164
715 0.000161
716 0.000160
717 0.000160
718 0.000161
719 0.000166
720 0.000171
721 0.000175
722 0.000174
723 0.000174
724 0.000173
725 0.000171
726 0.000168
727 0.000164
728 0.000166
729 0.000166
730 0.000162
731 0.000161
732 0.000163
733 0.000166
734 0.000165
735 0.000162
736 0.000155
737 0.000154
738 0.000156
739 0.000159
740 0.000159
741 0.000156
742 0.000152
743 0.000153
744 0.000151
745 0.000145
746 0.000142
747 0.000144
748 0.000145
749 0.000146
750 0.000151
751 0.000154
752 0.000155
753 0.000158
754 0.000160
755 0.000163
756 0.000168
757 0.000172
758 0.000176
759 0.000180
760 0.000182
761 0.000187
762 0.000194
763 0.000197
764 0.000198
765 0.000198
766 0.000198
767 0.000198
768 0.000200
769 0.000196
770 0.000195
771 0.000194
772 0.000194
773 0.000192
774 0.000189
775 0.000182
776 0.000175
777 0.000170
778 0.000167
779 0.000166
780 0.000164
781 0.000160
782 0.000156
783 0.000155
784 0.000156
785 0.000159
786 0.000158
787 0.000158
788 0.000157
789 0.000154
790 0.000157
791 0.000163
792 0.000165
793 0.000168
794 0.000172
795 0.000176
796 0.000176
797 0.000180
798 0.000182
799 0.000185
800 0.000187
801 0.000190
802 0.000192
803 0.000194
804 0.000192
805 0.000189
806 0.000181
807 0.000170
808 0.000164
809 0.000162
