# i correlation
1 0.001871
2 0.001792
3 0.001722
4 0.001670
5 0.001624
6 0.001581
7 0.001541
8 0.001508
9 0.001478
10 0.001454
11 0.001427
12 0.001414
13 0.001410
14 0.001406
15 0.001393
16 0.001382
17 0.001376
18 0.001365
19 0.001350
20 0.001337
21 0.001327
22 0.001310
23 0.001295
24 0.001278
25 0.001267
26 0.001262
27 0.001253
28 0.001238
29 0.001226
30 0.001211
31 0.001200
32 0.001198
33 0.001200
34 0.001207
35 0.001214
36 0.001216
37 0.001217
38 0.001218
39 0.001220
40 0.001224
41 0.001227
42 0.001231
43 0.001233
44 0.001221
45 0.001205
46 0.001188
47 0.001170
48 0.001155
49 0.001149
50 0.001149
51 0.001150
52 0.001156
53 0.001156
54 0.001151
55 0.001143
56 0.001127
57 0.001115
58 0.001108
59 0.001096
60 0.001082
61 0.001065
62 0.001050
63 0.001042
64 0.001038
65 0.001034
66 0.001032
67 0.001028
68 0.001020
69 0.001018
70 0.001018
71 0.001021
72 0.001026
73 0.001029
74 0.001029
75 0.001033
76 0.001040
77 0.001046
78 0.001045
79 0.001044
80 0.001039
81 0.001036
82 0.001031
83 0.001033
84 0.001034
85 0.001033
86 0.001030
87 0.001027
88 0.001024
89 0.001019
90 0.001012
91 0.001009
92 0.001007
93 0.001013
94 0.001020
95 0.001022
96 0.001023
97 0.001021
98 0.001020
99 0.001023
100 0.001019
101 0.001012
102 0.001006
103 0.001001
104 0.000993
105 0.000981
106 0.000966
107 0.000954
108 0.000944
109 0.000935
110 0.000923
111 0.000907
112 0.000904
113 0.000896
114 0.000889
115 0.000886
116 0.000884
117 0.000892
118 0.000903
119 0.000911
120 0.000918
121 0.000922
122 0.000929
123 0.000927
124 0.000918
125 0.000920
126 0.000917
127 0.000908
128 0.000899
129 0.000893
130 0.000877
131 0.000863
132 0.000854
133 0.000845
134 0.000832
135 0.000824
136 0.000815
137 0.000802
138 0.000799
139 0.000800
140 0.000794
141 0.000784
142 0.000782
143 0.000777
144 0.000767
145 0.000752
146 0.000745
147 0.000732
148 0.000717
149 0.000702
150 0.000690
151 0.000682
152 0.000687
153 0.000684
154 0.000680
155 0.000667
156 0.000660
157 0.000655
158 0.000655
159 0.000661
160 0.000662
161 0.000658
162 0.000665
163 0.000660
164 0.000661
165 0.000647
166 0.000630
167 0.000620
168 0.000611
169 0.000608
170 0.000605
171 0.000605
172 0.000604
173 0.000601
174 0.000602
175 0.000599
176 0.000600
177 0.000606
178 0.000614
179 0.000618
180 0.000621
181 0.000625
182 0.000613
183 0.000604
184 0.000598
185 0.000598
186 0.000598
187 0.000602
188 0.000600
189 0.000594
190 0.000583
191 0.000587
192 0.000592
193 0.000592
194 0.000595
195 0.000596
196 0.000605
197 0.000614
198 0.000626
199 0.000637
200 0.000644
201 0.000645
202 0.000640
203 0.000639
204 0.000638
205 0.000642
206 0.000640
207 0.000628
208 0.000620
209 0.000612
210 0.000604
211 0.000593
212 0.000592
213 0.000590
214 0.000584
215 0.000578
216 0.000578
217 0.000578
218 0.000586
219 0.000590
220 0.000589
221 0.000587
222 0.000581
223 0.000577
224 0.000571
225 0.000565
226 0.000563
227 0.000554
228 0.000540
229 0.000540
230 0.000541
231 0.000544
232 0.000532
233 0.000517
234 0.000503
235 0.000497
236 0.000493
237 0.000484
238 0.000477
239 0.000474
240 0.000468
241 0.000463
242 0.000455
243 0.000447
244 0.000437
245 0.000430
246 0.000425
247 0.000425
248 0.000420
249 0.000412
250 0.000408
251 0.000412
252 0.000418
253 0.000421
254 0.000422
255 0.000426
256 0.000427
257 0.000429
258 0.000436
259 0.000438
260 0.000437
261 0.000445
262 0.000454
263 0.000459
264 0.000464
265 0.000471
266 0.000470
267 0.000470
268 0.000468
269 0.000467
270 0.000461
271 0.000462
272 0.000463
273 0.000465
274 0.000463
275 0.000466
276 0.000469
277 0.000476
278 0.000475
279 0.000479
280 0.000474
281 0.000469
282 0.000465
283 0.000457
284 0.000453
285 0.000459
286 0.000458
287 0.000449
288 0.000442
289 0.000433
290 0.000428
291 0.000429
292 0.000426
293 0.000421
294 0.000422
295 0.000421
296 0.000431
297 0.000438
298 0.000441
299 0.000445
300 0.000451
301 0.000456
302 0.000462
303 0.000463
304 0.000463
305 0.000467
306 0.000475
307 0.000474
308 0.000471
309 0.000466
310 0.000466
311 0.000461
312 0.000459
313 0.000464
314 0.000469
315 0.000468
316 0.000468
317 0.000470
318 0.000475
319 0.000475
320 0.000481
321 0.000484
322 0.000486
323 0.000489
324 0.000488
325 0.000485
326 0.000486
327 0.000491
328 0.000506
329 0.000513
330 0.000517
331 0.000518
332 0.000510
333 0.000501
334 0.000495
335 0.000487
336 0.000482
337 0.000469
338 0.000460
339 0.000450
340 0.000449
341 0.000448
342 0.000447
343 0.000455
344 0.000459
345 0.000459
346 0.000459
347 0.000460
348 0.000470
349 0.000484
350 0.000490
351 0.000500
352 0.000503
353 0.000499
354 0.000492
355 0.000483
356 0.000478
357 0.000470
358 0.000463
359 0.000454
360 0.000451
361 0.000451
362 0.000452
363 0.000456
364 0.000461
365 0.000458
366 0.000451
367 0.000445
368 0.000441
369 0.000441
370 0.000449
371 0.000449
372 0.000448
373 0.000443
374 0.000440
375 0.000430
376 0.000421
377 0.000417
378 0.000412
379 0.000407
380 0.000407
381 0.000410
382 0.000407
383 0.000413
384 0.000416
385 0.000423
386 0.000424
387 0.000422
388 0.000417
389 0.000411
390 0.000417
391 0.000417
392 0.000411
393 0.000409
394 0.000413
395 0.000415
396 0.000408
397 0.000413
398 0.000415
399 0.000417
400 0.000423
401 0.000428
402 0.000430
403 0.000432
404 0.000438
405 0.000436
406 0.000440
407 0.000441
408 0.000440
409 0.000440
410 0.000438
411 0.000435
412 0.000434
413 0.000436
414 0.000441
415 0.000446
416 0.000451
417 0.000456
418 0.000459
419 0.000459
420 0.000456
421 0.000455
422 0.000453
423 0.000455
424 0.000460
425 0.000461
426 0.000459
427 0.000458
428 0.000455
429 0.000455
430 0.000451
431 0.000447
432 0.000438
433 0.000424
434 0.000408
435 0.000400
436 0.000395
437 0.000395
438 0.000393
439 0.000390
440 0.000383
441 0.000375
442 0.000369
443 0.000363
444 0.000354
445 0.000343
446 0.000337
447 0.000333
448 0.000332
449 0.000334
450 0.000341
451 0.000341
452 0.000348
453 0.000355
454 0.000357
455 0.000363
456 0.000372
457 0.000382
458 0.000388
459 0.000387
460 0.000385
461 0.000382
462 0.000380
463 0.000381
464 0.000384
465 0.000390
466 0.000401
467 0.000404
468 0.000400
469 0.000399
470 0.000404
471 0.000409
472 0.000416
473 0.000415
474 0.000412
475 0.000400
476 0.000392
477 0.000382
478 0.000372
479 0.000362
480 0.000359
481 0.000353
482 0.000357
483 0.000361
484 0.000362
485 0.000357
486 0.000348
487 0.000340
488 0.000332
489 0.000324
490 0.000324
491 0.000323
492 0.000323
493 0.000328
494 0.000330
495 0.000329
496 0.000324
497 0.000322
498 0.000321
499 0.000316
500 0.000313
501 0.000308
502 0.000308
503 0.000307
504 0.000305
505 0.000303
506 0.000305
507 0.000309
508 0.000317
509 0.000326
510 0.000336
511 0.000338
512 0.000341
513 0.000335
514 0.000329
515 0.000327
516 0.000328
517 0.000324
518 0.000315
519 0.000307
520 0.000299
521 0.000288
522 0.000285
523 0.000288
524 0.000291
525 0.000293
526 0.000295
527 0.000296
528 0.000296
529 0.000298
530 0.000292
531 0.000282
532 0.000276
533 0.000274
534 0.000268
535 0.000265
536 0.000265
537 0.000272
538 0.000270
539 0.000265
540 0.000261
541 0.000268
542 0.000276
543 0.000287
544 0.000296
545 0.000299
546 0.000302
547 0.000304
548 0.000309
549 0.000314
550 0.000315
551 0.000315
552 0.000320
553 0.000319
554 0.000321
555 0.000320
556 0.000311
557 0.000301
558 0.000289
559 0.000282
560 0.000274
561 0.000267
562 0.000264
563 0.000255
564 0.000253
565 0.000251
566 0.000249
567 0.000245
568 0.000244
569 0.000245
570 0.000245
571 0.000241
572 0.000233
573 0.000223
574 0.000210
575 0.000199
576 0.000190
577 0.000181
578 0.000179
579 0.000178
580 0.000175
581 0.000173
582 0.000174
583 0.000176
584 0.000179
585 0.000182
586 0.000181
587 0.000181
588 0.000181
589 0.000184
590 0.000188
591 0.000195
592 0.000197
593 0.000199
594 0.000198
595 0.000196
596 0.000191
597 0.000182
598 0.000173
599 0.000171
600 0.000172
601 0.000173
602 0.000174
603 0.000172
604 0.000166
605 0.000167
606 0.000171
607 0.000176
608 0.000181
609 0.000187
610 0.000193
611 0.000197
612 0.000198
613 0.000194
614 0.000190
615 0.000187
616 0.000186
617 0.000181
618 0.000173
619 0.000171
620 0.000171
621 0.000167
622 0.000165
623 0.000161
624 0.000161
625 0.000163
626 0.000165
627 0.000165
628 0.000170
629 0.000180
630 0.000185
631 0.000185
632 0.000184
633 0.000182
634 0.000178
635 0.000173
636 0.000173
637 0.000175
638 0.000174
639 0.000165
640 0.000155
641 0.000146
642 0.000140
643 0.000140
644 0.000138
645 0.000143
646 0.000146
647 0.000147
648 0.000144
649 0.000145
650 0.000143
651 0.000142
652 0.000137
653 0.000133
654 0.000130
655 0.000127
656 0.000119
657 0.000108
658 0.000102
659 0.000096
660 0.000090
661 0.000083
662 0.000082
663 0.000083
664 0.000084
665 0.000081
666 0.000079
667 0.000076
668 0.000080
669 0.000084
670 0.000084
671 0.000088
672 0.000094
673 0.000095
674 0.000095
675 0.000089
676 0.000087
677 0.000085
678 0.000085
679 0.000086
680 0.000083
681 0.000081
682 0.000081
683 0.000085
684 0.000091
685 0.000091
686 0.000093
687 0.000095
688 0.000100
689 0.000102
690 0.000104
691 0.000107
692 0.000107
693 0.000106
694 0.000100
695 0.000097
696 0.000097
697 0.000095
698 0.000092
699 0.000081
700 0.000074
701 0.000071
702 0.000062
703 0.000058
704 0.000055
705 0.000056
706 0.000056
707 0.000049
708 0.000045
709 0.000039
710 0.000035
711 0.000035
712 0.000037
713 0.000040
714 0.000048
715 0.000052
716 0.000053
717 0.000050
718 0.000050
719 0.000049
720 0.000047
721 0.000043
722 0.000042
723 0.000043
724 0.000049
725 0.000053
726 0.000053
727 0.000052
728 0.000052
729 0.000056
730 0.000058
731 0.000062
732 0.000067
733 0.000073
734 0.000078
735 0.000080
736 0.000076
737 0.000075
738 0.000076
739 0.000076
740 0.000074
741 0.000072
742 0.000069
743 0.000066
744 0.000058
745 0.000049
746 0.000043
747 0.000039
748 0.000037
749 0.000035
750 0.000029
751 0.000025
752 0.000020
753 0.000018
754 0.000012
755 0.000013
756 0.000010
757 0.000005
758 0.000002
759 0.000001
760 -0.000003
761 -0.000007
762 -0.000013
763 -0.000016
764 -0.000017
765 -0.000017
766 -0.000018
767 -0.000016
768 -0.000013
769 -0.000010
770 -0.000009
771 -0.000007
772 -0.000004
773 -0.000001
774 0.000001
775 -0.000000
776 -0.000002
777 -0.000005
778 -0.000004
779 -0.000006
780 -0.000008
781 -0.000013
782 -0.000018
783 -0.000020
784 -0.000020
785 -0.000019
786 -0.000020
787 -0.000021
788 -0.000018
789 -0.000016
790 -0.000017
791 -0.000018
792 -0.000020
793 -0.000024
794 -0.000029
795 -0.000034
796 -0.000041
797 -0.000049
798 -0.000056
799 -0.000061
800 -0.000065
801 -0.000065
802 -0.000066
803 -0.000069
804 -0.000074
805 -0.000079
806 -0.000081
807 -0.000080
808 -0.000074
809 -0.000067
