# i correlation
1 0.001814
2 0.001733
3 0.001663
4 0.001614
5 0.001578
6 0.001550
7 0.001522
8 0.001500
9 0.001490
10 0.001472
11 0.001453
12 0.001427
13 0.001409
14 0.001390
15 0.001383
16 0.001381
17 0.001378
18 0.001373
19 0.001363
20 0.001357
21 0.001350
22 0.001340
23 0.001336
24 0.001342
25 0.001356
26 0.001362
27 0.001361
28 0.001359
29 0.001362
30 0.001360
31 0.001355
32 0.001338
33 0.001324
34 0.001305
35 0.001287
36 0.001268
37 0.001240
38 0.001222
39 0.001202
40 0.001181
41 0.001165
42 0.001156
43 0.001152
44 0.001150
45 0.001140
46 0.001122
47 0.001108
48 0.001093
49 0.001083
50 0.001081
51 0.001090
52 0.001095
53 0.001104
54 0.001104
55 0.001107
56 0.001102
57 0.001089
58 0.001070
59 0.001059
60 0.001065
61 0.001069
62 0.001067
63 0.001058
64 0.001058
65 0.001045
66 0.001034
67 0.001013
68 0.000994
69 0.000977
70 0.000958
71 0.000944
72 0.000933
73 0.000927
74 0.000926
75 0.000923
76 0.000923
77 0.000926
78 0.000930
79 0.000928
80 0.000928
81 0.000930
82 0.000928
83 0.000925
84 0.000925
85 0.000928
86 0.000933
87 0.000938
88 0.000934
89 0.000935
90 0.000935
91 0.000936
92 0.000931
93 0.000930
94 0.000927
95 0.000928
96 0.000923
97 0.000923
98 0.000917
99 0.000913
100 0.000899
101 0.000892
102 0.000883
103 0.000883
104 0.000883
105 0.000879
106 0.000875
107 0.000877
108 0.000880
109 0.000875
110 0.000879
111 0.000871
112 0.000860
113 0.000850
114 0.000846
115 0.000848
116 0.000859
117 0.000872
118 0.000877
119 0.000875
120 0.000873
121 0.000877
122 0.000874
123 0.000869
124 0.000855
125 0.000840
126 0.000835
127 0.000834
128 0.000837
129 0.000833
130 0.000821
131 0.000807
132 0.000799
133 0.000794
134 0.000786
135 0.000764
136 0.000746
137 0.000742
138 0.000732
139 0.000729
140 0.000728
141 0.000727
142 0.000731
143 0.000740
144 0.000750
145 0.000746
146 0.000747
147 0.000742
148 0.000744
149 0.000747
150 0.000752
151 0.000755
152 0.000753
153 0.000749
154 0.000742
155 0.000733
156 0.000716
157 0.000708
158 0.000708
159 0.000709
160 0.000713
161 0.000717
162 0.000709
163 0.000695
164 0.000682
165 0.000673
166 0.000669
167 0.000663
168 0.000663
169 0.000658
170 0.000668
171 0.000686
172 0.000700
173 0.000703
174 0.000702
175 0.000701
176 0.000700
177 0.000699
178 0.000704
179 0.000706
180 0.000706
181 0.000705
182 0.000696
183 0.000691
184 0.000686
185 0.000674
186 0.000662
187 0.000653
188 0.000652
189 0.000648
190 0.000656
191 0.000653
192 0.000646
193 0.000632
194 0.000626
195 0.000626
196 0.000628
197 0.000624
198 0.000618
199 0.000619
200 0.000616
201 0.000614
202 0.000606
203 0.000596
204 0.000598
205 0.000613
206 0.000632
207 0.000636
208 0.000638
209 0.000634
210 0.000633
211 0.000636
212 0.000636
213 0.000634
214 0.000633
215 0.000636
216 0.000630
217 0.000627
218 0.000620
219 0.000610
220 0.000597
221 0.000592
222 0.000588
223 0.000588
224 0.000587
225 0.000588
226 0.000595
227 0.000597
228 0.000593
229 0.000581
230 0.000574
231 0.000573
232 0.000577
233 0.000578
234 0.000587
235 0.000600
236 0.000612
237 0.000622
238 0.000624
239 0.000626
240 0.000619
241 0.000619
242 0.000612
243 0.000608
244 0.000606
245 0.000607
246 0.000604
247 0.000607
248 0.000607
249 0.000608
250 0.000612
251 0.000614
252 0.000617
253 0.000618
254 0.000615
255 0.000609
256 0.000604
257 0.000595
258 0.000588
259 0.000585
260 0.000584
261 0.000592
262 0.000596
263 0.000596
264 0.000589
265 0.000586
266 0.000579
267 0.000579
268 0.000575
269 0.000571
270 0.000574
271 0.000577
272 0.000576
273 0.000572
274 0.000572
275 0.000575
276 0.000584
277 0.000590
278 0.000604
279 0.000610
280 0.000607
281 0.000607
282 0.000603
283 0.000597
284 0.000581
285 0.000567
286 0.000562
287 0.000555
288 0.000558
289 0.000560
290 0.000555
291 0.000554
292 0.000558
293 0.000555
294 0.000558
295 0.000560
296 0.000553
297 0.000540
298 0.000535
299 0.000539
300 0.000538
301 0.000534
302 0.000526
303 0.000518
304 0.000510
305 0.000505
306 0.000499
307 0.000490
308 0.000486
309 0.000482
310 0.000480
311 0.000481
312 0.000484
313 0.000482
314 0.000485
315 0.000477
316 0.000476
317 0.000477
318 0.000473
319 0.000465
320 0.000455
321 0.000443
322 0.000436
323 0.000435
324 0.000436
325 0.000429
326 0.000418
327 0.000414
328 0.000419
329 0.000426
330 0.000432
331 0.000436
332 0.000435
333 0.000436
334 0.000435
335 0.000431
336 0.000418
337 0.000402
338 0.000398
339 0.000407
340 0.000424
341 0.000430
342 0.000439
343 0.000446
344 0.000447
345 0.000446
346 0.000436
347 0.000423
348 0.000413
349 0.000403
350 0.000395
351 0.000390
352 0.000387
353 0.000379
354 0.000374
355 0.000382
356 0.000389
357 0.000391
358 0.000388
359 0.000383
360 0.000381
361 0.000373
362 0.000365
363 0.000360
364 0.000364
365 0.000367
366 0.000372
367 0.000370
368 0.000368
369 0.000364
370 0.000360
371 0.000362
372 0.000372
373 0.000380
374 0.000378
375 0.000371
376 0.000367
377 0.000368
378 0.000371
379 0.000366
380 0.000364
381 0.000365
382 0.000372
383 0.000380
384 0.000390
385 0.000403
386 0.000420
387 0.000426
388 0.000425
389 0.000421
390 0.000412
391 0.000398
392 0.000383
393 0.000375
394 0.000369
395 0.000374
396 0.000383
397 0.000380
398 0.000385
399 0.000389
400 0.000380
401 0.000373
402 0.000369
403 0.000368
404 0.000371
405 0.000373
406 0.000368
407 0.000372
408 0.000366
409 0.000364
410 0.000359
411 0.000360
412 0.000354
413 0.000352
414 0.000340
415 0.000338
416 0.000344
417 0.000345
418 0.000344
419 0.000341
420 0.000339
421 0.000339
422 0.000341
423 0.000333
424 0.000328
425 0.000326
426 0.000323
427 0.000319
428 0.000317
429 0.000323
430 0.000321
431 0.000323
432 0.000325
433 0.000326
434 0.000327
435 0.000326
436 0.000325
437 0.000323
438 0.000322
439 0.000326
440 0.000329
441 0.000328
442 0.000328
443 0.000329
444 0.000320
445 0.000309
446 0.000301
447 0.000292
448 0.000278
449 0.000274
450 0.000276
451 0.000281
452 0.000285
453 0.000281
454 0.000275
455 0.000266
456 0.000256
457 0.000248
458 0.000245
459 0.000242
460 0.000243
461 0.000243
462 0.000246
463 0.000250
464 0.000252
465 0.000252
466 0.000250
467 0.000255
468 0.000257
469 0.000259
470 0.000256
471 0.000258
472 0.000262
473 0.000270
474 0.000276
475 0.000271
476 0.000266
477 0.000263
478 0.000259
479 0.000254
480 0.000249
481 0.000238
482 0.000235
483 0.000230
484 0.000230
485 0.000236
486 0.000242
487 0.000247
488 0.000251
489 0.000259
490 0.000264
491 0.000264
492 0.000265
493 0.000266
494 0.000269
495 0.000271
496 0.000272
497 0.000269
498 0.000265
499 0.000263
500 0.000266
501 0.000266
502 0.000269
503 0.000273
504 0.000282
505 0.000289
506 0.000302
507 0.000305
508 0.000304
509 0.000298
510 0.000295
511 0.000290
512 0.000287
513 0.000286
514 0.000280
515 0.000284
516 0.000290
517 0.000299
518 0.000305
519 0.000306
520 0.000302
521 0.000291
522 0.000281
523 0.000275
524 0.000277
525 0.000279
526 0.000278
527 0.000273
528 0.000266
529 0.000262
530 0.000264
531 0.000264
532 0.000263
533 0.000265
534 0.000263
535 0.000266
536 0.000266
537 0.000262
538 0.000259
539 0.000264
540 0.000265
541 0.000264
542 0.000266
543 0.000263
544 0.000264
545 0.000259
546 0.000254
547 0.000250
548 0.000254
549 0.000260
550 0.000264
551 0.000263
552 0.000258
553 0.000256
554 0.000256
555 0.000255
556 0.000250
557 0.000247
558 0.000240
559 0.000237
560 0.000241
561 0.000246
562 0.000248
563 0.000247
564 0.000245
565 0.000236
566 0.000233
567 0.000229
568 0.000233
569 0.000238
570 0.000249
571 0.000252
572 0.000251
573 0.000247
574 0.000242
575 0.000235
576 0.000224
577 0.000226
578 0.000226
579 0.000232
580 0.000230
581 0.000227
582 0.000220
583 0.000217
584 0.000216
585 0.000207
586 0.000203
587 0.000202
588 0.000200
589 0.000195
590 0.000195
591 0.000194
592 0.000191
593 0.000193
594 0.000197
595 0.000204
596 0.000207
597 0.000207
598 0.000198
599 0.000194
600 0.000192
601 0.000189
602 0.000184
603 0.000183
604 0.000182
605 0.000182
606 0.000178
607 0.000172
608 0.000170
609 0.000168
610 0.000166
611 0.000162
612 0.000159
613 0.000156
614 0.000153
615 0.000149
616 0.000142
617 0.000141
618 0.000137
619 0.000138
620 0.000136
621 0.000140
622 0.000145
623 0.000153
624 0.000157
625 0.000158
626 0.000162
627 0.000161
628 0.000158
629 0.000152
630 0.000148
631 0.000145
632 0.000140
633 0.000136
634 0.000139
635 0.000144
636 0.000146
637 0.000141
638 0.000136
639 0.000134
640 0.000132
641 0.000128
642 0.000122
643 0.000116
644 0.000112
645 0.000112
646 0.000113
647 0.000116
648 0.000118
649 0.000115
650 0.000114
651 0.000115
652 0.000119
653 0.000124
654 0.000129
655 0.000134
656 0.000136
657 0.000143
658 0.000152
659 0.000161
660 0.000174
661 0.000181
662 0.000181
663 0.000182
664 0.000185
665 0.000190
666 0.000195
667 0.000197
668 0.000201
669 0.000201
670 0.000205
671 0.000209
672 0.000213
673 0.000215
674 0.000218
675 0.000217
676 0.000217
677 0.000220
678 0.000230
679 0.000236
680 0.000240
681 0.000245
682 0.000249
683 0.000253
684 0.000257
685 0.000265
686 0.000273
687 0.000280
688 0.000284
689 0.000286
690 0.000288
691 0.000293
692 0.000292
693 0.000286
694 0.000279
695 0.000273
696 0.000272
697 0.000273
698 0.000274
699 0.000273
700 0.000274
701 0.000274
702 0.000273
703 0.000276
704 0.000277
705 0.000280
706 0.000280
707 0.000281
708 0.000279
709 0.000270
710 0.000265
711 0.000260
712 0.000262
713 0.000264
714 0.000266
715 0.000271
716 0.000275
717 0.000278
718 0.000278
719 0.000276
720 0.000272
721 0.000276
722 0.000279
723 0.000284
724 0.000284
725 0.000285
726 0.000281
727 0.000274
728 0.000269
729 0.000265
730 0.000265
731 0.000267
732 0.000267
733 0.000267
734 0.000268
735 0.000265
736 0.000260
737 0.000250
738 0.000246
739 0.000247
740 0.000244
741 0.000245
742 0.000246
743 0.000244
744 0.000243
745 0.000244
746 0.000241
747 0.000240
748 0.000234
749 0.000230
750 0.000228
751 0.000228
752 0.000226
753 0.000225
754 0.000224
755 0.000222
756 0.000219
757 0.000213
758 0.000207
759 0.000201
760 0.000200
761 0.000199
762 0.000194
763 0.000190
764 0.000185
765 0.000181
766 0.000175
767 0.000175
768 0.000177
769 0.000181
770 0.000185
771 0.000188
772 0.000190
773 0.000186
774 0.000182
775 0.000179
776 0.000180
777 0.000177
778 0.000174
779 0.000172
780 0.000170
781 0.000170
782 0.000172
783 0.000175
784 0.000175
785 0.000175
786 0.000176
787 0.000180
788 0.000182
789 0.000186
790 0.000185
791 0.000182
792 0.000178
793 0.000172
794 0.000168
795 0.000165
796 0.000164
797 0.000164
798 0.000165
799 0.000166
800 0.000166
801 0.000163
802 0.000165
803 0.000166
804 0.000162
805 0.000158
806 0.000154
807 0.000150
808 0.000146
809 0.000142
