# i correlation
1 0.002009
2 0.001928
3 0.001856
4 0.001802
5 0.001756
6 0.001709
7 0.001668
8 0.001637
9 0.001611
10 0.001590
11 0.001571
12 0.001556
13 0.001541
14 0.001522
15 0.001502
16 0.001484
17 0.001477
18 0.001466
19 0.001455
20 0.001450
21 0.001445
22 0.001441
23 0.001438
24 0.001433
25 0.001418
26 0.001403
27 0.001389
28 0.001380
29 0.001368
30 0.001357
31 0.001347
32 0.001334
33 0.001329
34 0.001320
35 0.001316
36 0.001317
37 0.001317
38 0.001307
39 0.001303
40 0.001286
41 0.001270
42 0.001256
43 0.001234
44 0.001214
45 0.001190
46 0.001178
47 0.001159
48 0.001152
49 0.001147
50 0.001149
51 0.001150
52 0.001144
53 0.001147
54 0.001150
55 0.001157
56 0.001157
57 0.001154
58 0.001149
59 0.001141
60 0.001138
61 0.001137
62 0.001131
63 0.001125
64 0.001124
65 0.001118
66 0.001121
67 0.001116
68 0.001104
69 0.001088
70 0.001083
71 0.001077
72 0.001072
73 0.001070
74 0.001069
75 0.001070
76 0.001064
77 0.001059
78 0.001064
79 0.001063
80 0.001067
81 0.001069
82 0.001067
83 0.001065
84 0.001066
85 0.001073
86 0.001068
87 0.001063
88 0.001047
89 0.001034
90 0.001035
91 0.001041
92 0.001039
93 0.001035
94 0.001034
95 0.001035
96 0.001036
97 0.001038
98 0.001027
99 0.001024
100 0.001020
101 0.001020
102 0.001024
103 0.001031
104 0.001035
105 0.001041
106 0.001043
107 0.001038
108 0.001018
109 0.001000
110 0.000987
111 0.000982
112 0.000981
113 0.000981
114 0.000984
115 0.000989
116 0.000988
117 0.000981
118 0.000977
119 0.000975
120 0.000972
121 0.000972
122 0.000967
123 0.000954
124 0.000953
125 0.000943
126 0.000938
127 0.000938
128 0.000936
129 0.000924
130 0.000913
131 0.000899
132 0.000873
133 0.000854
134 0.000828
135 0.000816
136 0.000807
137 0.000798
138 0.000792
139 0.000790
140 0.000786
141 0.000786
142 0.000789
143 0.000783
144 0.000771
145 0.000760
146 0.000751
147 0.000740
148 0.000746
149 0.000746
150 0.000747
151 0.000742
152 0.000743
153 0.000750
154 0.000754
155 0.000751
156 0.000747
157 0.000750
158 0.000757
159 0.000758
160 0.000762
161 0.000768
162 0.000765
163 0.000766
164 0.000758
165 0.000760
166 0.000771
167 0.000780
168 0.000782
169 0.000779
170 0.000780
171 0.000778
172 0.000781
173 0.000784
174 0.000779
175 0.000769
176 0.000758
177 0.000754
178 0.000752
179 0.000757
180 0.000761
181 0.000771
182 0.000770
183 0.000769
184 0.000761
185 0.000759
186 0.000757
187 0.000753
188 0.000746
189 0.000733
190 0.000728
191 0.000718
192 0.000707
193 0.000691
194 0.000674
195 0.000658
196 0.000650
197 0.000651
198 0.000640
199 0.000626
200 0.000616
201 0.000603
202 0.000600
203 0.000604
204 0.000598
205 0.000610
206 0.000619
207 0.000626
208 0.000629
209 0.000633
210 0.000631
211 0.000626
212 0.000622
213 0.000608
214 0.000595
215 0.000585
216 0.000575
217 0.000564
218 0.000560
219 0.000561
220 0.000566
221 0.000568
222 0.000568
223 0.000575
224 0.000577
225 0.000577
226 0.000575
227 0.000579
228 0.000582
229 0.000576
230 0.000569
231 0.000567
232 0.000567
233 0.000577
234 0.000587
235 0.000583
236 0.000591
237 0.000598
238 0.000599
239 0.000603
240 0.000596
241 0.000596
242 0.000594
243 0.000592
244 0.000586
245 0.000596
246 0.000597
247 0.000601
248 0.000593
249 0.000584
250 0.000570
251 0.000560
252 0.000545
253 0.000534
254 0.000526
255 0.000524
256 0.000519
257 0.000517
258 0.000520
259 0.000521
260 0.000523
261 0.000513
262 0.000506
263 0.000503
264 0.000501
265 0.000495
266 0.000493
267 0.000491
268 0.000482
269 0.000477
270 0.000467
271 0.000456
272 0.000446
273 0.000432
274 0.000418
275 0.000404
276 0.000397
277 0.000392
278 0.000394
279 0.000396
280 0.000398
281 0.000402
282 0.000404
283 0.000410
284 0.000413
285 0.000414
286 0.000413
287 0.000418
288 0.000429
289 0.000424
290 0.000418
291 0.000410
292 0.000406
293 0.000405
294 0.000401
295 0.000386
296 0.000369
297 0.000345
298 0.000327
299 0.000312
300 0.000305
301 0.000292
302 0.000290
303 0.000284
304 0.000279
305 0.000280
306 0.000275
307 0.000270
308 0.000271
309 0.000273
310 0.000267
311 0.000262
312 0.000261
313 0.000261
314 0.000265
315 0.000266
316 0.000264
317 0.000261
318 0.000259
319 0.000262
320 0.000256
321 0.000257
322 0.000254
323 0.000256
324 0.000259
325 0.000259
326 0.000256
327 0.000264
328 0.000260
329 0.000260
330 0.000257
331 0.000251
332 0.000245
333 0.000238
334 0.000236
335 0.000225
336 0.000223
337 0.000224
338 0.000231
339 0.000246
340 0.000255
341 0.000261
342 0.000266
343 0.000269
344 0.000277
345 0.000280
346 0.000286
347 0.000290
348 0.000294
349 0.000301
350 0.000307
351 0.000320
352 0.000327
353 0.000332
354 0.000342
355 0.000346
356 0.000344
357 0.000342
358 0.000339
359 0.000329
360 0.000325
361 0.000317
362 0.000314
363 0.000313
364 0.000310
365 0.000310
366 0.000308
367 0.000303
368 0.000294
369 0.000285
370 0.000279
371 0.000269
372 0.000260
373 0.000260
374 0.000255
375 0.000255
376 0.000254
377 0.000247
378 0.000249
379 0.000249
380 0.000250
381 0.000242
382 0.000237
383 0.000227
384 0.000217
385 0.000213
386 0.000204
387 0.000201
388 0.000197
389 0.000199
390 0.000206
391 0.000206
392 0.000204
393 0.000201
394 0.000199
395 0.000208
396 0.000205
397 0.000201
398 0.000192
399 0.000204
400 0.000208
401 0.000205
402 0.000192
403 0.000182
404 0.000182
405 0.000181
406 0.000181
407 0.000184
408 0.000195
409 0.000207
410 0.000222
411 0.000232
412 0.000243
413 0.000250
414 0.000260
415 0.000266
416 0.000276
417 0.000283
418 0.000293
419 0.000297
420 0.000303
421 0.000311
422 0.000310
423 0.000296
424 0.000287
425 0.000272
426 0.000265
427 0.000255
428 0.000247
429 0.000242
430 0.000246
431 0.000255
432 0.000262
433 0.000264
434 0.000267
435 0.000267
436 0.000275
437 0.000276
438 0.000284
439 0.000291
440 0.000295
441 0.000295
442 0.000295
443 0.000297
444 0.000296
445 0.000306
446 0.000316
447 0.000324
448 0.000332
449 0.000333
450 0.000342
451 0.000347
452 0.000342
453 0.000340
454 0.000345
455 0.000346
456 0.000338
457 0.000333
458 0.000329
459 0.000324
460 0.000320
461 0.000316
462 0.000316
463 0.000315
464 0.000310
465 0.000310
466 0.000307
467 0.000309
468 0.000311
469 0.000319
470 0.000331
471 0.000333
472 0.000340
473 0.000349
474 0.000356
475 0.000371
476 0.000383
477 0.000393
478 0.000401
479 0.000407
480 0.000408
481 0.000405
482 0.000400
483 0.000387
484 0.000377
485 0.000368
486 0.000363
487 0.000357
488 0.000349
489 0.000337
490 0.000321
491 0.000308
492 0.000301
493 0.000294
494 0.000291
495 0.000293
496 0.000298
497 0.000309
498 0.000312
499 0.000310
500 0.000315
501 0.000318
502 0.000321
503 0.000316
504 0.000315
505 0.000319
506 0.000327
507 0.000328
508 0.000324
509 0.000322
510 0.000319
511 0.000322
512 0.000332
513 0.000343
514 0.000350
515 0.000360
516 0.000363
517 0.000371
518 0.000379
519 0.000383
520 0.000384
521 0.000388
522 0.000384
523 0.000384
524 0.000383
525 0.000385
526 0.000383
527 0.000376
528 0.000374
529 0.000372
530 0.000369
531 0.000358
532 0.000352
533 0.000349
534 0.000343
535 0.000341
536 0.000350
537 0.000357
538 0.000358
539 0.000356
540 0.000346
541 0.000341
542 0.000337
543 0.000338
544 0.000332
545 0.000328
546 0.000322
547 0.000318
548 0.000318
549 0.000320
550 0.000327
551 0.000326
552 0.000328
553 0.000329
554 0.000328
555 0.000321
556 0.000313
557 0.000308
558 0.000298
559 0.000290
560 0.000294
561 0.000294
562 0.000299
563 0.000299
564 0.000298
565 0.000296
566 0.000294
567 0.000286
568 0.000276
569 0.000272
570 0.000272
571 0.000265
572 0.000261
573 0.000256
574 0.000255
575 0.000256
576 0.000260
577 0.000261
578 0.000267
579 0.000268
580 0.000267
581 0.000269
582 0.000273
583 0.000276
584 0.000275
585 0.000278
586 0.000277
587 0.000278
588 0.000279
589 0.000279
590 0.000282
591 0.000285
592 0.000290
593 0.000295
594 0.000293
595 0.000283
596 0.000279
597 0.000273
598 0.000269
599 0.000273
600 0.000275
601 0.000277
602 0.000281
603 0.000287
604 0.000296
605 0.000299
606 0.000301
607 0.000301
608 0.000300
609 0.000294
610 0.000288
611 0.000280
612 0.000270
613 0.000265
614 0.000259
615 0.000255
616 0.000254
617 0.000254
618 0.000253
619 0.000251
620 0.000250
621 0.000251
622 0.000246
623 0.000242
624 0.000237
625 0.000230
626 0.000226
627 0.000231
628 0.000236
629 0.000234
630 0.000228
631 0.000223
632 0.000222
633 0.000222
634 0.000216
635 0.000210
636 0.000206
637 0.000209
638 0.000210
639 0.000209
640 0.000210
641 0.000213
642 0.000216
643 0.000220
644 0.000221
645 0.000225
646 0.000229
647 0.000228
648 0.000227
649 0.000227
650 0.000227
651 0.000223
652 0.000214
653 0.000203
654 0.000196
655 0.000198
656 0.000205
657 0.000210
658 0.000212
659 0.000214
660 0.000215
661 0.000216
662 0.000208
663 0.000205
664 0.000196
665 0.000189
666 0.000188
667 0.000191
668 0.000197
669 0.000201
670 0.000205
671 0.000203
672 0.000202
673 0.000202
674 0.000201
675 0.000200
676 0.000196
677 0.000191
678 0.000195
679 0.000206
680 0.000210
681 0.000217
682 0.000221
683 0.000233
684 0.000243
685 0.000257
686 0.000265
687 0.000273
688 0.000273
689 0.000270
690 0.000267
691 0.000265
692 0.000266
693 0.000270
694 0.000275
695 0.000274
696 0.000276
697 0.000274
698 0.000279
699 0.000285
700 0.000291
701 0.000292
702 0.000293
703 0.000299
704 0.000301
705 0.000303
706 0.000308
707 0.000310
708 0.000307
709 0.000306
710 0.000300
711 0.000292
712 0.000287
713 0.000281
714 0.000275
715 0.000263
716 0.000255
717 0.000250
718 0.000249
719 0.000250
720 0.000257
721 0.000256
722 0.000258
723 0.000262
724 0.000268
725 0.000269
726 0.000269
727 0.000266
728 0.000262
729 0.000259
730 0.000253
731 0.000248
732 0.000239
733 0.000237
734 0.000234
735 0.000235
736 0.000232
737 0.000219
738 0.000208
739 0.000199
740 0.000192
741 0.000187
742 0.000183
743 0.000180
744 0.000177
745 0.000171
746 0.000164
747 0.000153
748 0.000140
749 0.000129
750 0.000115
751 0.000102
752 0.000090
753 0.000081
754 0.000069
755 0.000062
756 0.000059
757 0.000064
758 0.000067
759 0.000070
760 0.000074
761 0.000076
762 0.000079
763 0.000083
764 0.000089
765 0.000091
766 0.000092
767 0.000091
768 0.000087
769 0.000086
770 0.000090
771 0.000087
772 0.000089
773 0.000089
774 0.000085
775 0.000082
776 0.000076
777 0.000068
778 0.000060
779 0.000053
780 0.000052
781 0.000049
782 0.000044
783 0.000038
784 0.000040
785 0.000043
786 0.000046
787 0.000044
788 0.000042
789 0.000042
790 0.000045
791 0.000044
792 0.000042
793 0.000039
794 0.000043
795 0.000041
796 0.000044
797 0.000051
798 0.000053
799 0.000061
800 0.000068
801 0.000072
802 0.000071
803 0.000073
804 0.000073
805 0.000075
806 0.000075
807 0.000077
808 0.000079
809 0.000084
