# i correlation
1 0.001701
2 0.001622
3 0.001554
4 0.001507
5 0.001466
6 0.001435
7 0.001403
8 0.001387
9 0.001370
10 0.001348
11 0.001327
12 0.001301
13 0.001272
14 0.001251
15 0.001242
16 0.001229
17 0.001228
18 0.001230
19 0.001224
20 0.001218
21 0.001208
22 0.001195
23 0.001187
24 0.001176
25 0.001171
26 0.001166
27 0.001162
28 0.001159
29 0.001152
30 0.001154
31 0.001156
32 0.001163
33 0.001161
34 0.001152
35 0.001144
36 0.001143
37 0.001138
38 0.001146
39 0.001157
40 0.001156
41 0.001162
42 0.001158
43 0.001153
44 0.001151
45 0.001143
46 0.001131
47 0.001124
48 0.001122
49 0.001116
50 0.001115
51 0.001108
52 0.001103
53 0.001096
54 0.001082
55 0.001068
56 0.001056
57 0.001053
58 0.001054
59 0.001056
60 0.001051
61 0.001056
62 0.001055
63 0.001048
64 0.001044
65 0.001030
66 0.001006
67 0.000993
68 0.000980
69 0.000974
70 0.000970
71 0.000968
72 0.000967
73 0.000965
74 0.000956
75 0.000946
76 0.000939
77 0.000941
78 0.000946
79 0.000954
80 0.000957
81 0.000955
82 0.000948
83 0.000943
84 0.000938
85 0.000937
86 0.000938
87 0.000939
88 0.000940
89 0.000939
90 0.000938
91 0.000934
92 0.000931
93 0.000926
94 0.000927
95 0.000927
96 0.000916
97 0.000912
98 0.000901
99 0.000887
100 0.000872
101 0.000865
102 0.000856
103 0.000845
104 0.000830
105 0.000825
106 0.000827
107 0.000822
108 0.000809
109 0.000800
110 0.000790
111 0.000785
112 0.000790
113 0.000796
114 0.000799
115 0.000803
116 0.000805
117 0.000809
118 0.000810
119 0.000812
120 0.000811
121 0.000811
122 0.000815
123 0.000819
124 0.000826
125 0.000829
126 0.000832
127 0.000831
128 0.000830
129 0.000824
130 0.000819
131 0.000816
132 0.000808
133 0.000806
134 0.000808
135 0.000802
136 0.000808
137 0.000808
138 0.000812
139 0.000818
140 0.000819
141 0.000814
142 0.000813
143 0.000808
144 0.000798
145 0.000803
146 0.000802
147 0.000795
148 0.000785
149 0.000771
150 0.000758
151 0.000760
152 0.000761
153 0.000758
154 0.000751
155 0.000753
156 0.000756
157 0.000764
158 0.000770
159 0.000764
160 0.000759
161 0.000749
162 0.000740
163 0.000731
164 0.000727
165 0.000719
166 0.000723
167 0.000719
168 0.000714
169 0.000713
170 0.000713
171 0.000712
172 0.000713
173 0.000709
174 0.000708
175 0.000713
176 0.000707
177 0.000703
178 0.000707
179 0.000714
180 0.000717
181 0.000715
182 0.000711
183 0.000708
184 0.000706
185 0.000696
186 0.000689
187 0.000677
188 0.000663
189 0.000653
190 0.000647
191 0.000631
192 0.000624
193 0.000618
194 0.000614
195 0.000609
196 0.000614
197 0.000616
198 0.000618
199 0.000617
200 0.000622
201 0.000625
202 0.000626
203 0.000626
204 0.000633
205 0.000641
206 0.000641
207 0.000653
208 0.000654
209 0.000650
210 0.000644
211 0.000629
212 0.000615
213 0.000607
214 0.000609
215 0.000609
216 0.000623
217 0.000625
218 0.000632
219 0.000644
220 0.000651
221 0.000651
222 0.000653
223 0.000649
224 0.000643
225 0.000649
226 0.000650
227 0.000652
228 0.000658
229 0.000658
230 0.000651
231 0.000650
232 0.000646
233 0.000644
234 0.000639
235 0.000632
236 0.000633
237 0.000640
238 0.000638
239 0.000645
240 0.000650
241 0.000649
242 0.000647
243 0.000647
244 0.000636
245 0.000625
246 0.000620
247 0.000620
248 0.000621
249 0.000616
250 0.000605
251 0.000598
252 0.000592
253 0.000584
254 0.000580
255 0.000578
256 0.000569
257 0.000572
258 0.000572
259 0.000575
260 0.000572
261 0.000576
262 0.000576
263 0.000575
264 0.000574
265 0.000572
266 0.000570
267 0.000569
268 0.000565
269 0.000565
270 0.000570
271 0.000570
272 0.000569
273 0.000568
274 0.000566
275 0.000560
276 0.000559
277 0.000553
278 0.000550
279 0.000551
280 0.000558
281 0.000561
282 0.000554
283 0.000545
284 0.000538
285 0.000534
286 0.000526
287 0.000515
288 0.000507
289 0.000501
290 0.000503
291 0.000516
292 0.000526
293 0.000538
294 0.000540
295 0.000541
296 0.000539
297 0.000545
298 0.000556
299 0.000564
300 0.000574
301 0.000575
302 0.000576
303 0.000573
304 0.000565
305 0.000556
306 0.000549
307 0.000538
308 0.000533
309 0.000530
310 0.000529
311 0.000530
312 0.000534
313 0.000538
314 0.000535
315 0.000534
316 0.000528
317 0.000525
318 0.000524
319 0.000532
320 0.000532
321 0.000539
322 0.000545
323 0.000549
324 0.000549
325 0.000543
326 0.000534
327 0.000527
328 0.000518
329 0.000509
330 0.000499
331 0.000502
332 0.000510
333 0.000510
334 0.000503
335 0.000499
336 0.000493
337 0.000488
338 0.000495
339 0.000497
340 0.000499
341 0.000503
342 0.000505
343 0.000506
344 0.000506
345 0.000505
346 0.000500
347 0.000494
348 0.000480
349 0.000475
350 0.000473
351 0.000465
352 0.000462
353 0.000462
354 0.000464
355 0.000466
356 0.000472
357 0.000469
358 0.000471
359 0.000478
360 0.000492
361 0.000506
362 0.000518
363 0.000529
364 0.000539
365 0.000548
366 0.000544
367 0.000539
368 0.000533
369 0.000521
370 0.000509
371 0.000507
372 0.000505
373 0.000509
374 0.000506
375 0.000494
376 0.000487
377 0.000485
378 0.000485
379 0.000493
380 0.000501
381 0.000503
382 0.000509
383 0.000513
384 0.000510
385 0.000514
386 0.000521
387 0.000519
388 0.000522
389 0.000525
390 0.000526
391 0.000527
392 0.000522
393 0.000515
394 0.000515
395 0.000511
396 0.000503
397 0.000498
398 0.000490
399 0.000487
400 0.000488
401 0.000479
402 0.000470
403 0.000467
404 0.000471
405 0.000470
406 0.000469
407 0.000462
408 0.000454
409 0.000453
410 0.000450
411 0.000446
412 0.000447
413 0.000449
414 0.000451
415 0.000459
416 0.000464
417 0.000465
418 0.000463
419 0.000460
420 0.000458
421 0.000459
422 0.000457
423 0.000459
424 0.000465
425 0.000474
426 0.000480
427 0.000485
428 0.000481
429 0.000480
430 0.000476
431 0.000461
432 0.000451
433 0.000450
434 0.000443
435 0.000434
436 0.000426
437 0.000422
438 0.000424
439 0.000427
440 0.000418
441 0.000413
442 0.000398
443 0.000390
444 0.000382
445 0.000374
446 0.000367
447 0.000363
448 0.000364
449 0.000365
450 0.000365
451 0.000368
452 0.000360
453 0.000357
454 0.000350
455 0.000350
456 0.000358
457 0.000368
458 0.000378
459 0.000386
460 0.000389
461 0.000394
462 0.000394
463 0.000394
464 0.000395
465 0.000397
466 0.000405
467 0.000413
468 0.000426
469 0.000432
470 0.000429
471 0.000432
472 0.000421
473 0.000418
474 0.000417
475 0.000419
476 0.000416
477 0.000419
478 0.000421
479 0.000425
480 0.000427
481 0.000426
482 0.000421
483 0.000416
484 0.000409
485 0.000403
486 0.000399
487 0.000395
488 0.000396
489 0.000394
490 0.000393
491 0.000392
492 0.000389
493 0.000375
494 0.000369
495 0.000356
496 0.000352
497 0.000349
498 0.000351
499 0.000349
500 0.000348
501 0.000345
502 0.000351
503 0.000353
504 0.000353
505 0.000353
506 0.000354
507 0.000359
508 0.000354
509 0.000345
510 0.000342
511 0.000341
512 0.000341
513 0.000344
514 0.000343
515 0.000340
516 0.000338
517 0.000335
518 0.000338
519 0.000342
520 0.000348
521 0.000356
522 0.000363
523 0.000365
524 0.000366
525 0.000360
526 0.000346
527 0.000333
528 0.000325
529 0.000320
530 0.000315
531 0.000311
532 0.000308
533 0.000307
534 0.000304
535 0.000301
536 0.000297
537 0.000284
538 0.000280
539 0.000280
540 0.000286
541 0.000287
542 0.000293
543 0.000294
544 0.000295
545 0.000293
546 0.000299
547 0.000301
548 0.000303
549 0.000303
550 0.000305
551 0.000308
552 0.000317
553 0.000314
554 0.000316
555 0.000318
556 0.000318
557 0.000314
558 0.000308
559 0.000298
560 0.000297
561 0.000304
562 0.000306
563 0.000313
564 0.000324
565 0.000331
566 0.000336
567 0.000335
568 0.000330
569 0.000326
570 0.000320
571 0.000312
572 0.000308
573 0.000305
574 0.000294
575 0.000289
576 0.000274
577 0.000269
578 0.000263
579 0.000258
580 0.000251
581 0.000240
582 0.000231
583 0.000229
584 0.000229
585 0.000229
586 0.000232
587 0.000232
588 0.000232
589 0.000228
590 0.000226
591 0.000219
592 0.000209
593 0.000208
594 0.000208
595 0.000208
596 0.000211
597 0.000214
598 0.000209
599 0.000205
600 0.000196
601 0.000186
602 0.000179
603 0.000175
604 0.000177
605 0.000186
606 0.000187
607 0.000188
608 0.000190
609 0.000195
610 0.000198
611 0.000204
612 0.000209
613 0.000213
614 0.000215
615 0.000211
616 0.000208
617 0.000200
618 0.000191
619 0.000184
620 0.000178
621 0.000171
622 0.000174
623 0.000181
624 0.000181
625 0.000179
626 0.000174
627 0.000171
628 0.000170
629 0.000165
630 0.000163
631 0.000163
632 0.000160
633 0.000159
634 0.000160
635 0.000159
636 0.000157
637 0.000158
638 0.000157
639 0.000154
640 0.000149
641 0.000150
642 0.000149
643 0.000155
644 0.000159
645 0.000158
646 0.000154
647 0.000152
648 0.000151
649 0.000150
650 0.000146
651 0.000142
652 0.000137
653 0.000136
654 0.000135
655 0.000136
656 0.000135
657 0.000135
658 0.000140
659 0.000146
660 0.000148
661 0.000150
662 0.000152
663 0.000154
664 0.000153
665 0.000149
666 0.000148
667 0.000144
668 0.000137
669 0.000133
670 0.000129
671 0.000123
672 0.000121
673 0.000119
674 0.000115
675 0.000114
676 0.000115
677 0.000116
678 0.000117
679 0.000111
680 0.000109
681 0.000106
682 0.000108
683 0.000106
684 0.000111
685 0.000115
686 0.000124
687 0.000130
688 0.000132
689 0.000129
690 0.000126
691 0.000128
692 0.000137
693 0.000141
694 0.000141
695 0.000142
696 0.000138
697 0.000139
698 0.000132
699 0.000124
700 0.000120
701 0.000122
702 0.000125
703 0.000128
704 0.000132
705 0.000135
706 0.000140
707 0.000144
708 0.000148
709 0.000147
710 0.000148
711 0.000150
712 0.000152
713 0.000156
714 0.000157
715 0.000152
716 0.000148
717 0.000144
718 0.000145
719 0.000139
720 0.000136
721 0.000135
722 0.000136
723 0.000138
724 0.000137
725 0.000140
726 0.000143
727 0.000142
728 0.000137
729 0.000129
730 0.000123
731 0.000119
732 0.000116
733 0.000111
734 0.000100
735 0.000093
736 0.000093
737 0.000091
738 0.000090
739 0.000093
740 0.000090
741 0.000088
742 0.000086
743 0.000084
744 0.000082
745 0.000076
746 0.000069
747 0.000059
748 0.000053
749 0.000049
750 0.000048
751 0.000051
752 0.000050
753 0.000046
754 0.000048
755 0.000045
756 0.000045
757 0.000043
758 0.000041
759 0.000040
760 0.000037
761 0.000038
762 0.000040
763 0.000039
764 0.000037
765 0.000039
766 0.000036
767 0.000031
768 0.000028
769 0.000029
770 0.000030
771 0.000035
772 0.000040
773 0.000040
774 0.000041
775 0.000040
776 0.000039
777 0.000037
778 0.000031
779 0.000029
780 0.000030
781 0.000033
782 0.000039
783 0.000041
784 0.000036
785 0.000031
786 0.000028
787 0.000022
788 0.000020
789 0.000019
790 0.000020
791 0.000021
792 0.000021
793 0.000021
794 0.000022
795 0.000025
796 0.000022
797 0.000016
798 0.000012
799 0.000010
800 0.000011
801 0.000008
802 0.000007
803 0.000007
804 0.000009
805 0.000006
806 0.000006
807 0.000005
808 -0.000001
809 -0.000009
