# i correlation
1 0.001773
2 0.001691
3 0.001627
4 0.001568
5 0.001519
6 0.001486
7 0.001451
8 0.001421
9 0.001400
10 0.001358
11 0.001317
12 0.001289
13 0.001264
14 0.001236
15 0.001221
16 0.001207
17 0.001194
18 0.001175
19 0.001153
20 0.001138
21 0.001128
22 0.001113
23 0.001100
24 0.001083
25 0.001067
26 0.001058
27 0.001054
28 0.001053
29 0.001052
30 0.001043
31 0.001040
32 0.001036
33 0.001039
34 0.001039
35 0.001038
36 0.001042
37 0.001057
38 0.001061
39 0.001072
40 0.001073
41 0.001073
42 0.001074
43 0.001070
44 0.001059
45 0.001056
46 0.001055
47 0.001051
48 0.001048
49 0.001038
50 0.001030
51 0.001032
52 0.001040
53 0.001040
54 0.001042
55 0.001046
56 0.001047
57 0.001050
58 0.001042
59 0.001030
60 0.001022
61 0.001023
62 0.001019
63 0.001028
64 0.001034
65 0.001024
66 0.001016
67 0.001014
68 0.001010
69 0.001006
70 0.001004
71 0.001005
72 0.000998
73 0.000988
74 0.000984
75 0.000980
76 0.000981
77 0.000976
78 0.000975
79 0.000972
80 0.000974
81 0.000974
82 0.000970
83 0.000960
84 0.000960
85 0.000962
86 0.000959
87 0.000963
88 0.000961
89 0.000955
90 0.000938
91 0.000931
92 0.000923
93 0.000929
94 0.000940
95 0.000934
96 0.000919
97 0.000909
98 0.000906
99 0.000894
100 0.000888
101 0.000882
102 0.000867
103 0.000856
104 0.000857
105 0.000845
106 0.000833
107 0.000823
108 0.000810
109 0.000802
110 0.000800
111 0.000800
112 0.000787
113 0.000788
114 0.000793
115 0.000808
116 0.000826
117 0.000828
118 0.000831
119 0.000832
120 0.000830
121 0.000837
122 0.000849
123 0.000857
124 0.000859
125 0.000860
126 0.000858
127 0.000858
128 0.000854
129 0.000845
130 0.000841
131 0.000840
132 0.000844
133 0.000848
134 0.000840
135 0.000840
136 0.000835
137 0.000835
138 0.000825
139 0.000825
140 0.000820
141 0.000815
142 0.000825
143 0.000831
144 0.000837
145 0.000839
146 0.000837
147 0.000816
148 0.000801
149 0.000781
150 0.000773
151 0.000757
152 0.000752
153 0.000750
154 0.000749
155 0.000756
156 0.000764
157 0.000773
158 0.000793
159 0.000814
160 0.000818
161 0.000824
162 0.000835
163 0.000842
164 0.000844
165 0.000838
166 0.000824
167 0.000808
168 0.000796
169 0.000778
170 0.000771
171 0.000772
172 0.000771
173 0.000764
174 0.000764
175 0.000755
176 0.000753
177 0.000740
178 0.000735
179 0.000732
180 0.000723
181 0.000715
182 0.000706
183 0.000693
184 0.000675
185 0.000668
186 0.000660
187 0.000657
188 0.000649
189 0.000642
190 0.000633
191 0.000629
192 0.000618
193 0.000601
194 0.000587
195 0.000569
196 0.000563
197 0.000564
198 0.000561
199 0.000558
200 0.000559
201 0.000566
202 0.000564
203 0.000563
204 0.000567
205 0.000563
206 0.000548
207 0.000542
208 0.000536
209 0.000543
210 0.000556
211 0.000565
212 0.000563
213 0.000561
214 0.000562
215 0.000571
216 0.000582
217 0.000596
218 0.000603
219 0.000619
220 0.000639
221 0.000650
222 0.000652
223 0.000645
224 0.000643
225 0.000644
226 0.000650
227 0.000655
228 0.000661
229 0.000662
230 0.000670
231 0.000668
232 0.000661
233 0.000658
234 0.000653
235 0.000641
236 0.000631
237 0.000630
238 0.000625
239 0.000626
240 0.000624
241 0.000625
242 0.000633
243 0.000636
244 0.000640
245 0.000628
246 0.000632
247 0.000631
248 0.000625
249 0.000624
250 0.000630
251 0.000628
252 0.000625
253 0.000637
254 0.000641
255 0.000640
256 0.000636
257 0.000635
258 0.000632
259 0.000636
260 0.000632
261 0.000632
262 0.000633
263 0.000631
264 0.000627
265 0.000625
266 0.000611
267 0.000599
268 0.000593
269 0.000582
270 0.000571
271 0.000558
272 0.000553
273 0.000550
274 0.000552
275 0.000552
276 0.000545
277 0.000539
278 0.000532
279 0.000524
280 0.000521
281 0.000525
282 0.000535
283 0.000545
284 0.000556
285 0.000568
286 0.000575
287 0.000578
288 0.000582
289 0.000588
290 0.000596
291 0.000603
292 0.000611
293 0.000602
294 0.000596
295 0.000588
296 0.000578
297 0.000571
298 0.000577
299 0.000574
300 0.000571
301 0.000573
302 0.000572
303 0.000574
304 0.000574
305 0.000569
306 0.000559
307 0.000555
308 0.000554
309 0.000551
310 0.000546
311 0.000542
312 0.000521
313 0.000504
314 0.000489
315 0.000479
316 0.000469
317 0.000464
318 0.000460
319 0.000454
320 0.000458
321 0.000464
322 0.000463
323 0.000461
324 0.000467
325 0.000468
326 0.000473
327 0.000466
328 0.000456
329 0.000452
330 0.000442
331 0.000443
332 0.000439
333 0.000443
334 0.000446
335 0.000456
336 0.000457
337 0.000458
338 0.000462
339 0.000458
340 0.000456
341 0.000459
342 0.000462
343 0.000468
344 0.000474
345 0.000478
346 0.000481
347 0.000487
348 0.000484
349 0.000484
350 0.000487
351 0.000488
352 0.000492
353 0.000493
354 0.000493
355 0.000502
356 0.000502
357 0.000500
358 0.000496
359 0.000492
360 0.000492
361 0.000489
362 0.000492
363 0.000501
364 0.000506
365 0.000508
366 0.000506
367 0.000499
368 0.000494
369 0.000488
370 0.000482
371 0.000474
372 0.000471
373 0.000468
374 0.000466
375 0.000466
376 0.000471
377 0.000467
378 0.000466
379 0.000473
380 0.000474
381 0.000476
382 0.000468
383 0.000464
384 0.000456
385 0.000453
386 0.000455
387 0.000450
388 0.000451
389 0.000457
390 0.000459
391 0.000456
392 0.000461
393 0.000453
394 0.000441
395 0.000427
396 0.000423
397 0.000421
398 0.000423
399 0.000422
400 0.000419
401 0.000418
402 0.000415
403 0.000406
404 0.000404
405 0.000405
406 0.000406
407 0.000406
408 0.000410
409 0.000410
410 0.000404
411 0.000393
412 0.000379
413 0.000368
414 0.000356
415 0.000347
416 0.000341
417 0.000342
418 0.000355
419 0.000366
420 0.000375
421 0.000380
422 0.000377
423 0.000365
424 0.000363
425 0.000367
426 0.000366
427 0.000377
428 0.000382
429 0.000390
430 0.000385
431 0.000383
432 0.000376
433 0.000375
434 0.000376
435 0.000378
436 0.000381
437 0.000376
438 0.000367
439 0.000356
440 0.000351
441 0.000340
442 0.000338
443 0.000332
444 0.000330
445 0.000335
446 0.000336
447 0.000333
448 0.000333
449 0.000331
450 0.000325
451 0.000326
452 0.000320
453 0.000315
454 0.000309
455 0.000299
456 0.000293
457 0.000290
458 0.000281
459 0.000269
460 0.000264
461 0.000264
462 0.000266
463 0.000269
464 0.000267
465 0.000266
466 0.000274
467 0.000277
468 0.000281
469 0.000280
470 0.000279
471 0.000270
472 0.000253
473 0.000240
474 0.000241
475 0.000244
476 0.000239
477 0.000231
478 0.000226
479 0.000227
480 0.000226
481 0.000232
482 0.000236
483 0.000246
484 0.000254
485 0.000264
486 0.000265
487 0.000269
488 0.000273
489 0.000274
490 0.000270
491 0.000266
492 0.000268
493 0.000267
494 0.000266
495 0.000267
496 0.000266
497 0.000263
498 0.000261
499 0.000259
500 0.000253
501 0.000246
502 0.000245
503 0.000246
504 0.000245
505 0.000250
506 0.000251
507 0.000252
508 0.000259
509 0.000260
510 0.000250
511 0.000245
512 0.000251
513 0.000256
514 0.000263
515 0.000272
516 0.000276
517 0.000278
518 0.000281
519 0.000281
520 0.000284
521 0.000292
522 0.000301
523 0.000314
524 0.000320
525 0.000322
526 0.000322
527 0.000320
528 0.000319
529 0.000323
530 0.000317
531 0.000317
532 0.000314
533 0.000306
534 0.000300
535 0.000295
536 0.000294
537 0.000288
538 0.000286
539 0.000279
540 0.000276
541 0.000268
542 0.000258
543 0.000247
544 0.000240
545 0.000234
546 0.000234
547 0.000231
548 0.000220
549 0.000208
550 0.000208
551 0.000209
552 0.000212
553 0.000206
554 0.000198
555 0.000196
556 0.000191
557 0.000186
558 0.000174
559 0.000157
560 0.000149
561 0.000141
562 0.000137
563 0.000138
564 0.000142
565 0.000140
566 0.000133
567 0.000130
568 0.000130
569 0.000126
570 0.000124
571 0.000121
572 0.000125
573 0.000131
574 0.000127
575 0.000132
576 0.000133
577 0.000137
578 0.000139
579 0.000150
580 0.000161
581 0.000168
582 0.000173
583 0.000179
584 0.000184
585 0.000187
586 0.000192
587 0.000190
588 0.000192
589 0.000193
590 0.000195
591 0.000192
592 0.000195
593 0.000199
594 0.000198
595 0.000193
596 0.000193
597 0.000193
598 0.000188
599 0.000188
600 0.000186
601 0.000185
602 0.000186
603 0.000188
604 0.000182
605 0.000173
606 0.000165
607 0.000164
608 0.000165
609 0.000173
610 0.000187
611 0.000195
612 0.000202
613 0.000201
614 0.000201
615 0.000194
616 0.000196
617 0.000194
618 0.000192
619 0.000197
620 0.000201
621 0.000201
622 0.000200
623 0.000194
624 0.000189
625 0.000193
626 0.000195
627 0.000193
628 0.000190
629 0.000190
630 0.000186
631 0.000181
632 0.000174
633 0.000164
634 0.000154
635 0.000145
636 0.000133
637 0.000123
638 0.000115
639 0.000116
640 0.000118
641 0.000118
642 0.000121
643 0.000116
644 0.000119
645 0.000119
646 0.000126
647 0.000134
648 0.000139
649 0.000144
650 0.000150
651 0.000157
652 0.000162
653 0.000165
654 0.000173
655 0.000180
656 0.000186
657 0.000189
658 0.000189
659 0.000195
660 0.000196
661 0.000203
662 0.000206
663 0.000209
664 0.000212
665 0.000213
666 0.000214
667 0.000219
668 0.000226
669 0.000227
670 0.000223
671 0.000223
672 0.000220
673 0.000217
674 0.000215
675 0.000212
676 0.000205
677 0.000206
678 0.000211
679 0.000216
680 0.000220
681 0.000223
682 0.000219
683 0.000221
684 0.000223
685 0.000221
686 0.000224
687 0.000226
688 0.000223
689 0.000222
690 0.000226
691 0.000221
692 0.000215
693 0.000208
694 0.000200
695 0.000196
696 0.000199
697 0.000195
698 0.000192
699 0.000190
700 0.000183
701 0.000173
702 0.000167
703 0.000162
704 0.000158
705 0.000160
706 0.000153
707 0.000147
708 0.000144
709 0.000144
710 0.000146
711 0.000152
712 0.000155
713 0.000157
714 0.000159
715 0.000156
716 0.000151
717 0.000155
718 0.000161
719 0.000167
720 0.000172
721 0.000177
722 0.000173
723 0.000169
724 0.000162
725 0.000160
726 0.000160
727 0.000159
728 0.000158
729 0.000154
730 0.000153
731 0.000147
732 0.000141
733 0.000136
734 0.000132
735 0.000133
736 0.000137
737 0.000141
738 0.000145
739 0.000145
740 0.000145
741 0.000145
742 0.000151
743 0.000158
744 0.000163
745 0.000165
746 0.000167
747 0.000171
748 0.000171
749 0.000173
750 0.000174
751 0.000177
752 0.000175
753 0.000175
754 0.000174
755 0.000175
756 0.000178
757 0.000178
758 0.000180
759 0.000184
760 0.000186
761 0.000188
762 0.000195
763 0.000194
764 0.000191
765 0.000190
766 0.000190
767 0.000192
768 0.000192
769 0.000192
770 0.000190
771 0.000191
772 0.000195
773 0.000197
774 0.000203
775 0.000205
776 0.000206
777 0.000206
778 0.000204
779 0.000202
780 0.000198
781 0.000195
782 0.000194
783 0.000195
784 0.000203
785 0.000209
786 0.000209
787 0.000209
788 0.000209
789 0.000212
790 0.000217
791 0.000217
792 0.000214
793 0.000212
794 0.000211
795 0.000203
796 0.000193
797 0.000187
798 0.000185
799 0.000178
800 0.000175
801 0.000174
802 0.000170
803 0.000168
804 0.000164
805 0.000166
806 0.000169
807 0.000174
808 0.000172
809 0.000169
