# i correlation
1 0.002081
2 0.001988
3 0.001906
4 0.001835
5 0.001776
6 0.001728
7 0.001689
8 0.001655
9 0.001628
10 0.001603
11 0.001582
12 0.001560
13 0.001549
14 0.001529
15 0.001514
16 0.001504
17 0.001494
18 0.001485
19 0.001473
20 0.001456
21 0.001437
22 0.001421
23 0.001410
24 0.001389
25 0.001374
26 0.001367
27 0.001368
28 0.001362
29 0.001361
30 0.001365
31 0.001365
32 0.001361
33 0.001355
34 0.001343
35 0.001335
36 0.001326
37 0.001301
38 0.001272
39 0.001254
40 0.001235
41 0.001221
42 0.001210
43 0.001205
44 0.001194
45 0.001182
46 0.001171
47 0.001158
48 0.001146
49 0.001148
50 0.001160
51 0.001167
52 0.001182
53 0.001191
54 0.001200
55 0.001199
56 0.001198
57 0.001197
58 0.001198
59 0.001200
60 0.001196
61 0.001190
62 0.001187
63 0.001189
64 0.001187
65 0.001171
66 0.001161
67 0.001150
68 0.001140
69 0.001133
70 0.001127
71 0.001125
72 0.001121
73 0.001113
74 0.001105
75 0.001098
76 0.001091
77 0.001091
78 0.001082
79 0.001076
80 0.001074
81 0.001075
82 0.001072
83 0.001075
84 0.001079
85 0.001069
86 0.001056
87 0.001041
88 0.001026
89 0.001012
90 0.001007
91 0.000999
92 0.000992
93 0.000988
94 0.000992
95 0.000997
96 0.000995
97 0.000990
98 0.000977
99 0.000958
100 0.000942
101 0.000914
102 0.000892
103 0.000879
104 0.000870
105 0.000858
106 0.000844
107 0.000843
108 0.000840
109 0.000840
110 0.000849
111 0.000865
112 0.000872
113 0.000883
114 0.000886
115 0.000881
116 0.000879
117 0.000868
118 0.000860
119 0.000848
120 0.000831
121 0.000814
122 0.000804
123 0.000807
124 0.000818
125 0.000825
126 0.000838
127 0.000843
128 0.000842
129 0.000840
130 0.000836
131 0.000833
132 0.000832
133 0.000832
134 0.000838
135 0.000843
136 0.000852
137 0.000854
138 0.000852
139 0.000856
140 0.000852
141 0.000837
142 0.000831
143 0.000827
144 0.000832
145 0.000840
146 0.000846
147 0.000867
148 0.000883
149 0.000893
150 0.000887
151 0.000879
152 0.000867
153 0.000856
154 0.000849
155 0.000840
156 0.000832
157 0.000839
158 0.000850
159 0.000850
160 0.000844
161 0.000844
162 0.000843
163 0.000845
164 0.000842
165 0.000834
166 0.000831
167 0.000830
168 0.000832
169 0.000834
170 0.000832
171 0.000823
172 0.000806
173 0.000779
174 0.000750
175 0.000738
176 0.000725
177 0.000717
178 0.000721
179 0.000719
180 0.000721
181 0.000724
182 0.000730
183 0.000733
184 0.000733
185 0.000728
186 0.000717
187 0.000700
188 0.000691
189 0.000679
190 0.000673
191 0.000670
192 0.000669
193 0.000670
194 0.000677
195 0.000681
196 0.000684
197 0.000694
198 0.000709
199 0.000722
200 0.000734
201 0.000740
202 0.000743
203 0.000746
204 0.000741
205 0.000736
206 0.000729
207 0.000724
208 0.000724
209 0.000722
210 0.000719
211 0.000723
212 0.000721
213 0.000724
214 0.000731
215 0.000733
216 0.000733
217 0.000734
218 0.000730
219 0.000720
220 0.000726
221 0.000736
222 0.000742
223 0.000739
224 0.000733
225 0.000729
226 0.000723
227 0.000726
228 0.000728
229 0.000731
230 0.000735
231 0.000745
232 0.000743
233 0.000746
234 0.000749
235 0.000753
236 0.000759
237 0.000762
238 0.000763
239 0.000756
240 0.000741
241 0.000730
242 0.000736
243 0.000743
244 0.000743
245 0.000733
246 0.000721
247 0.000713
248 0.000703
249 0.000694
250 0.000684
251 0.000673
252 0.000672
253 0.000671
254 0.000676
255 0.000675
256 0.000671
257 0.000659
258 0.000656
259 0.000657
260 0.000669
261 0.000678
262 0.000682
263 0.000680
264 0.000678
265 0.000674
266 0.000664
267 0.000653
268 0.000638
269 0.000621
270 0.000611
271 0.000605
272 0.000598
273 0.000598
274 0.000603
275 0.000612
276 0.000610
277 0.000611
278 0.000608
279 0.000605
280 0.000601
281 0.000599
282 0.000593
283 0.000590
284 0.000589
285 0.000586
286 0.000589
287 0.000591
288 0.000594
289 0.000592
290 0.000580
291 0.000570
292 0.000561
293 0.000557
294 0.000558
295 0.000567
296 0.000581
297 0.000596
298 0.000598
299 0.000581
300 0.000557
301 0.000538
302 0.000526
303 0.000513
304 0.000506
305 0.000504
306 0.000508
307 0.000509
308 0.000508
309 0.000494
310 0.000488
311 0.000483
312 0.000482
313 0.000472
314 0.000464
315 0.000460
316 0.000460
317 0.000462
318 0.000460
319 0.000458
320 0.000456
321 0.000455
322 0.000445
323 0.000442
324 0.000442
325 0.000446
326 0.000443
327 0.000447
328 0.000450
329 0.000450
330 0.000458
331 0.000460
332 0.000457
333 0.000461
334 0.000462
335 0.000458
336 0.000444
337 0.000431
338 0.000429
339 0.000433
340 0.000432
341 0.000438
342 0.000442
343 0.000440
344 0.000434
345 0.000424
346 0.000424
347 0.000428
348 0.000430
349 0.000426
350 0.000425
351 0.000425
352 0.000419
353 0.000406
354 0.000395
355 0.000377
356 0.000358
357 0.000349
358 0.000338
359 0.000325
360 0.000322
361 0.000320
362 0.000323
363 0.000321
364 0.000316
365 0.000323
366 0.000327
367 0.000337
368 0.000344
369 0.000355
370 0.000366
371 0.000376
372 0.000376
373 0.000372
374 0.000362
375 0.000352
376 0.000338
377 0.000320
378 0.000307
379 0.000298
380 0.000292
381 0.000286
382 0.000278
383 0.000278
384 0.000278
385 0.000276
386 0.000279
387 0.000287
388 0.000298
389 0.000313
390 0.000322
391 0.000330
392 0.000334
393 0.000340
394 0.000341
395 0.000340
396 0.000348
397 0.000358
398 0.000372
399 0.000384
400 0.000397
401 0.000411
402 0.000424
403 0.000432
404 0.000437
405 0.000443
406 0.000451
407 0.000456
408 0.000453
409 0.000451
410 0.000444
411 0.000445
412 0.000442
413 0.000435
414 0.000430
415 0.000424
416 0.000422
417 0.000414
418 0.000411
419 0.000413
420 0.000416
421 0.000425
422 0.000433
423 0.000444
424 0.000453
425 0.000465
426 0.000474
427 0.000469
428 0.000469
429 0.000470
430 0.000472
431 0.000477
432 0.000480
433 0.000486
434 0.000492
435 0.000496
436 0.000499
437 0.000497
438 0.000496
439 0.000486
440 0.000469
441 0.000455
442 0.000449
443 0.000449
444 0.000454
445 0.000466
446 0.000483
447 0.000497
448 0.000498
449 0.000494
450 0.000493
451 0.000492
452 0.000501
453 0.000510
454 0.000508
455 0.000515
456 0.000518
457 0.000516
458 0.000518
459 0.000525
460 0.000526
461 0.000524
462 0.000516
463 0.000509
464 0.000507
465 0.000515
466 0.000520
467 0.000525
468 0.000526
469 0.000523
470 0.000522
471 0.000510
472 0.000498
473 0.000481
474 0.000470
475 0.000465
476 0.000461
477 0.000456
478 0.000469
479 0.000480
480 0.000494
481 0.000504
482 0.000514
483 0.000528
484 0.000533
485 0.000541
486 0.000550
487 0.000559
488 0.000565
489 0.000566
490 0.000562
491 0.000565
492 0.000558
493 0.000546
494 0.000533
495 0.000524
496 0.000519
497 0.000517
498 0.000513
499 0.000514
500 0.000510
501 0.000504
502 0.000503
503 0.000496
504 0.000489
505 0.000486
506 0.000477
507 0.000465
508 0.000454
509 0.000454
510 0.000454
511 0.000450
512 0.000442
513 0.000432
514 0.000426
515 0.000428
516 0.000425
517 0.000423
518 0.000420
519 0.000421
520 0.000418
521 0.000414
522 0.000410
523 0.000406
524 0.000401
525 0.000394
526 0.000390
527 0.000382
528 0.000374
529 0.000368
530 0.000367
531 0.000362
532 0.000359
533 0.000356
534 0.000353
535 0.000351
536 0.000348
537 0.000345
538 0.000345
539 0.000343
540 0.000345
541 0.000354
542 0.000363
543 0.000364
544 0.000362
545 0.000357
546 0.000350
547 0.000347
548 0.000348
549 0.000353
550 0.000363
551 0.000373
552 0.000374
553 0.000365
554 0.000356
555 0.000347
556 0.000342
557 0.000336
558 0.000331
559 0.000331
560 0.000327
561 0.000324
562 0.000326
563 0.000333
564 0.000336
565 0.000336
566 0.000341
567 0.000341
568 0.000341
569 0.000342
570 0.000340
571 0.000341
572 0.000343
573 0.000339
574 0.000333
575 0.000325
576 0.000313
577 0.000308
578 0.000303
579 0.000301
580 0.000294
581 0.000291
582 0.000289
583 0.000292
584 0.000297
585 0.000305
586 0.000302
587 0.000299
588 0.000286
589 0.000274
590 0.000260
591 0.000250
592 0.000243
593 0.000241
594 0.000249
595 0.000253
596 0.000254
597 0.000249
598 0.000244
599 0.000243
600 0.000242
601 0.000243
602 0.000246
603 0.000249
604 0.000255
605 0.000260
606 0.000267
607 0.000275
608 0.000279
609 0.000283
610 0.000289
611 0.000287
612 0.000286
613 0.000285
614 0.000293
615 0.000295
616 0.000300
617 0.000301
618 0.000304
619 0.000309
620 0.000307
621 0.000307
622 0.000304
623 0.000299
624 0.000293
625 0.000292
626 0.000289
627 0.000288
628 0.000291
629 0.000290
630 0.000292
631 0.000293
632 0.000293
633 0.000291
634 0.000286
635 0.000288
636 0.000296
637 0.000307
638 0.000316
639 0.000320
640 0.000316
641 0.000307
642 0.000295
643 0.000288
644 0.000281
645 0.000273
646 0.000269
647 0.000270
648 0.000272
649 0.000278
650 0.000282
651 0.000284
652 0.000277
653 0.000274
654 0.000273
655 0.000272
656 0.000270
657 0.000261
658 0.000259
659 0.000252
660 0.000240
661 0.000229
662 0.000222
663 0.000221
664 0.000223
665 0.000220
666 0.000222
667 0.000228
668 0.000236
669 0.000240
670 0.000239
671 0.000238
672 0.000230
673 0.000225
674 0.000221
675 0.000217
676 0.000209
677 0.000206
678 0.000207
679 0.000207
680 0.000207
681 0.000212
682 0.000218
683 0.000224
684 0.000229
685 0.000233
686 0.000234
687 0.000233
688 0.000233
689 0.000232
690 0.000234
691 0.000234
692 0.000234
693 0.000237
694 0.000244
695 0.000252
696 0.000260
697 0.000265
698 0.000272
699 0.000282
700 0.000284
701 0.000289
702 0.000290
703 0.000291
704 0.000289
705 0.000288
706 0.000285
707 0.000287
708 0.000292
709 0.000295
710 0.000299
711 0.000297
712 0.000293
713 0.000293
714 0.000299
715 0.000299
716 0.000294
717 0.000293
718 0.000292
719 0.000291
720 0.000289
721 0.000290
722 0.000288
723 0.000289
724 0.000289
725 0.000284
726 0.000281
727 0.000276
728 0.000271
729 0.000262
730 0.000259
731 0.000252
732 0.000247
733 0.000246
734 0.000246
735 0.000246
736 0.000247
737 0.000248
738 0.000242
739 0.000234
740 0.000227
741 0.000226
742 0.000225
743 0.000225
744 0.000223
745 0.000219
746 0.000216
747 0.000210
748 0.000208
749 0.000209
750 0.000210
751 0.000212
752 0.000208
753 0.000208
754 0.000207
755 0.000204
756 0.000198
757 0.000189
758 0.000177
759 0.000163
760 0.000155
761 0.000145
762 0.000137
763 0.000132
764 0.000132
765 0.000135
766 0.000137
767 0.000136
768 0.000134
769 0.000135
770 0.000134
771 0.000135
772 0.000136
773 0.000141
774 0.000137
775 0.000132
776 0.000129
777 0.000131
778 0.000133
779 0.000136
780 0.000145
781 0.000143
782 0.000139
783 0.000135
784 0.000130
785 0.000126
786 0.000123
787 0.000118
788 0.000116
789 0.000109
790 0.000100
791 0.000092
792 0.000081
793 0.000074
794 0.000069
795 0.000065
796 0.000061
797 0.000053
798 0.000046
799 0.000037
800 0.000028
801 0.000022
802 0.000020
803 0.000021
804 0.000018
805 0.000017
806 0.000018
807 0.000022
808 0.000023
809 0.000022
