# i correlation
1 0.002012
2 0.001932
3 0.001865
4 0.001805
5 0.001748
6 0.001706
7 0.001676
8 0.001650
9 0.001623
10 0.001600
11 0.001580
12 0.001566
13 0.001558
14 0.001553
15 0.001547
16 0.001539
17 0.001528
18 0.001520
19 0.001508
20 0.001496
21 0.001483
22 0.001465
23 0.001446
24 0.001442
25 0.001439
26 0.001435
27 0.001431
28 0.001434
29 0.001436
30 0.001434
31 0.001423
32 0.001420
33 0.001421
34 0.001417
35 0.001413
36 0.001397
37 0.001387
38 0.001378
39 0.001370
40 0.001358
41 0.001347
42 0.001339
43 0.001336
44 0.001329
45 0.001337
46 0.001338
47 0.001334
48 0.001323
49 0.001317
50 0.001301
51 0.001284
52 0.001270
53 0.001256
54 0.001241
55 0.001227
56 0.001208
57 0.001199
58 0.001187
59 0.001178
60 0.001176
61 0.001185
62 0.001199
63 0.001208
64 0.001211
65 0.001214
66 0.001216
67 0.001212
68 0.001199
69 0.001190
70 0.001180
71 0.001171
72 0.001152
73 0.001140
74 0.001133
75 0.001134
76 0.001138
77 0.001136
78 0.001142
79 0.001143
80 0.001137
81 0.001129
82 0.001117
83 0.001102
84 0.001087
85 0.001084
86 0.001082
87 0.001080
88 0.001069
89 0.001052
90 0.001046
91 0.001046
92 0.001037
93 0.001031
94 0.001027
95 0.001027
96 0.001024
97 0.001019
98 0.001008
99 0.000992
100 0.000977
101 0.000954
102 0.000931
103 0.000912
104 0.000904
105 0.000897
106 0.000890
107 0.000883
108 0.000873
109 0.000867
110 0.000865
111 0.000864
112 0.000863
113 0.000864
114 0.000866
115 0.000875
116 0.000883
117 0.000884
118 0.000875
119 0.000872
120 0.000862
121 0.000851
122 0.000838
123 0.000830
124 0.000825
125 0.000826
126 0.000825
127 0.000813
128 0.000815
129 0.000810
130 0.000814
131 0.000813
132 0.000824
133 0.000834
134 0.000839
135 0.000831
136 0.000822
137 0.000820
138 0.000814
139 0.000805
140 0.000809
141 0.000810
142 0.000808
143 0.000807
144 0.000807
145 0.000802
146 0.000796
147 0.000790
148 0.000789
149 0.000787
150 0.000785
151 0.000775
152 0.000763
153 0.000760
154 0.000761
155 0.000752
156 0.000752
157 0.000755
158 0.000770
159 0.000776
160 0.000784
161 0.000795
162 0.000804
163 0.000806
164 0.000806
165 0.000802
166 0.000797
167 0.000788
168 0.000776
169 0.000758
170 0.000741
171 0.000725
172 0.000713
173 0.000710
174 0.000709
175 0.000714
176 0.000720
177 0.000732
178 0.000732
179 0.000727
180 0.000719
181 0.000710
182 0.000704
183 0.000698
184 0.000692
185 0.000680
186 0.000674
187 0.000662
188 0.000654
189 0.000648
190 0.000642
191 0.000645
192 0.000654
193 0.000661
194 0.000664
195 0.000683
196 0.000693
197 0.000697
198 0.000690
199 0.000681
200 0.000669
201 0.000659
202 0.000654
203 0.000654
204 0.000648
205 0.000640
206 0.000630
207 0.000625
208 0.000613
209 0.000605
210 0.000609
211 0.000612
212 0.000619
213 0.000622
214 0.000612
215 0.000601
216 0.000590
217 0.000577
218 0.000562
219 0.000556
220 0.000556
221 0.000559
222 0.000569
223 0.000576
224 0.000586
225 0.000597
226 0.000601
227 0.000607
228 0.000609
229 0.000614
230 0.000614
231 0.000613
232 0.000613
233 0.000612
234 0.000607
235 0.000603
236 0.000597
237 0.000589
238 0.000588
239 0.000590
240 0.000598
241 0.000607
242 0.000610
243 0.000610
244 0.000611
245 0.000622
246 0.000628
247 0.000630
248 0.000627
249 0.000621
250 0.000620
251 0.000611
252 0.000600
253 0.000592
254 0.000584
255 0.000588
256 0.000592
257 0.000594
258 0.000604
259 0.000615
260 0.000620
261 0.000615
262 0.000608
263 0.000596
264 0.000586
265 0.000576
266 0.000563
267 0.000560
268 0.000555
269 0.000540
270 0.000534
271 0.000528
272 0.000527
273 0.000524
274 0.000526
275 0.000531
276 0.000534
277 0.000535
278 0.000538
279 0.000532
280 0.000521
281 0.000514
282 0.000509
283 0.000498
284 0.000486
285 0.000472
286 0.000458
287 0.000445
288 0.000442
289 0.000439
290 0.000433
291 0.000427
292 0.000424
293 0.000420
294 0.000418
295 0.000421
296 0.000424
297 0.000430
298 0.000441
299 0.000448
300 0.000452
301 0.000449
302 0.000448
303 0.000444
304 0.000433
305 0.000423
306 0.000408
307 0.000402
308 0.000399
309 0.000394
310 0.000397
311 0.000397
312 0.000400
313 0.000407
314 0.000414
315 0.000415
316 0.000412
317 0.000415
318 0.000413
319 0.000406
320 0.000402
321 0.000406
322 0.000410
323 0.000409
324 0.000404
325 0.000405
326 0.000408
327 0.000409
328 0.000415
329 0.000415
330 0.000407
331 0.000400
332 0.000398
333 0.000394
334 0.000388
335 0.000387
336 0.000386
337 0.000386
338 0.000394
339 0.000400
340 0.000402
341 0.000401
342 0.000397
343 0.000394
344 0.000386
345 0.000381
346 0.000375
347 0.000369
348 0.000355
349 0.000335
350 0.000323
351 0.000313
352 0.000308
353 0.000308
354 0.000312
355 0.000315
356 0.000314
357 0.000316
358 0.000316
359 0.000325
360 0.000338
361 0.000335
362 0.000333
363 0.000330
364 0.000328
365 0.000328
366 0.000331
367 0.000334
368 0.000328
369 0.000316
370 0.000302
371 0.000286
372 0.000278
373 0.000279
374 0.000283
375 0.000291
376 0.000293
377 0.000293
378 0.000291
379 0.000292
380 0.000293
381 0.000286
382 0.000278
383 0.000271
384 0.000267
385 0.000263
386 0.000256
387 0.000254
388 0.000265
389 0.000279
390 0.000292
391 0.000300
392 0.000316
393 0.000334
394 0.000349
395 0.000361
396 0.000362
397 0.000357
398 0.000351
399 0.000350
400 0.000345
401 0.000340
402 0.000338
403 0.000334
404 0.000340
405 0.000348
406 0.000350
407 0.000347
408 0.000345
409 0.000343
410 0.000339
411 0.000326
412 0.000320
413 0.000317
414 0.000312
415 0.000304
416 0.000295
417 0.000287
418 0.000282
419 0.000281
420 0.000286
421 0.000290
422 0.000298
423 0.000310
424 0.000321
425 0.000332
426 0.000344
427 0.000344
428 0.000343
429 0.000341
430 0.000337
431 0.000330
432 0.000330
433 0.000334
434 0.000337
435 0.000331
436 0.000326
437 0.000315
438 0.000317
439 0.000318
440 0.000316
441 0.000314
442 0.000311
443 0.000306
444 0.000303
445 0.000302
446 0.000296
447 0.000287
448 0.000273
449 0.000259
450 0.000246
451 0.000236
452 0.000225
453 0.000224
454 0.000222
455 0.000222
456 0.000219
457 0.000218
458 0.000227
459 0.000234
460 0.000247
461 0.000256
462 0.000266
463 0.000275
464 0.000274
465 0.000276
466 0.000277
467 0.000277
468 0.000280
469 0.000282
470 0.000287
471 0.000291
472 0.000295
473 0.000303
474 0.000312
475 0.000323
476 0.000328
477 0.000326
478 0.000317
479 0.000316
480 0.000318
481 0.000317
482 0.000309
483 0.000307
484 0.000303
485 0.000302
486 0.000298
487 0.000295
488 0.000295
489 0.000293
490 0.000293
491 0.000302
492 0.000310
493 0.000316
494 0.000319
495 0.000320
496 0.000316
497 0.000308
498 0.000300
499 0.000293
500 0.000293
501 0.000296
502 0.000293
503 0.000289
504 0.000284
505 0.000284
506 0.000282
507 0.000279
508 0.000283
509 0.000292
510 0.000305
511 0.000313
512 0.000322
513 0.000330
514 0.000338
515 0.000342
516 0.000344
517 0.000346
518 0.000349
519 0.000341
520 0.000339
521 0.000336
522 0.000334
523 0.000333
524 0.000338
525 0.000338
526 0.000341
527 0.000345
528 0.000348
529 0.000347
530 0.000349
531 0.000343
532 0.000337
533 0.000327
534 0.000319
535 0.000312
536 0.000314
537 0.000314
538 0.000321
539 0.000329
540 0.000332
541 0.000333
542 0.000335
543 0.000339
544 0.000338
545 0.000334
546 0.000334
547 0.000323
548 0.000311
549 0.000302
550 0.000297
551 0.000289
552 0.000280
553 0.000277
554 0.000277
555 0.000285
556 0.000288
557 0.000295
558 0.000305
559 0.000311
560 0.000319
561 0.000325
562 0.000330
563 0.000335
564 0.000339
565 0.000337
566 0.000336
567 0.000336
568 0.000331
569 0.000327
570 0.000325
571 0.000320
572 0.000316
573 0.000315
574 0.000309
575 0.000301
576 0.000294
577 0.000290
578 0.000288
579 0.000292
580 0.000289
581 0.000291
582 0.000290
583 0.000287
584 0.000286
585 0.000282
586 0.000280
587 0.000282
588 0.000287
589 0.000289
590 0.000292
591 0.000296
592 0.000303
593 0.000303
594 0.000299
595 0.000293
596 0.000285
597 0.000275
598 0.000270
599 0.000270
600 0.000279
601 0.000286
602 0.000290
603 0.000294
604 0.000293
605 0.000292
606 0.000294
607 0.000298
608 0.000301
609 0.000303
610 0.000303
611 0.000303
612 0.000304
613 0.000301
614 0.000295
615 0.000289
616 0.000285
617 0.000287
618 0.000283
619 0.000281
620 0.000280
621 0.000278
622 0.000274
623 0.000266
624 0.000262
625 0.000260
626 0.000259
627 0.000257
628 0.000255
629 0.000255
630 0.000255
631 0.000255
632 0.000247
633 0.000245
634 0.000245
635 0.000252
636 0.000259
637 0.000263
638 0.000262
639 0.000260
640 0.000259
641 0.000259
642 0.000258
643 0.000257
644 0.000254
645 0.000249
646 0.000246
647 0.000240
648 0.000233
649 0.000232
650 0.000233
651 0.000234
652 0.000238
653 0.000239
654 0.000245
655 0.000253
656 0.000260
657 0.000267
658 0.000273
659 0.000274
660 0.000278
661 0.000276
662 0.000276
663 0.000272
664 0.000269
665 0.000273
666 0.000277
667 0.000279
668 0.000279
669 0.000283
670 0.000287
671 0.000291
672 0.000294
673 0.000293
674 0.000294
675 0.000293
676 0.000294
677 0.000295
678 0.000296
679 0.000298
680 0.000303
681 0.000304
682 0.000304
683 0.000303
684 0.000299
685 0.000289
686 0.000283
687 0.000282
688 0.000286
689 0.000284
690 0.000282
691 0.000280
692 0.000278
693 0.000275
694 0.000271
695 0.000272
696 0.000271
697 0.000271
698 0.000274
699 0.000273
700 0.000270
701 0.000267
702 0.000267
703 0.000265
704 0.000268
705 0.000273
706 0.000276
707 0.000279
708 0.000278
709 0.000277
710 0.000271
711 0.000267
712 0.000264
713 0.000262
714 0.000256
715 0.000251
716 0.000248
717 0.000247
718 0.000247
719 0.000246
720 0.000249
721 0.000256
722 0.000259
723 0.000263
724 0.000261
725 0.000260
726 0.000258
727 0.000260
728 0.000265
729 0.000263
730 0.000260
731 0.000256
732 0.000251
733 0.000250
734 0.000251
735 0.000251
736 0.000251
737 0.000250
738 0.000246
739 0.000239
740 0.000236
741 0.000233
742 0.000232
743 0.000230
744 0.000227
745 0.000226
746 0.000223
747 0.000218
748 0.000216
749 0.000211
750 0.000210
751 0.000210
752 0.000214
753 0.000216
754 0.000216
755 0.000213
756 0.000211
757 0.000205
758 0.000202
759 0.000203
760 0.000204
761 0.000208
762 0.000210
763 0.000211
764 0.000207
765 0.000206
766 0.000204
767 0.000205
768 0.000209
769 0.000213
770 0.000216
771 0.000213
772 0.000209
773 0.000207
774 0.000204
775 0.000201
776 0.000199
777 0.000198
778 0.000195
779 0.000191
780 0.000188
781 0.000179
782 0.000172
783 0.000170
784 0.000172
785 0.000176
786 0.000182
787 0.000187
788 0.000191
789 0.000195
790 0.000197
791 0.000202
792 0.000207
793 0.000211
794 0.000218
795 0.000223
796 0.000224
797 0.000224
798 0.000222
799 0.000223
800 0.000222
801 0.000219
802 0.000218
803 0.000220
804 0.000216
805 0.000213
806 0.000211
807 0.000206
808 0.000204
809 0.000203
