# i correlation
1 0.001551
2 0.001481
3 0.001428
4 0.001389
5 0.001352
6 0.001310
7 0.001278
8 0.001249
9 0.001225
10 0.001205
11 0.001189
12 0.001180
13 0.001170
14 0.001157
15 0.001140
16 0.001124
17 0.001112
18 0.001098
19 0.001083
20 0.001066
21 0.001051
22 0.001037
23 0.001027
24 0.001017
25 0.001004
26 0.001000
27 0.001005
28 0.001010
29 0.001005
30 0.000997
31 0.000991
32 0.000983
33 0.000979
34 0.000973
35 0.000973
36 0.000975
37 0.000973
38 0.000970
39 0.000961
40 0.000960
41 0.000954
42 0.000943
43 0.000933
44 0.000923
45 0.000915
46 0.000906
47 0.000889
48 0.000873
49 0.000871
50 0.000865
51 0.000858
52 0.000858
53 0.000856
54 0.000857
55 0.000853
56 0.000849
57 0.000839
58 0.000829
59 0.000824
60 0.000826
61 0.000824
62 0.000814
63 0.000815
64 0.000816
65 0.000825
66 0.000840
67 0.000844
68 0.000843
69 0.000847
70 0.000854
71 0.000866
72 0.000879
73 0.000888
74 0.000893
75 0.000889
76 0.000893
77 0.000895
78 0.000895
79 0.000892
80 0.000893
81 0.000891
82 0.000884
83 0.000874
84 0.000866
85 0.000862
86 0.000855
87 0.000842
88 0.000819
89 0.000802
90 0.000798
91 0.000797
92 0.000788
93 0.000788
94 0.000797
95 0.000802
96 0.000804
97 0.000803
98 0.000804
99 0.000804
100 0.000794
101 0.000781
102 0.000768
103 0.000763
104 0.000764
105 0.000760
106 0.000754
107 0.000754
108 0.000755
109 0.000759
110 0.000755
111 0.000746
112 0.000742
113 0.000738
114 0.000729
115 0.000717
116 0.000704
117 0.000692
118 0.000682
119 0.000675
120 0.000669
121 0.000667
122 0.000665
123 0.000660
124 0.000651
125 0.000640
126 0.000643
127 0.000648
128 0.000641
129 0.000631
130 0.000618
131 0.000607
132 0.000601
133 0.000582
134 0.000572
135 0.000563
136 0.000558
137 0.000559
138 0.000554
139 0.000563
140 0.000565
141 0.000561
142 0.000562
143 0.000560
144 0.000564
145 0.000570
146 0.000572
147 0.000577
148 0.000579
149 0.000582
150 0.000589
151 0.000593
152 0.000597
153 0.000601
154 0.000597
155 0.000595
156 0.000587
157 0.000583
158 0.000578
159 0.000578
160 0.000578
161 0.000574
162 0.000573
163 0.000575
164 0.000581
165 0.000576
166 0.000569
167 0.000565
168 0.000564
169 0.000560
170 0.000551
171 0.000546
172 0.000544
173 0.000537
174 0.000526
175 0.000522
176 0.000520
177 0.000520
178 0.000518
179 0.000513
180 0.000516
181 0.000517
182 0.000512
183 0.000508
184 0.000504
185 0.000503
186 0.000494
187 0.000488
188 0.000482
189 0.000477
190 0.000476
191 0.000475
192 0.000475
193 0.000475
194 0.000474
195 0.000477
196 0.000481
197 0.000478
198 0.000479
199 0.000484
200 0.000481
201 0.000478
202 0.000477
203 0.000478
204 0.000483
205 0.000482
206 0.000479
207 0.000475
208 0.000478
209 0.000474
210 0.000469
211 0.000461
212 0.000457
213 0.000457
214 0.000461
215 0.000458
216 0.000453
217 0.000449
218 0.000452
219 0.000458
220 0.000466
221 0.000470
222 0.000467
223 0.000466
224 0.000469
225 0.000470
226 0.000463
227 0.000452
228 0.000439
229 0.000429
230 0.000420
231 0.000408
232 0.000402
233 0.000408
234 0.000407
235 0.000399
236 0.000398
237 0.000394
238 0.000393
239 0.000389
240 0.000389
241 0.000392
242 0.000398
243 0.000405
244 0.000412
245 0.000414
246 0.000415
247 0.000419
248 0.000433
249 0.000442
250 0.000452
251 0.000459
252 0.000456
253 0.000457
254 0.000462
255 0.000466
256 0.000471
257 0.000470
258 0.000475
259 0.000477
260 0.000474
261 0.000470
262 0.000466
263 0.000463
264 0.000455
265 0.000447
266 0.000437
267 0.000424
268 0.000410
269 0.000398
270 0.000387
271 0.000377
272 0.000367
273 0.000354
274 0.000347
275 0.000342
276 0.000340
277 0.000338
278 0.000336
279 0.000346
280 0.000345
281 0.000341
282 0.000333
283 0.000322
284 0.000320
285 0.000319
286 0.000321
287 0.000315
288 0.000312
289 0.000311
290 0.000315
291 0.000314
292 0.000316
293 0.000314
294 0.000317
295 0.000321
296 0.000322
297 0.000317
298 0.000315
299 0.000314
300 0.000317
301 0.000319
302 0.000315
303 0.000316
304 0.000317
305 0.000323
306 0.000320
307 0.000321
308 0.000319
309 0.000314
310 0.000301
311 0.000294
312 0.000285
313 0.000274
314 0.000268
315 0.000269
316 0.000273
317 0.000283
318 0.000286
319 0.000301
320 0.000311
321 0.000323
322 0.000332
323 0.000339
324 0.000350
325 0.000352
326 0.000351
327 0.000357
328 0.000368
329 0.000376
330 0.000379
331 0.000388
332 0.000390
333 0.000392
334 0.000388
335 0.000392
336 0.000392
337 0.000384
338 0.000378
339 0.000368
340 0.000360
341 0.000356
342 0.000350
343 0.000338
344 0.000332
345 0.000331
346 0.000330
347 0.000326
348 0.000323
349 0.000323
350 0.000324
351 0.000327
352 0.000326
353 0.000331
354 0.000328
355 0.000328
356 0.000332
357 0.000335
358 0.000334
359 0.000333
360 0.000339
361 0.000342
362 0.000338
363 0.000334
364 0.000333
365 0.000333
366 0.000332
367 0.000325
368 0.000324
369 0.000326
370 0.000331
371 0.000335
372 0.000338
373 0.000340
374 0.000340
375 0.000338
376 0.000333
377 0.000330
378 0.000326
379 0.000316
380 0.000308
381 0.000302
382 0.000297
383 0.000299
384 0.000293
385 0.000293
386 0.000291
387 0.000294
388 0.000296
389 0.000294
390 0.000289
391 0.000286
392 0.000284
393 0.000284
394 0.000284
395 0.000285
396 0.000285
397 0.000282
398 0.000278
399 0.000277
400 0.000283
401 0.000291
402 0.000304
403 0.000310
404 0.000315
405 0.000326
406 0.000338
407 0.000348
408 0.000351
409 0.000357
410 0.000364
411 0.000367
412 0.000366
413 0.000369
414 0.000378
415 0.000383
416 0.000393
417 0.000393
418 0.000397
419 0.000399
420 0.000400
421 0.000399
422 0.000399
423 0.000396
424 0.000394
425 0.000383
426 0.000379
427 0.000375
428 0.000374
429 0.000383
430 0.000385
431 0.000388
432 0.000393
433 0.000392
434 0.000396
435 0.000400
436 0.000397
437 0.000389
438 0.000383
439 0.000372
440 0.000369
441 0.000365
442 0.000359
443 0.000361
444 0.000362
445 0.000359
446 0.000359
447 0.000362
448 0.000368
449 0.000375
450 0.000379
451 0.000377
452 0.000367
453 0.000360
454 0.000353
455 0.000350
456 0.000352
457 0.000354
458 0.000355
459 0.000358
460 0.000358
461 0.000355
462 0.000352
463 0.000350
464 0.000343
465 0.000333
466 0.000325
467 0.000318
468 0.000315
469 0.000310
470 0.000305
471 0.000301
472 0.000293
473 0.000284
474 0.000275
475 0.000263
476 0.000256
477 0.000248
478 0.000243
479 0.000237
480 0.000234
481 0.000238
482 0.000235
483 0.000240
484 0.000244
485 0.000244
486 0.000245
487 0.000246
488 0.000248
489 0.000241
490 0.000236
491 0.000230
492 0.000230
493 0.000226
494 0.000219
495 0.000215
496 0.000211
497 0.000208
498 0.000204
499 0.000203
500 0.000212
501 0.000221
502 0.000225
503 0.000226
504 0.000232
505 0.000234
506 0.000238
507 0.000232
508 0.000226
509 0.000233
510 0.000240
511 0.000237
512 0.000235
513 0.000237
514 0.000242
515 0.000254
516 0.000260
517 0.000266
518 0.000263
519 0.000263
520 0.000266
521 0.000266
522 0.000266
523 0.000269
524 0.000270
525 0.000266
526 0.000261
527 0.000259
528 0.000263
529 0.000265
530 0.000260
531 0.000252
532 0.000243
533 0.000236
534 0.000233
535 0.000228
536 0.000223
537 0.000224
538 0.000225
539 0.000223
540 0.000221
541 0.000220
542 0.000216
543 0.000210
544 0.000210
545 0.000207
546 0.000203
547 0.000199
548 0.000196
549 0.000191
550 0.000185
551 0.000178
552 0.000174
553 0.000173
554 0.000170
555 0.000173
556 0.000178
557 0.000179
558 0.000176
559 0.000172
560 0.000170
561 0.000170
562 0.000165
563 0.000160
564 0.000158
565 0.000158
566 0.000160
567 0.000158
568 0.000154
569 0.000153
570 0.000150
571 0.000143
572 0.000138
573 0.000134
574 0.000132
575 0.000133
576 0.000135
577 0.000140
578 0.000144
579 0.000148
580 0.000156
581 0.000162
582 0.000171
583 0.000180
584 0.000192
585 0.000200
586 0.000209
587 0.000216
588 0.000214
589 0.000213
590 0.000213
591 0.000214
592 0.000209
593 0.000208
594 0.000209
595 0.000212
596 0.000219
597 0.000224
598 0.000220
599 0.000216
600 0.000214
601 0.000217
602 0.000214
603 0.000210
604 0.000206
605 0.000198
606 0.000187
607 0.000182
608 0.000178
609 0.000177
610 0.000179
611 0.000179
612 0.000181
613 0.000191
614 0.000200
615 0.000209
616 0.000211
617 0.000208
618 0.000208
619 0.000212
620 0.000216
621 0.000218
622 0.000218
623 0.000222
624 0.000223
625 0.000228
626 0.000230
627 0.000232
628 0.000236
629 0.000235
630 0.000232
631 0.000231
632 0.000231
633 0.000232
634 0.000230
635 0.000227
636 0.000231
637 0.000229
638 0.000220
639 0.000217
640 0.000213
641 0.000207
642 0.000199
643 0.000195
644 0.000184
645 0.000170
646 0.000160
647 0.000152
648 0.000147
649 0.000140
650 0.000137
651 0.000139
652 0.000144
653 0.000145
654 0.000147
655 0.000148
656 0.000152
657 0.000157
658 0.000162
659 0.000168
660 0.000173
661 0.000172
662 0.000172
663 0.000172
664 0.000175
665 0.000177
666 0.000177
667 0.000180
668 0.000189
669 0.000199
670 0.000209
671 0.000211
672 0.000212
673 0.000217
674 0.000224
675 0.000230
676 0.000231
677 0.000234
678 0.000232
679 0.000234
680 0.000235
681 0.000235
682 0.000235
683 0.000232
684 0.000226
685 0.000219
686 0.000217
687 0.000216
688 0.000214
689 0.000213
690 0.000209
691 0.000209
692 0.000213
693 0.000213
694 0.000212
695 0.000215
696 0.000217
697 0.000218
698 0.000217
699 0.000215
700 0.000214
701 0.000213
702 0.000208
703 0.000202
704 0.000198
705 0.000199
706 0.000202
707 0.000203
708 0.000205
709 0.000208
710 0.000213
711 0.000213
712 0.000212
713 0.000211
714 0.000212
715 0.000209
716 0.000203
717 0.000194
718 0.000183
719 0.000179
720 0.000173
721 0.000166
722 0.000158
723 0.000151
724 0.000152
725 0.000152
726 0.000152
727 0.000151
728 0.000151
729 0.000155
730 0.000153
731 0.000151
732 0.000144
733 0.000140
734 0.000136
735 0.000136
736 0.000136
737 0.000139
738 0.000140
739 0.000144
740 0.000149
741 0.000156
742 0.000164
743 0.000172
744 0.000176
745 0.000172
746 0.000170
747 0.000170
748 0.000170
749 0.000168
750 0.000164
751 0.000163
752 0.000162
753 0.000160
754 0.000157
755 0.000157
756 0.000155
757 0.000157
758 0.000156
759 0.000154
760 0.000153
761 0.000146
762 0.000142
763 0.000137
764 0.000133
765 0.000132
766 0.000131
767 0.000133
768 0.000135
769 0.000134
770 0.000132
771 0.000133
772 0.000133
773 0.000135
774 0.000136
775 0.000135
776 0.000133
777 0.000129
778 0.000127
779 0.000127
780 0.000132
781 0.000134
782 0.000138
783 0.000139
784 0.000136
785 0.000134
786 0.000135
787 0.000137
788 0.000138
789 0.000140
790 0.000139
791 0.000137
792 0.000132
793 0.000127
794 0.000120
795 0.000117
796 0.000115
797 0.000112
798 0.000108
799 0.000103
800 0.000099
801 0.000095
802 0.000089
803 0.000082
804 0.000077
805 0.000075
806 0.000074
807 0.000073
808 0.000070
809 0.000073
