# i correlation
1 0.001842
2 0.001760
3 0.001685
4 0.001632
5 0.001590
6 0.001542
7 0.001494
8 0.001457
9 0.001425
10 0.001394
11 0.001374
12 0.001337
13 0.001314
14 0.001299
15 0.001294
16 0.001295
17 0.001296
18 0.001296
19 0.001294
20 0.001292
21 0.001280
22 0.001271
23 0.001255
24 0.001240
25 0.001235
26 0.001231
27 0.001226
28 0.001216
29 0.001208
30 0.001207
31 0.001195
32 0.001177
33 0.001155
34 0.001135
35 0.001119
36 0.001107
37 0.001092
38 0.001080
39 0.001068
40 0.001065
41 0.001069
42 0.001064
43 0.001059
44 0.001057
45 0.001055
46 0.001055
47 0.001052
48 0.001048
49 0.001041
50 0.001033
51 0.001035
52 0.001042
53 0.001046
54 0.001036
55 0.001030
56 0.001019
57 0.001014
58 0.001010
59 0.001002
60 0.000998
61 0.000990
62 0.000986
63 0.000976
64 0.000956
65 0.000931
66 0.000912
67 0.000900
68 0.000892
69 0.000883
70 0.000873
71 0.000868
72 0.000857
73 0.000855
74 0.000835
75 0.000828
76 0.000821
77 0.000811
78 0.000805
79 0.000796
80 0.000791
81 0.000781
82 0.000770
83 0.000758
84 0.000755
85 0.000748
86 0.000740
87 0.000728
88 0.000719
89 0.000719
90 0.000718
91 0.000707
92 0.000702
93 0.000703
94 0.000704
95 0.000697
96 0.000689
97 0.000675
98 0.000667
99 0.000655
100 0.000648
101 0.000639
102 0.000628
103 0.000623
104 0.000616
105 0.000611
106 0.000609
107 0.000608
108 0.000606
109 0.000610
110 0.000612
111 0.000616
112 0.000620
113 0.000630
114 0.000645
115 0.000652
116 0.000655
117 0.000653
118 0.000647
119 0.000642
120 0.000639
121 0.000631
122 0.000627
123 0.000622
124 0.000618
125 0.000615
126 0.000615
127 0.000601
128 0.000598
129 0.000592
130 0.000593
131 0.000598
132 0.000591
133 0.000591
134 0.000585
135 0.000582
136 0.000581
137 0.000574
138 0.000568
139 0.000560
140 0.000547
141 0.000548
142 0.000547
143 0.000550
144 0.000556
145 0.000553
146 0.000559
147 0.000561
148 0.000556
149 0.000553
150 0.000543
151 0.000533
152 0.000515
153 0.000498
154 0.000492
155 0.000497
156 0.000497
157 0.000497
158 0.000492
159 0.000485
160 0.000481
161 0.000483
162 0.000488
163 0.000493
164 0.000491
165 0.000488
166 0.000494
167 0.000503
168 0.000504
169 0.000504
170 0.000494
171 0.000480
172 0.000470
173 0.000461
174 0.000454
175 0.000450
176 0.000453
177 0.000461
178 0.000461
179 0.000460
180 0.000460
181 0.000462
182 0.000467
183 0.000476
184 0.000475
185 0.000479
186 0.000489
187 0.000504
188 0.000522
189 0.000540
190 0.000547
191 0.000549
192 0.000555
193 0.000563
194 0.000573
195 0.000573
196 0.000570
197 0.000571
198 0.000570
199 0.000577
200 0.000580
201 0.000575
202 0.000570
203 0.000571
204 0.000579
205 0.000579
206 0.000585
207 0.000592
208 0.000604
209 0.000616
210 0.000619
211 0.000619
212 0.000612
213 0.000612
214 0.000612
215 0.000615
216 0.000622
217 0.000623
218 0.000616
219 0.000608
220 0.000608
221 0.000602
222 0.000599
223 0.000588
224 0.000573
225 0.000557
226 0.000544
227 0.000531
228 0.000517
229 0.000508
230 0.000507
231 0.000509
232 0.000503
233 0.000495
234 0.000493
235 0.000499
236 0.000504
237 0.000518
238 0.000530
239 0.000547
240 0.000565
241 0.000583
242 0.000596
243 0.000602
244 0.000601
245 0.000597
246 0.000588
247 0.000578
248 0.000578
249 0.000578
250 0.000578
251 0.000574
252 0.000577
253 0.000581
254 0.000580
255 0.000577
256 0.000588
257 0.000604
258 0.000616
259 0.000625
260 0.000632
261 0.000644
262 0.000657
263 0.000664
264 0.000666
265 0.000662
266 0.000659
267 0.000652
268 0.000636
269 0.000624
270 0.000616
271 0.000610
272 0.000604
273 0.000592
274 0.000578
275 0.000569
276 0.000556
277 0.000550
278 0.000543
279 0.000537
280 0.000535
281 0.000527
282 0.000525
283 0.000524
284 0.000524
285 0.000513
286 0.000505
287 0.000496
288 0.000487
289 0.000488
290 0.000488
291 0.000479
292 0.000480
293 0.000481
294 0.000488
295 0.000486
296 0.000482
297 0.000478
298 0.000478
299 0.000472
300 0.000471
301 0.000466
302 0.000461
303 0.000458
304 0.000450
305 0.000445
306 0.000439
307 0.000432
308 0.000418
309 0.000406
310 0.000402
311 0.000402
312 0.000409
313 0.000410
314 0.000412
315 0.000411
316 0.000419
317 0.000421
318 0.000424
319 0.000427
320 0.000432
321 0.000430
322 0.000424
323 0.000419
324 0.000418
325 0.000419
326 0.000411
327 0.000400
328 0.000384
329 0.000370
330 0.000369
331 0.000363
332 0.000357
333 0.000348
334 0.000339
335 0.000337
336 0.000333
337 0.000332
338 0.000327
339 0.000312
340 0.000289
341 0.000271
342 0.000257
343 0.000243
344 0.000230
345 0.000216
346 0.000210
347 0.000208
348 0.000208
349 0.000201
350 0.000199
351 0.000192
352 0.000193
353 0.000192
354 0.000189
355 0.000193
356 0.000196
357 0.000201
358 0.000199
359 0.000204
360 0.000205
361 0.000206
362 0.000195
363 0.000189
364 0.000183
365 0.000188
366 0.000187
367 0.000189
368 0.000185
369 0.000175
370 0.000166
371 0.000164
372 0.000171
373 0.000178
374 0.000180
375 0.000180
376 0.000188
377 0.000196
378 0.000206
379 0.000213
380 0.000214
381 0.000206
382 0.000202
383 0.000202
384 0.000197
385 0.000185
386 0.000181
387 0.000180
388 0.000180
389 0.000180
390 0.000168
391 0.000162
392 0.000160
393 0.000164
394 0.000171
395 0.000173
396 0.000178
397 0.000186
398 0.000195
399 0.000193
400 0.000194
401 0.000186
402 0.000175
403 0.000176
404 0.000179
405 0.000187
406 0.000189
407 0.000189
408 0.000195
409 0.000199
410 0.000197
411 0.000196
412 0.000198
413 0.000198
414 0.000199
415 0.000191
416 0.000186
417 0.000176
418 0.000167
419 0.000162
420 0.000163
421 0.000160
422 0.000153
423 0.000154
424 0.000163
425 0.000173
426 0.000183
427 0.000195
428 0.000204
429 0.000212
430 0.000221
431 0.000230
432 0.000237
433 0.000235
434 0.000230
435 0.000229
436 0.000225
437 0.000218
438 0.000216
439 0.000215
440 0.000214
441 0.000208
442 0.000201
443 0.000195
444 0.000194
445 0.000192
446 0.000198
447 0.000200
448 0.000196
449 0.000200
450 0.000201
451 0.000213
452 0.000220
453 0.000228
454 0.000228
455 0.000234
456 0.000240
457 0.000251
458 0.000256
459 0.000259
460 0.000262
461 0.000271
462 0.000275
463 0.000269
464 0.000257
465 0.000243
466 0.000241
467 0.000243
468 0.000244
469 0.000249
470 0.000252
471 0.000254
472 0.000255
473 0.000262
474 0.000271
475 0.000278
476 0.000283
477 0.000283
478 0.000280
479 0.000281
480 0.000285
481 0.000289
482 0.000290
483 0.000294
484 0.000291
485 0.000283
486 0.000270
487 0.000259
488 0.000246
489 0.000236
490 0.000225
491 0.000222
492 0.000216
493 0.000222
494 0.000228
495 0.000232
496 0.000234
497 0.000240
498 0.000247
499 0.000258
500 0.000268
501 0.000276
502 0.000286
503 0.000294
504 0.000312
505 0.000328
506 0.000341
507 0.000353
508 0.000356
509 0.000360
510 0.000366
511 0.000375
512 0.000377
513 0.000376
514 0.000380
515 0.000388
516 0.000392
517 0.000388
518 0.000383
519 0.000380
520 0.000386
521 0.000389
522 0.000396
523 0.000400
524 0.000411
525 0.000419
526 0.000428
527 0.000435
528 0.000438
529 0.000444
530 0.000446
531 0.000441
532 0.000434
533 0.000431
534 0.000431
535 0.000435
536 0.000437
537 0.000440
538 0.000442
539 0.000443
540 0.000440
541 0.000438
542 0.000442
543 0.000439
544 0.000435
545 0.000431
546 0.000430
547 0.000425
548 0.000417
549 0.000405
550 0.000394
551 0.000386
552 0.000382
553 0.000381
554 0.000376
555 0.000380
556 0.000383
557 0.000383
558 0.000382
559 0.000384
560 0.000392
561 0.000393
562 0.000393
563 0.000394
564 0.000400
565 0.000401
566 0.000404
567 0.000409
568 0.000412
569 0.000415
570 0.000414
571 0.000411
572 0.000408
573 0.000404
574 0.000401
575 0.000403
576 0.000407
577 0.000410
578 0.000408
579 0.000401
580 0.000394
581 0.000391
582 0.000390
583 0.000386
584 0.000380
585 0.000377
586 0.000377
587 0.000384
588 0.000389
589 0.000393
590 0.000394
591 0.000396
592 0.000397
593 0.000399
594 0.000398
595 0.000399
596 0.000401
597 0.000407
598 0.000406
599 0.000399
600 0.000394
601 0.000381
602 0.000373
603 0.000363
604 0.000353
605 0.000345
606 0.000334
607 0.000320
608 0.000305
609 0.000287
610 0.000275
611 0.000260
612 0.000246
613 0.000242
614 0.000240
615 0.000242
616 0.000240
617 0.000240
618 0.000242
619 0.000249
620 0.000255
621 0.000265
622 0.000270
623 0.000273
624 0.000280
625 0.000281
626 0.000281
627 0.000281
628 0.000281
629 0.000283
630 0.000286
631 0.000286
632 0.000286
633 0.000279
634 0.000269
635 0.000264
636 0.000258
637 0.000259
638 0.000266
639 0.000271
640 0.000278
641 0.000276
642 0.000273
643 0.000271
644 0.000271
645 0.000274
646 0.000281
647 0.000281
648 0.000284
649 0.000291
650 0.000291
651 0.000296
652 0.000291
653 0.000291
654 0.000292
655 0.000298
656 0.000294
657 0.000293
658 0.000288
659 0.000278
660 0.000266
661 0.000251
662 0.000243
663 0.000230
664 0.000219
665 0.000208
666 0.000200
667 0.000192
668 0.000191
669 0.000189
670 0.000190
671 0.000187
672 0.000183
673 0.000186
674 0.000190
675 0.000193
676 0.000198
677 0.000205
678 0.000206
679 0.000204
680 0.000198
681 0.000195
682 0.000188
683 0.000185
684 0.000185
685 0.000186
686 0.000187
687 0.000185
688 0.000183
689 0.000179
690 0.000180
691 0.000183
692 0.000190
693 0.000191
694 0.000195
695 0.000199
696 0.000202
697 0.000204
698 0.000207
699 0.000211
700 0.000217
701 0.000222
702 0.000222
703 0.000225
704 0.000224
705 0.000223
706 0.000218
707 0.000212
708 0.000208
709 0.000203
710 0.000202
711 0.000207
712 0.000207
713 0.000207
714 0.000213
715 0.000223
716 0.000235
717 0.000247
718 0.000264
719 0.000283
720 0.000297
721 0.000305
722 0.000313
723 0.000319
724 0.000327
725 0.000328
726 0.000328
727 0.000324
728 0.000320
729 0.000313
730 0.000308
731 0.000301
732 0.000294
733 0.000296
734 0.000292
735 0.000292
736 0.000299
737 0.000299
738 0.000301
739 0.000304
740 0.000298
741 0.000297
742 0.000292
743 0.000287
744 0.000286
745 0.000282
746 0.000283
747 0.000283
748 0.000278
749 0.000276
750 0.000270
751 0.000264
752 0.000261
753 0.000255
754 0.000251
755 0.000250
756 0.000245
757 0.000242
758 0.000238
759 0.000235
760 0.000232
761 0.000230
762 0.000228
763 0.000230
764 0.000231
765 0.000235
766 0.000237
767 0.000235
768 0.000235
769 0.000235
770 0.000235
771 0.000240
772 0.000240
773 0.000242
774 0.000242
775 0.000240
776 0.000242
777 0.000243
778 0.000240
779 0.000239
780 0.000240
781 0.000243
782 0.000248
783 0.000251
784 0.000252
785 0.000251
786 0.000250
787 0.000253
788 0.000254
789 0.000251
790 0.000250
791 0.000251
792 0.000252
793 0.000251
794 0.000249
795 0.000247
796 0.000244
797 0.000240
798 0.000234
799 0.000231
800 0.000230
801 0.000230
802 0.000226
803 0.000225
804 0.000227
805 0.000230
806 0.000232
807 0.000230
808 0.000225
809 0.000221
