# i correlation
1 0.001791
2 0.001692
3 0.001615
4 0.001554
5 0.001491
6 0.001433
7 0.001379
8 0.001323
9 0.001266
10 0.001218
11 0.001181
12 0.001153
13 0.001128
14 0.001108
15 0.001078
16 0.001062
17 0.001054
18 0.001054
19 0.001048
20 0.001052
21 0.001051
22 0.001046
23 0.001031
24 0.001015
25 0.001009
26 0.001002
27 0.000994
28 0.000982
29 0.000970
30 0.000962
31 0.000951
32 0.000940
33 0.000915
34 0.000893
35 0.000877
36 0.000867
37 0.000860
38 0.000855
39 0.000848
40 0.000845
41 0.000843
42 0.000846
43 0.000859
44 0.000883
45 0.000893
46 0.000897
47 0.000898
48 0.000901
49 0.000904
50 0.000906
51 0.000901
52 0.000902
53 0.000888
54 0.000882
55 0.000882
56 0.000888
57 0.000895
58 0.000896
59 0.000891
60 0.000894
61 0.000891
62 0.000887
63 0.000891
64 0.000884
65 0.000883
66 0.000887
67 0.000892
68 0.000890
69 0.000893
70 0.000903
71 0.000906
72 0.000920
73 0.000922
74 0.000922
75 0.000921
76 0.000916
77 0.000922
78 0.000911
79 0.000910
80 0.000904
81 0.000905
82 0.000899
83 0.000897
84 0.000903
85 0.000912
86 0.000910
87 0.000906
88 0.000899
89 0.000901
90 0.000904
91 0.000889
92 0.000877
93 0.000876
94 0.000863
95 0.000847
96 0.000831
97 0.000817
98 0.000810
99 0.000801
100 0.000791
101 0.000789
102 0.000788
103 0.000781
104 0.000778
105 0.000753
106 0.000728
107 0.000720
108 0.000699
109 0.000682
110 0.000668
111 0.000666
112 0.000669
113 0.000675
114 0.000670
115 0.000673
116 0.000679
117 0.000688
118 0.000692
119 0.000693
120 0.000682
121 0.000684
122 0.000687
123 0.000696
124 0.000706
125 0.000719
126 0.000721
127 0.000720
128 0.000714
129 0.000723
130 0.000724
131 0.000727
132 0.000732
133 0.000742
134 0.000748
135 0.000750
136 0.000742
137 0.000734
138 0.000717
139 0.000702
140 0.000687
141 0.000673
142 0.000663
143 0.000659
144 0.000661
145 0.000668
146 0.000664
147 0.000660
148 0.000654
149 0.000644
150 0.000640
151 0.000639
152 0.000631
153 0.000628
154 0.000629
155 0.000628
156 0.000632
157 0.000636
158 0.000640
159 0.000643
160 0.000650
161 0.000648
162 0.000648
163 0.000654
164 0.000660
165 0.000659
166 0.000649
167 0.000643
168 0.000632
169 0.000613
170 0.000606
171 0.000598
172 0.000588
173 0.000580
174 0.000576
175 0.000572
176 0.000576
177 0.000586
178 0.000597
179 0.000605
180 0.000608
181 0.000613
182 0.000615
183 0.000623
184 0.000629
185 0.000626
186 0.000617
187 0.000609
188 0.000611
189 0.000618
190 0.000626
191 0.000633
192 0.000640
193 0.000633
194 0.000623
195 0.000610
196 0.000613
197 0.000618
198 0.000614
199 0.000603
200 0.000590
201 0.000579
202 0.000573
203 0.000561
204 0.000551
205 0.000543
206 0.000534
207 0.000524
208 0.000513
209 0.000499
210 0.000484
211 0.000481
212 0.000481
213 0.000477
214 0.000480
215 0.000485
216 0.000496
217 0.000507
218 0.000506
219 0.000507
220 0.000512
221 0.000512
222 0.000512
223 0.000513
224 0.000512
225 0.000513
226 0.000516
227 0.000515
228 0.000516
229 0.000511
230 0.000509
231 0.000498
232 0.000483
233 0.000480
234 0.000481
235 0.000476
236 0.000469
237 0.000464
238 0.000453
239 0.000444
240 0.000440
241 0.000438
242 0.000432
243 0.000422
244 0.000425
245 0.000421
246 0.000423
247 0.000437
248 0.000456
249 0.000473
250 0.000488
251 0.000504
252 0.000518
253 0.000536
254 0.000554
255 0.000563
256 0.000566
257 0.000568
258 0.000566
259 0.000564
260 0.000565
261 0.000569
262 0.000574
263 0.000582
264 0.000591
265 0.000596
266 0.000592
267 0.000588
268 0.000588
269 0.000596
270 0.000602
271 0.000610
272 0.000620
273 0.000622
274 0.000636
275 0.000648
276 0.000656
277 0.000661
278 0.000669
279 0.000672
280 0.000664
281 0.000657
282 0.000655
283 0.000651
284 0.000641
285 0.000630
286 0.000612
287 0.000590
288 0.000568
289 0.000547
290 0.000530
291 0.000525
292 0.000524
293 0.000515
294 0.000507
295 0.000503
296 0.000508
297 0.000510
298 0.000507
299 0.000504
300 0.000500
301 0.000495
302 0.000482
303 0.000474
304 0.000464
305 0.000462
306 0.000453
307 0.000446
308 0.000439
309 0.000442
310 0.000444
311 0.000440
312 0.000435
313 0.000432
314 0.000435
315 0.000436
316 0.000430
317 0.000425
318 0.000425
319 0.000427
320 0.000425
321 0.000428
322 0.000423
323 0.000424
324 0.000430
325 0.000429
326 0.000429
327 0.000429
328 0.000434
329 0.000430
330 0.000428
331 0.000424
332 0.000416
333 0.000402
334 0.000396
335 0.000393
336 0.000391
337 0.000389
338 0.000392
339 0.000388
340 0.000391
341 0.000403
342 0.000415
343 0.000428
344 0.000442
345 0.000447
346 0.000453
347 0.000458
348 0.000466
349 0.000470
350 0.000471
351 0.000477
352 0.000488
353 0.000492
354 0.000495
355 0.000503
356 0.000513
357 0.000524
358 0.000530
359 0.000524
360 0.000521
361 0.000517
362 0.000512
363 0.000508
364 0.000503
365 0.000508
366 0.000514
367 0.000516
368 0.000517
369 0.000519
370 0.000521
371 0.000519
372 0.000515
373 0.000512
374 0.000509
375 0.000508
376 0.000507
377 0.000499
378 0.000497
379 0.000498
380 0.000496
381 0.000493
382 0.000491
383 0.000484
384 0.000477
385 0.000467
386 0.000463
387 0.000467
388 0.000475
389 0.000477
390 0.000471
391 0.000460
392 0.000446
393 0.000430
394 0.000418
395 0.000416
396 0.000422
397 0.000422
398 0.000424
399 0.000428
400 0.000434
401 0.000441
402 0.000433
403 0.000427
404 0.000430
405 0.000436
406 0.000432
407 0.000428
408 0.000431
409 0.000436
410 0.000438
411 0.000441
412 0.000442
413 0.000443
414 0.000447
415 0.000449
416 0.000445
417 0.000445
418 0.000447
419 0.000446
420 0.000439
421 0.000436
422 0.000436
423 0.000432
424 0.000421
425 0.000416
426 0.000416
427 0.000417
428 0.000426
429 0.000426
430 0.000422
431 0.000418
432 0.000421
433 0.000430
434 0.000434
435 0.000429
436 0.000423
437 0.000420
438 0.000422
439 0.000426
440 0.000431
441 0.000441
442 0.000460
443 0.000478
444 0.000492
445 0.000508
446 0.000521
447 0.000532
448 0.000545
449 0.000550
450 0.000549
451 0.000548
452 0.000542
453 0.000538
454 0.000538
455 0.000541
456 0.000544
457 0.000538
458 0.000524
459 0.000521
460 0.000515
461 0.000508
462 0.000499
463 0.000489
464 0.000483
465 0.000478
466 0.000465
467 0.000448
468 0.000441
469 0.000433
470 0.000421
471 0.000415
472 0.000410
473 0.000407
474 0.000403
475 0.000403
476 0.000397
477 0.000396
478 0.000395
479 0.000392
480 0.000388
481 0.000387
482 0.000383
483 0.000376
484 0.000369
485 0.000358
486 0.000349
487 0.000335
488 0.000328
489 0.000321
490 0.000317
491 0.000323
492 0.000326
493 0.000330
494 0.000332
495 0.000340
496 0.000341
497 0.000334
498 0.000336
499 0.000347
500 0.000362
501 0.000374
502 0.000385
503 0.000390
504 0.000393
505 0.000403
506 0.000406
507 0.000403
508 0.000404
509 0.000405
510 0.000402
511 0.000398
512 0.000402
513 0.000411
514 0.000411
515 0.000414
516 0.000421
517 0.000420
518 0.000419
519 0.000417
520 0.000420
521 0.000420
522 0.000422
523 0.000427
524 0.000432
525 0.000435
526 0.000441
527 0.000442
528 0.000439
529 0.000432
530 0.000426
531 0.000425
532 0.000426
533 0.000433
534 0.000436
535 0.000440
536 0.000442
537 0.000432
538 0.000426
539 0.000419
540 0.000420
541 0.000426
542 0.000423
543 0.000423
544 0.000426
545 0.000429
546 0.000434
547 0.000438
548 0.000434
549 0.000432
550 0.000426
551 0.000419
552 0.000409
553 0.000398
554 0.000390
555 0.000380
556 0.000371
557 0.000364
558 0.000362
559 0.000358
560 0.000358
561 0.000361
562 0.000360
563 0.000361
564 0.000360
565 0.000364
566 0.000360
567 0.000359
568 0.000359
569 0.000352
570 0.000348
571 0.000352
572 0.000357
573 0.000360
574 0.000351
575 0.000340
576 0.000332
577 0.000333
578 0.000335
579 0.000335
580 0.000327
581 0.000322
582 0.000322
583 0.000324
584 0.000323
585 0.000329
586 0.000328
587 0.000327
588 0.000333
589 0.000340
590 0.000348
591 0.000356
592 0.000360
593 0.000364
594 0.000363
595 0.000364
596 0.000359
597 0.000358
598 0.000354
599 0.000343
600 0.000332
601 0.000320
602 0.000307
603 0.000302
604 0.000296
605 0.000291
606 0.000291
607 0.000288
608 0.000281
609 0.000277
610 0.000283
611 0.000281
612 0.000277
613 0.000273
614 0.000267
615 0.000255
616 0.000239
617 0.000233
618 0.000224
619 0.000216
620 0.000213
621 0.000209
622 0.000205
623 0.000200
624 0.000197
625 0.000197
626 0.000204
627 0.000210
628 0.000215
629 0.000220
630 0.000220
631 0.000227
632 0.000235
633 0.000246
634 0.000253
635 0.000267
636 0.000272
637 0.000275
638 0.000278
639 0.000293
640 0.000310
641 0.000320
642 0.000327
643 0.000332
644 0.000338
645 0.000351
646 0.000350
647 0.000350
648 0.000352
649 0.000354
650 0.000351
651 0.000343
652 0.000335
653 0.000328
654 0.000316
655 0.000300
656 0.000285
657 0.000271
658 0.000263
659 0.000254
660 0.000250
661 0.000253
662 0.000253
663 0.000254
664 0.000251
665 0.000249
666 0.000250
667 0.000254
668 0.000254
669 0.000254
670 0.000256
671 0.000254
672 0.000256
673 0.000255
674 0.000250
675 0.000245
676 0.000240
677 0.000237
678 0.000232
679 0.000231
680 0.000234
681 0.000234
682 0.000228
683 0.000222
684 0.000229
685 0.000231
686 0.000232
687 0.000226
688 0.000223
689 0.000225
690 0.000223
691 0.000222
692 0.000229
693 0.000236
694 0.000235
695 0.000232
696 0.000237
697 0.000241
698 0.000245
699 0.000252
700 0.000255
701 0.000257
702 0.000256
703 0.000253
704 0.000249
705 0.000244
706 0.000241
707 0.000246
708 0.000247
709 0.000242
710 0.000245
711 0.000245
712 0.000251
713 0.000254
714 0.000262
715 0.000265
716 0.000274
717 0.000286
718 0.000302
719 0.000317
720 0.000327
721 0.000335
722 0.000342
723 0.000346
724 0.000357
725 0.000369
726 0.000375
727 0.000377
728 0.000380
729 0.000388
730 0.000392
731 0.000391
732 0.000385
733 0.000383
734 0.000372
735 0.000364
736 0.000353
737 0.000342
738 0.000333
739 0.000323
740 0.000309
741 0.000292
742 0.000282
743 0.000275
744 0.000264
745 0.000252
746 0.000241
747 0.000234
748 0.000228
749 0.000224
750 0.000216
751 0.000209
752 0.000204
753 0.000203
754 0.000205
755 0.000208
756 0.000215
757 0.000221
758 0.000225
759 0.000226
760 0.000225
761 0.000226
762 0.000225
763 0.000221
764 0.000216
765 0.000211
766 0.000205
767 0.000194
768 0.000188
769 0.000188
770 0.000192
771 0.000190
772 0.000180
773 0.000175
774 0.000180
775 0.000183
776 0.000185
777 0.000192
778 0.000195
779 0.000197
780 0.000201
781 0.000202
782 0.000202
783 0.000200
784 0.000204
785 0.000204
786 0.000204
787 0.000205
788 0.000206
789 0.000201
790 0.000196
791 0.000197
792 0.000193
793 0.000191
794 0.000185
795 0.000183
796 0.000185
797 0.000185
798 0.000184
799 0.000186
800 0.000188
801 0.000191
802 0.000194
803 0.000199
804 0.000200
805 0.000210
806 0.000220
807 0.000221
808 0.000221
809 0.000222
