# i correlation
1 0.001733
2 0.001660
3 0.001608
4 0.001558
5 0.001511
6 0.001465
7 0.001427
8 0.001391
9 0.001361
10 0.001329
11 0.001304
12 0.001285
13 0.001279
14 0.001263
15 0.001241
16 0.001234
17 0.001222
18 0.001211
19 0.001204
20 0.001195
21 0.001195
22 0.001199
23 0.001194
24 0.001188
25 0.001174
26 0.001160
27 0.001150
28 0.001150
29 0.001149
30 0.001136
31 0.001133
32 0.001129
33 0.001126
34 0.001118
35 0.001118
36 0.001124
37 0.001136
38 0.001137
39 0.001130
40 0.001128
41 0.001129
42 0.001134
43 0.001128
44 0.001123
45 0.001119
46 0.001117
47 0.001113
48 0.001104
49 0.001095
50 0.001081
51 0.001068
52 0.001055
53 0.001051
54 0.001030
55 0.001011
56 0.001000
57 0.000979
58 0.000964
59 0.000951
60 0.000947
61 0.000942
62 0.000939
63 0.000939
64 0.000942
65 0.000949
66 0.000955
67 0.000965
68 0.000967
69 0.000970
70 0.000966
71 0.000956
72 0.000947
73 0.000939
74 0.000930
75 0.000927
76 0.000918
77 0.000915
78 0.000909
79 0.000904
80 0.000907
81 0.000909
82 0.000910
83 0.000910
84 0.000914
85 0.000921
86 0.000931
87 0.000937
88 0.000943
89 0.000955
90 0.000953
91 0.000953
92 0.000949
93 0.000949
94 0.000949
95 0.000937
96 0.000916
97 0.000900
98 0.000890
99 0.000891
100 0.000886
101 0.000875
102 0.000878
103 0.000878
104 0.000878
105 0.000880
106 0.000872
107 0.000866
108 0.000864
109 0.000860
110 0.000863
111 0.000861
112 0.000859
113 0.000850
114 0.000845
115 0.000835
116 0.000831
117 0.000823
118 0.000814
119 0.000809
120 0.000796
121 0.000790
122 0.000787
123 0.000788
124 0.000785
125 0.000790
126 0.000788
127 0.000785
128 0.000776
129 0.000764
130 0.000760
131 0.000757
132 0.000758
133 0.000765
134 0.000770
135 0.000770
136 0.000776
137 0.000776
138 0.000775
139 0.000774
140 0.000769
141 0.000767
142 0.000760
143 0.000751
144 0.000738
145 0.000729
146 0.000720
147 0.000721
148 0.000714
149 0.000704
150 0.000692
151 0.000685
152 0.000689
153 0.000696
154 0.000699
155 0.000698
156 0.000694
157 0.000691
158 0.000685
159 0.000674
160 0.000654
161 0.000644
162 0.000640
163 0.000635
164 0.000628
165 0.000623
166 0.000618
167 0.000622
168 0.000626
169 0.000626
170 0.000628
171 0.000638
172 0.000646
173 0.000651
174 0.000662
175 0.000672
176 0.000672
177 0.000673
178 0.000682
179 0.000683
180 0.000681
181 0.000681
182 0.000672
183 0.000660
184 0.000659
185 0.000657
186 0.000652
187 0.000651
188 0.000650
189 0.000647
190 0.000646
191 0.000647
192 0.000647
193 0.000641
194 0.000648
195 0.000652
196 0.000665
197 0.000669
198 0.000671
199 0.000675
200 0.000676
201 0.000678
202 0.000680
203 0.000680
204 0.000676
205 0.000677
206 0.000676
207 0.000669
208 0.000667
209 0.000665
210 0.000665
211 0.000659
212 0.000660
213 0.000660
214 0.000657
215 0.000656
216 0.000652
217 0.000643
218 0.000641
219 0.000646
220 0.000649
221 0.000656
222 0.000662
223 0.000660
224 0.000663
225 0.000655
226 0.000653
227 0.000654
228 0.000651
229 0.000638
230 0.000634
231 0.000638
232 0.000641
233 0.000639
234 0.000649
235 0.000654
236 0.000653
237 0.000652
238 0.000660
239 0.000658
240 0.000657
241 0.000658
242 0.000657
243 0.000654
244 0.000645
245 0.000641
246 0.000638
247 0.000631
248 0.000625
249 0.000619
250 0.000609
251 0.000596
252 0.000585
253 0.000579
254 0.000567
255 0.000561
256 0.000563
257 0.000577
258 0.000583
259 0.000592
260 0.000593
261 0.000595
262 0.000599
263 0.000600
264 0.000604
265 0.000608
266 0.000608
267 0.000607
268 0.000607
269 0.000604
270 0.000600
271 0.000597
272 0.000593
273 0.000585
274 0.000576
275 0.000569
276 0.000562
277 0.000558
278 0.000562
279 0.000567
280 0.000571
281 0.000571
282 0.000574
283 0.000572
284 0.000569
285 0.000574
286 0.000581
287 0.000587
288 0.000595
289 0.000604
290 0.000613
291 0.000629
292 0.000633
293 0.000628
294 0.000631
295 0.000638
296 0.000629
297 0.000614
298 0.000603
299 0.000597
300 0.000588
301 0.000585
302 0.000580
303 0.000578
304 0.000583
305 0.000588
306 0.000589
307 0.000591
308 0.000596
309 0.000592
310 0.000588
311 0.000591
312 0.000594
313 0.000600
314 0.000605
315 0.000613
316 0.000609
317 0.000603
318 0.000601
319 0.000597
320 0.000597
321 0.000600
322 0.000596
323 0.000598
324 0.000600
325 0.000601
326 0.000607
327 0.000618
328 0.000627
329 0.000634
330 0.000638
331 0.000641
332 0.000645
333 0.000652
334 0.000658
335 0.000661
336 0.000661
337 0.000661
338 0.000653
339 0.000641
340 0.000630
341 0.000618
342 0.000611
343 0.000605
344 0.000595
345 0.000587
346 0.000586
347 0.000578
348 0.000576
349 0.000573
350 0.000566
351 0.000568
352 0.000561
353 0.000551
354 0.000539
355 0.000532
356 0.000528
357 0.000525
358 0.000528
359 0.000536
360 0.000545
361 0.000550
362 0.000553
363 0.000553
364 0.000553
365 0.000554
366 0.000544
367 0.000544
368 0.000548
369 0.000554
370 0.000557
371 0.000558
372 0.000564
373 0.000566
374 0.000575
375 0.000583
376 0.000593
377 0.000602
378 0.000604
379 0.000606
380 0.000612
381 0.000617
382 0.000620
383 0.000618
384 0.000622
385 0.000618
386 0.000613
387 0.000605
388 0.000591
389 0.000581
390 0.000579
391 0.000574
392 0.000563
393 0.000558
394 0.000557
395 0.000556
396 0.000559
397 0.000557
398 0.000564
399 0.000574
400 0.000575
401 0.000572
402 0.000569
403 0.000561
404 0.000557
405 0.000553
406 0.000548
407 0.000546
408 0.000542
409 0.000541
410 0.000536
411 0.000536
412 0.000547
413 0.000555
414 0.000565
415 0.000575
416 0.000581
417 0.000587
418 0.000599
419 0.000599
420 0.000600
421 0.000601
422 0.000603
423 0.000596
424 0.000586
425 0.000578
426 0.000566
427 0.000559
428 0.000557
429 0.000547
430 0.000541
431 0.000534
432 0.000530
433 0.000525
434 0.000521
435 0.000521
436 0.000524
437 0.000528
438 0.000526
439 0.000514
440 0.000508
441 0.000500
442 0.000495
443 0.000489
444 0.000482
445 0.000480
446 0.000478
447 0.000473
448 0.000465
449 0.000465
450 0.000459
451 0.000452
452 0.000444
453 0.000440
454 0.000443
455 0.000435
456 0.000434
457 0.000426
458 0.000420
459 0.000418
460 0.000419
461 0.000415
462 0.000414
463 0.000410
464 0.000405
465 0.000407
466 0.000408
467 0.000419
468 0.000418
469 0.000424
470 0.000427
471 0.000423
472 0.000416
473 0.000419
474 0.000421
475 0.000410
476 0.000401
477 0.000386
478 0.000374
479 0.000365
480 0.000357
481 0.000352
482 0.000347
483 0.000347
484 0.000348
485 0.000349
486 0.000349
487 0.000347
488 0.000343
489 0.000342
490 0.000343
491 0.000342
492 0.000336
493 0.000334
494 0.000333
495 0.000337
496 0.000335
497 0.000328
498 0.000333
499 0.000336
500 0.000334
501 0.000329
502 0.000335
503 0.000341
504 0.000349
505 0.000349
506 0.000352
507 0.000362
508 0.000364
509 0.000366
510 0.000371
511 0.000374
512 0.000378
513 0.000377
514 0.000375
515 0.000371
516 0.000369
517 0.000372
518 0.000371
519 0.000359
520 0.000349
521 0.000345
522 0.000333
523 0.000325
524 0.000318
525 0.000308
526 0.000309
527 0.000316
528 0.000313
529 0.000309
530 0.000306
531 0.000307
532 0.000304
533 0.000303
534 0.000296
535 0.000291
536 0.000290
537 0.000289
538 0.000283
539 0.000288
540 0.000295
541 0.000294
542 0.000289
543 0.000288
544 0.000288
545 0.000288
546 0.000285
547 0.000286
548 0.000289
549 0.000296
550 0.000302
551 0.000307
552 0.000309
553 0.000314
554 0.000320
555 0.000325
556 0.000331
557 0.000333
558 0.000334
559 0.000332
560 0.000330
561 0.000333
562 0.000331
563 0.000329
564 0.000327
565 0.000322
566 0.000316
567 0.000308
568 0.000307
569 0.000308
570 0.000310
571 0.000306
572 0.000304
573 0.000305
574 0.000306
575 0.000302
576 0.000296
577 0.000296
578 0.000291
579 0.000290
580 0.000286
581 0.000281
582 0.000272
583 0.000267
584 0.000262
585 0.000259
586 0.000259
587 0.000254
588 0.000247
589 0.000242
590 0.000240
591 0.000233
592 0.000236
593 0.000249
594 0.000254
595 0.000259
596 0.000264
597 0.000268
598 0.000272
599 0.000279
600 0.000287
601 0.000290
602 0.000286
603 0.000287
604 0.000276
605 0.000265
606 0.000264
607 0.000260
608 0.000262
609 0.000266
610 0.000269
611 0.000267
612 0.000265
613 0.000256
614 0.000256
615 0.000249
616 0.000245
617 0.000241
618 0.000234
619 0.000226
620 0.000224
621 0.000226
622 0.000227
623 0.000226
624 0.000222
625 0.000218
626 0.000212
627 0.000205
628 0.000202
629 0.000199
630 0.000195
631 0.000187
632 0.000184
633 0.000183
634 0.000185
635 0.000184
636 0.000182
637 0.000186
638 0.000195
639 0.000202
640 0.000209
641 0.000220
642 0.000227
643 0.000235
644 0.000236
645 0.000236
646 0.000238
647 0.000236
648 0.000232
649 0.000233
650 0.000231
651 0.000230
652 0.000231
653 0.000226
654 0.000222
655 0.000219
656 0.000219
657 0.000212
658 0.000204
659 0.000198
660 0.000187
661 0.000180
662 0.000177
663 0.000177
664 0.000176
665 0.000175
666 0.000177
667 0.000177
668 0.000180
669 0.000180
670 0.000179
671 0.000177
672 0.000174
673 0.000171
674 0.000169
675 0.000173
676 0.000174
677 0.000169
678 0.000161
679 0.000157
680 0.000155
681 0.000156
682 0.000152
683 0.000152
684 0.000155
685 0.000160
686 0.000165
687 0.000169
688 0.000176
689 0.000182
690 0.000186
691 0.000185
692 0.000187
693 0.000185
694 0.000188
695 0.000193
696 0.000194
697 0.000194
698 0.000196
699 0.000195
700 0.000195
701 0.000194
702 0.000195
703 0.000199
704 0.000203
705 0.000212
706 0.000219
707 0.000225
708 0.000235
709 0.000241
710 0.000241
711 0.000242
712 0.000245
713 0.000252
714 0.000257
715 0.000258
716 0.000259
717 0.000261
718 0.000262
719 0.000259
720 0.000249
721 0.000238
722 0.000233
723 0.000228
724 0.000219
725 0.000209
726 0.000204
727 0.000201
728 0.000195
729 0.000185
730 0.000177
731 0.000169
732 0.000167
733 0.000166
734 0.000163
735 0.000164
736 0.000168
737 0.000173
738 0.000172
739 0.000169
740 0.000171
741 0.000170
742 0.000171
743 0.000172
744 0.000170
745 0.000175
746 0.000176
747 0.000176
748 0.000176
749 0.000176
750 0.000176
751 0.000179
752 0.000180
753 0.000179
754 0.000180
755 0.000184
756 0.000187
757 0.000186
758 0.000186
759 0.000185
760 0.000183
761 0.000184
762 0.000182
763 0.000181
764 0.000181
765 0.000180
766 0.000175
767 0.000172
768 0.000171
769 0.000166
770 0.000161
771 0.000156
772 0.000147
773 0.000140
774 0.000140
775 0.000138
776 0.000137
777 0.000137
778 0.000139
779 0.000140
780 0.000140
781 0.000140
782 0.000141
783 0.000142
784 0.000140
785 0.000138
786 0.000136
787 0.000134
788 0.000128
789 0.000126
790 0.000124
791 0.000120
792 0.000119
793 0.000119
794 0.000121
795 0.000121
796 0.000124
797 0.000129
798 0.000136
799 0.000143
800 0.000149
801 0.000150
802 0.000153
803 0.000156
804 0.000157
805 0.000158
806 0.000160
807 0.000164
808 0.000166
809 0.000165
