# i correlation
1 0.001666
2 0.001578
3 0.001507
4 0.001443
5 0.001388
6 0.001339
7 0.001300
8 0.001261
9 0.001229
10 0.001199
11 0.001174
12 0.001152
13 0.001133
14 0.001123
15 0.001116
16 0.001100
17 0.001093
18 0.001090
19 0.001092
20 0.001100
21 0.001102
22 0.001108
23 0.001113
24 0.001110
25 0.001103
26 0.001090
27 0.001069
28 0.001050
29 0.001026
30 0.001004
31 0.000984
32 0.000967
33 0.000954
34 0.000937
35 0.000921
36 0.000907
37 0.000906
38 0.000914
39 0.000927
40 0.000937
41 0.000949
42 0.000952
43 0.000952
44 0.000961
45 0.000975
46 0.000988
47 0.000993
48 0.000990
49 0.000989
50 0.000978
51 0.000969
52 0.000958
53 0.000939
54 0.000925
55 0.000915
56 0.000901
57 0.000889
58 0.000882
59 0.000883
60 0.000883
61 0.000886
62 0.000892
63 0.000899
64 0.000903
65 0.000915
66 0.000926
67 0.000934
68 0.000936
69 0.000938
70 0.000935
71 0.000933
72 0.000936
73 0.000937
74 0.000927
75 0.000926
76 0.000921
77 0.000912
78 0.000904
79 0.000897
80 0.000890
81 0.000886
82 0.000873
83 0.000860
84 0.000856
85 0.000848
86 0.000840
87 0.000839
88 0.000842
89 0.000843
90 0.000850
91 0.000858
92 0.000858
93 0.000850
94 0.000838
95 0.000835
96 0.000824
97 0.000807
98 0.000797
99 0.000783
100 0.000764
101 0.000740
102 0.000716
103 0.000699
104 0.000687
105 0.000672
106 0.000658
107 0.000652
108 0.000645
109 0.000647
110 0.000647
111 0.000646
112 0.000651
113 0.000652
114 0.000662
115 0.000665
116 0.000665
117 0.000667
118 0.000672
119 0.000675
120 0.000668
121 0.000657
122 0.000646
123 0.000637
124 0.000635
125 0.000629
126 0.000629
127 0.000622
128 0.000617
129 0.000617
130 0.000620
131 0.000620
132 0.000620
133 0.000626
134 0.000635
135 0.000643
136 0.000650
137 0.000651
138 0.000652
139 0.000650
140 0.000657
141 0.000650
142 0.000634
143 0.000620
144 0.000605
145 0.000591
146 0.000577
147 0.000571
148 0.000565
149 0.000561
150 0.000561
151 0.000561
152 0.000556
153 0.000557
154 0.000556
155 0.000566
156 0.000582
157 0.000604
158 0.000630
159 0.000653
160 0.000679
161 0.000694
162 0.000697
163 0.000703
164 0.000708
165 0.000711
166 0.000715
167 0.000713
168 0.000704
169 0.000686
170 0.000666
171 0.000651
172 0.000643
173 0.000638
174 0.000623
175 0.000616
176 0.000609
177 0.000604
178 0.000599
179 0.000594
180 0.000597
181 0.000600
182 0.000599
183 0.000597
184 0.000600
185 0.000604
186 0.000606
187 0.000607
188 0.000602
189 0.000601
190 0.000598
191 0.000596
192 0.000595
193 0.000597
194 0.000594
195 0.000587
196 0.000582
197 0.000572
198 0.000567
199 0.000565
200 0.000563
201 0.000561
202 0.000559
203 0.000555
204 0.000551
205 0.000553
206 0.000551
207 0.000554
208 0.000557
209 0.000556
210 0.000551
211 0.000545
212 0.000549
213 0.000548
214 0.000542
215 0.000537
216 0.000528
217 0.000521
218 0.000515
219 0.000513
220 0.000510
221 0.000498
222 0.000494
223 0.000489
224 0.000495
225 0.000504
226 0.000519
227 0.000529
228 0.000530
229 0.000531
230 0.000526
231 0.000528
232 0.000536
233 0.000542
234 0.000542
235 0.000540
236 0.000544
237 0.000548
238 0.000551
239 0.000560
240 0.000568
241 0.000570
242 0.000581
243 0.000591
244 0.000589
245 0.000583
246 0.000578
247 0.000567
248 0.000560
249 0.000553
250 0.000549
251 0.000547
252 0.000550
253 0.000550
254 0.000551
255 0.000551
256 0.000561
257 0.000572
258 0.000576
259 0.000576
260 0.000577
261 0.000565
262 0.000553
263 0.000540
264 0.000529
265 0.000523
266 0.000519
267 0.000511
268 0.000494
269 0.000472
270 0.000454
271 0.000444
272 0.000440
273 0.000434
274 0.000428
275 0.000423
276 0.000427
277 0.000432
278 0.000431
279 0.000419
280 0.000415
281 0.000414
282 0.000410
283 0.000406
284 0.000404
285 0.000410
286 0.000416
287 0.000425
288 0.000431
289 0.000432
290 0.000430
291 0.000437
292 0.000441
293 0.000439
294 0.000430
295 0.000421
296 0.000413
297 0.000412
298 0.000414
299 0.000415
300 0.000417
301 0.000417
302 0.000418
303 0.000418
304 0.000416
305 0.000412
306 0.000409
307 0.000408
308 0.000410
309 0.000405
310 0.000399
311 0.000395
312 0.000398
313 0.000402
314 0.000402
315 0.000409
316 0.000414
317 0.000426
318 0.000435
319 0.000444
320 0.000442
321 0.000439
322 0.000435
323 0.000432
324 0.000431
325 0.000426
326 0.000416
327 0.000406
328 0.000395
329 0.000383
330 0.000365
331 0.000353
332 0.000349
333 0.000352
334 0.000351
335 0.000349
336 0.000343
337 0.000341
338 0.000348
339 0.000351
340 0.000348
341 0.000344
342 0.000339
343 0.000341
344 0.000338
345 0.000334
346 0.000330
347 0.000323
348 0.000318
349 0.000311
350 0.000297
351 0.000288
352 0.000289
353 0.000294
354 0.000294
355 0.000296
356 0.000295
357 0.000289
358 0.000286
359 0.000280
360 0.000286
361 0.000293
362 0.000302
363 0.000308
364 0.000310
365 0.000307
366 0.000308
367 0.000317
368 0.000324
369 0.000332
370 0.000332
371 0.000333
372 0.000336
373 0.000338
374 0.000342
375 0.000345
376 0.000352
377 0.000356
378 0.000362
379 0.000362
380 0.000361
381 0.000361
382 0.000353
383 0.000344
384 0.000343
385 0.000344
386 0.000347
387 0.000346
388 0.000343
389 0.000343
390 0.000343
391 0.000337
392 0.000340
393 0.000347
394 0.000350
395 0.000352
396 0.000351
397 0.000353
398 0.000354
399 0.000350
400 0.000350
401 0.000349
402 0.000348
403 0.000347
404 0.000342
405 0.000336
406 0.000337
407 0.000340
408 0.000330
409 0.000319
410 0.000306
411 0.000298
412 0.000294
413 0.000292
414 0.000293
415 0.000297
416 0.000305
417 0.000313
418 0.000320
419 0.000323
420 0.000323
421 0.000326
422 0.000327
423 0.000329
424 0.000332
425 0.000331
426 0.000328
427 0.000333
428 0.000337
429 0.000337
430 0.000325
431 0.000318
432 0.000314
433 0.000313
434 0.000313
435 0.000316
436 0.000330
437 0.000342
438 0.000355
439 0.000370
440 0.000379
441 0.000389
442 0.000401
443 0.000407
444 0.000418
445 0.000423
446 0.000426
447 0.000430
448 0.000428
449 0.000421
450 0.000412
451 0.000414
452 0.000417
453 0.000423
454 0.000421
455 0.000415
456 0.000409
457 0.000405
458 0.000403
459 0.000406
460 0.000406
461 0.000404
462 0.000408
463 0.000414
464 0.000417
465 0.000426
466 0.000434
467 0.000439
468 0.000446
469 0.000455
470 0.000459
471 0.000453
472 0.000445
473 0.000442
474 0.000438
475 0.000433
476 0.000429
477 0.000420
478 0.000413
479 0.000408
480 0.000399
481 0.000392
482 0.000388
483 0.000382
484 0.000385
485 0.000396
486 0.000406
487 0.000406
488 0.000411
489 0.000410
490 0.000409
491 0.000404
492 0.000397
493 0.000392
494 0.000385
495 0.000372
496 0.000367
497 0.000361
498 0.000357
499 0.000350
500 0.000342
501 0.000335
502 0.000331
503 0.000326
504 0.000326
505 0.000323
506 0.000317
507 0.000311
508 0.000306
509 0.000309
510 0.000310
511 0.000314
512 0.000320
513 0.000324
514 0.000326
515 0.000329
516 0.000331
517 0.000331
518 0.000335
519 0.000340
520 0.000343
521 0.000338
522 0.000331
523 0.000318
524 0.000310
525 0.000305
526 0.000297
527 0.000294
528 0.000290
529 0.000290
530 0.000290
531 0.000287
532 0.000286
533 0.000289
534 0.000296
535 0.000308
536 0.000314
537 0.000323
538 0.000330
539 0.000330
540 0.000328
541 0.000324
542 0.000322
543 0.000317
544 0.000313
545 0.000315
546 0.000307
547 0.000307
548 0.000304
549 0.000300
550 0.000298
551 0.000295
552 0.000289
553 0.000285
554 0.000284
555 0.000278
556 0.000277
557 0.000280
558 0.000287
559 0.000291
560 0.000296
561 0.000300
562 0.000303
563 0.000305
564 0.000303
565 0.000304
566 0.000302
567 0.000301
568 0.000298
569 0.000292
570 0.000285
571 0.000279
572 0.000273
573 0.000266
574 0.000261
575 0.000256
576 0.000252
577 0.000256
578 0.000260
579 0.000264
580 0.000268
581 0.000270
582 0.000270
583 0.000263
584 0.000259
585 0.000256
586 0.000248
587 0.000237
588 0.000221
589 0.000209
590 0.000191
591 0.000177
592 0.000164
593 0.000150
594 0.000137
595 0.000128
596 0.000125
597 0.000122
598 0.000108
599 0.000099
600 0.000101
601 0.000104
602 0.000106
603 0.000114
604 0.000131
605 0.000148
606 0.000161
607 0.000168
608 0.000173
609 0.000173
610 0.000177
611 0.000180
612 0.000178
613 0.000174
614 0.000169
615 0.000163
616 0.000155
617 0.000146
618 0.000136
619 0.000135
620 0.000139
621 0.000137
622 0.000137
623 0.000140
624 0.000143
625 0.000147
626 0.000158
627 0.000166
628 0.000174
629 0.000186
630 0.000197
631 0.000204
632 0.000210
633 0.000213
634 0.000215
635 0.000215
636 0.000214
637 0.000215
638 0.000213
639 0.000206
640 0.000196
641 0.000188
642 0.000180
643 0.000173
644 0.000167
645 0.000161
646 0.000157
647 0.000148
648 0.000133
649 0.000126
650 0.000118
651 0.000114
652 0.000118
653 0.000122
654 0.000127
655 0.000128
656 0.000128
657 0.000123
658 0.000120
659 0.000118
660 0.000110
661 0.000104
662 0.000097
663 0.000089
664 0.000081
665 0.000076
666 0.000068
667 0.000061
668 0.000049
669 0.000041
670 0.000036
671 0.000033
672 0.000031
673 0.000030
674 0.000030
675 0.000033
676 0.000034
677 0.000036
678 0.000043
679 0.000047
680 0.000050
681 0.000054
682 0.000055
683 0.000050
684 0.000052
685 0.000057
686 0.000059
687 0.000059
688 0.000061
689 0.000058
690 0.000051
691 0.000050
692 0.000051
693 0.000056
694 0.000060
695 0.000071
696 0.000082
697 0.000085
698 0.000091
699 0.000094
700 0.000099
701 0.000103
702 0.000108
703 0.000112
704 0.000114
705 0.000118
706 0.000121
707 0.000123
708 0.000123
709 0.000123
710 0.000127
711 0.000130
712 0.000131
713 0.000128
714 0.000127
715 0.000124
716 0.000120
717 0.000116
718 0.000116
719 0.000120
720 0.000123
721 0.000123
722 0.000122
723 0.000119
724 0.000121
725 0.000124
726 0.000121
727 0.000120
728 0.000116
729 0.000110
730 0.000108
731 0.000106
732 0.000103
733 0.000101
734 0.000100
735 0.000098
736 0.000098
737 0.000096
738 0.000090
739 0.000084
740 0.000086
741 0.000091
742 0.000096
743 0.000099
744 0.000109
745 0.000116
746 0.000116
747 0.000119
748 0.000117
749 0.000111
750 0.000107
751 0.000105
752 0.000101
753 0.000095
754 0.000092
755 0.000086
756 0.000083
757 0.000077
758 0.000069
759 0.000061
760 0.000054
761 0.000051
762 0.000053
763 0.000056
764 0.000060
765 0.000063
766 0.000068
767 0.000067
768 0.000067
769 0.000070
770 0.000068
771 0.000064
772 0.000063
773 0.000064
774 0.000063
775 0.000063
776 0.000067
777 0.000071
778 0.000069
779 0.000066
780 0.000064
781 0.000058
782 0.000053
783 0.000050
784 0.000046
785 0.000045
786 0.000045
787 0.000046
788 0.000049
789 0.000054
790 0.000060
791 0.000065
792 0.000070
793 0.000071
794 0.000071
795 0.000070
796 0.000070
797 0.000070
798 0.000068
799 0.000066
800 0.000065
801 0.000066
802 0.000070
803 0.000076
804 0.000081
805 0.000082
806 0.000078
807 0.000075
808 0.000070
809 0.000065
