# i correlation
1 0.001861
2 0.001764
3 0.001694
4 0.001627
5 0.001573
6 0.001533
7 0.001502
8 0.001473
9 0.001451
10 0.001423
11 0.001389
12 0.001368
13 0.001352
14 0.001335
15 0.001319
16 0.001304
17 0.001281
18 0.001263
19 0.001249
20 0.001234
21 0.001223
22 0.001215
23 0.001204
24 0.001200
25 0.001199
26 0.001198
27 0.001200
28 0.001196
29 0.001186
30 0.001172
31 0.001156
32 0.001137
33 0.001125
34 0.001112
35 0.001101
36 0.001088
37 0.001079
38 0.001072
39 0.001059
40 0.001047
41 0.001048
42 0.001048
43 0.001046
44 0.001043
45 0.001046
46 0.001055
47 0.001067
48 0.001069
49 0.001072
50 0.001074
51 0.001074
52 0.001069
53 0.001063
54 0.001053
55 0.001057
56 0.001052
57 0.001039
58 0.001031
59 0.001029
60 0.001032
61 0.001033
62 0.001023
63 0.001018
64 0.001009
65 0.001007
66 0.000994
67 0.000988
68 0.000998
69 0.001002
70 0.001006
71 0.000995
72 0.000985
73 0.000966
74 0.000956
75 0.000947
76 0.000932
77 0.000934
78 0.000942
79 0.000950
80 0.000947
81 0.000944
82 0.000939
83 0.000927
84 0.000918
85 0.000906
86 0.000887
87 0.000877
88 0.000875
89 0.000866
90 0.000854
91 0.000848
92 0.000836
93 0.000823
94 0.000810
95 0.000811
96 0.000820
97 0.000823
98 0.000837
99 0.000849
100 0.000851
101 0.000849
102 0.000856
103 0.000863
104 0.000858
105 0.000852
106 0.000841
107 0.000830
108 0.000823
109 0.000812
110 0.000808
111 0.000809
112 0.000817
113 0.000823
114 0.000825
115 0.000828
116 0.000831
117 0.000831
118 0.000828
119 0.000817
120 0.000811
121 0.000808
122 0.000799
123 0.000789
124 0.000781
125 0.000783
126 0.000794
127 0.000800
128 0.000801
129 0.000807
130 0.000807
131 0.000794
132 0.000788
133 0.000783
134 0.000778
135 0.000772
136 0.000762
137 0.000762
138 0.000761
139 0.000742
140 0.000728
141 0.000721
142 0.000714
143 0.000706
144 0.000707
145 0.000717
146 0.000721
147 0.000721
148 0.000717
149 0.000708
150 0.000697
151 0.000691
152 0.000681
153 0.000674
154 0.000671
155 0.000663
156 0.000650
157 0.000636
158 0.000623
159 0.000615
160 0.000609
161 0.000606
162 0.000604
163 0.000610
164 0.000617
165 0.000611
166 0.000605
167 0.000609
168 0.000619
169 0.000619
170 0.000625
171 0.000629
172 0.000629
173 0.000635
174 0.000634
175 0.000627
176 0.000621
177 0.000617
178 0.000615
179 0.000615
180 0.000621
181 0.000629
182 0.000624
183 0.000615
184 0.000611
185 0.000600
186 0.000591
187 0.000584
188 0.000579
189 0.000575
190 0.000577
191 0.000585
192 0.000588
193 0.000592
194 0.000598
195 0.000608
196 0.000618
197 0.000627
198 0.000627
199 0.000622
200 0.000625
201 0.000632
202 0.000630
203 0.000630
204 0.000627
205 0.000623
206 0.000622
207 0.000619
208 0.000617
209 0.000609
210 0.000603
211 0.000599
212 0.000591
213 0.000585
214 0.000578
215 0.000569
216 0.000568
217 0.000569
218 0.000556
219 0.000544
220 0.000533
221 0.000524
222 0.000521
223 0.000521
224 0.000521
225 0.000520
226 0.000518
227 0.000501
228 0.000489
229 0.000484
230 0.000473
231 0.000459
232 0.000452
233 0.000442
234 0.000429
235 0.000419
236 0.000410
237 0.000402
238 0.000394
239 0.000386
240 0.000377
241 0.000376
242 0.000380
243 0.000379
244 0.000378
245 0.000375
246 0.000370
247 0.000370
248 0.000372
249 0.000380
250 0.000393
251 0.000405
252 0.000413
253 0.000419
254 0.000418
255 0.000421
256 0.000421
257 0.000402
258 0.000385
259 0.000376
260 0.000378
261 0.000381
262 0.000381
263 0.000387
264 0.000395
265 0.000398
266 0.000407
267 0.000406
268 0.000401
269 0.000400
270 0.000404
271 0.000410
272 0.000417
273 0.000416
274 0.000413
275 0.000424
276 0.000433
277 0.000438
278 0.000444
279 0.000450
280 0.000459
281 0.000460
282 0.000460
283 0.000460
284 0.000453
285 0.000450
286 0.000445
287 0.000433
288 0.000422
289 0.000404
290 0.000391
291 0.000392
292 0.000397
293 0.000402
294 0.000414
295 0.000413
296 0.000416
297 0.000421
298 0.000420
299 0.000426
300 0.000435
301 0.000443
302 0.000454
303 0.000463
304 0.000465
305 0.000464
306 0.000465
307 0.000468
308 0.000473
309 0.000480
310 0.000481
311 0.000487
312 0.000491
313 0.000487
314 0.000480
315 0.000474
316 0.000472
317 0.000458
318 0.000444
319 0.000434
320 0.000419
321 0.000416
322 0.000413
323 0.000408
324 0.000403
325 0.000403
326 0.000403
327 0.000399
328 0.000391
329 0.000380
330 0.000373
331 0.000369
332 0.000367
333 0.000361
334 0.000360
335 0.000362
336 0.000363
337 0.000361
338 0.000364
339 0.000365
340 0.000364
341 0.000364
342 0.000364
343 0.000374
344 0.000375
345 0.000370
346 0.000361
347 0.000358
348 0.000351
349 0.000344
350 0.000342
351 0.000344
352 0.000346
353 0.000343
354 0.000339
355 0.000329
356 0.000312
357 0.000292
358 0.000278
359 0.000273
360 0.000265
361 0.000260
362 0.000255
363 0.000247
364 0.000245
365 0.000236
366 0.000223
367 0.000218
368 0.000218
369 0.000214
370 0.000207
371 0.000201
372 0.000196
373 0.000189
374 0.000178
375 0.000168
376 0.000173
377 0.000177
378 0.000173
379 0.000162
380 0.000152
381 0.000155
382 0.000159
383 0.000162
384 0.000163
385 0.000161
386 0.000165
387 0.000170
388 0.000171
389 0.000177
390 0.000188
391 0.000195
392 0.000201
393 0.000212
394 0.000216
395 0.000212
396 0.000216
397 0.000226
398 0.000230
399 0.000232
400 0.000237
401 0.000234
402 0.000231
403 0.000225
404 0.000225
405 0.000226
406 0.000224
407 0.000225
408 0.000225
409 0.000227
410 0.000230
411 0.000233
412 0.000235
413 0.000239
414 0.000246
415 0.000260
416 0.000264
417 0.000275
418 0.000281
419 0.000286
420 0.000296
421 0.000305
422 0.000311
423 0.000321
424 0.000330
425 0.000335
426 0.000337
427 0.000341
428 0.000340
429 0.000337
430 0.000328
431 0.000319
432 0.000309
433 0.000296
434 0.000283
435 0.000265
436 0.000246
437 0.000229
438 0.000223
439 0.000224
440 0.000224
441 0.000231
442 0.000237
443 0.000231
444 0.000217
445 0.000208
446 0.000208
447 0.000207
448 0.000207
449 0.000207
450 0.000207
451 0.000213
452 0.000216
453 0.000217
454 0.000221
455 0.000227
456 0.000237
457 0.000241
458 0.000235
459 0.000222
460 0.000211
461 0.000204
462 0.000194
463 0.000181
464 0.000181
465 0.000181
466 0.000178
467 0.000180
468 0.000186
469 0.000190
470 0.000198
471 0.000210
472 0.000226
473 0.000238
474 0.000245
475 0.000255
476 0.000267
477 0.000280
478 0.000295
479 0.000310
480 0.000329
481 0.000341
482 0.000350
483 0.000354
484 0.000358
485 0.000363
486 0.000365
487 0.000360
488 0.000360
489 0.000365
490 0.000362
491 0.000348
492 0.000341
493 0.000334
494 0.000328
495 0.000327
496 0.000332
497 0.000336
498 0.000344
499 0.000359
500 0.000365
501 0.000360
502 0.000369
503 0.000377
504 0.000382
505 0.000385
506 0.000389
507 0.000388
508 0.000382
509 0.000371
510 0.000365
511 0.000367
512 0.000363
513 0.000361
514 0.000354
515 0.000347
516 0.000344
517 0.000342
518 0.000336
519 0.000331
520 0.000334
521 0.000335
522 0.000336
523 0.000339
524 0.000336
525 0.000334
526 0.000333
527 0.000330
528 0.000317
529 0.000308
530 0.000299
531 0.000295
532 0.000295
533 0.000296
534 0.000294
535 0.000296
536 0.000296
537 0.000287
538 0.000281
539 0.000272
540 0.000266
541 0.000270
542 0.000273
543 0.000276
544 0.000282
545 0.000285
546 0.000283
547 0.000280
548 0.000278
549 0.000279
550 0.000282
551 0.000283
552 0.000281
553 0.000279
554 0.000279
555 0.000279
556 0.000274
557 0.000275
558 0.000280
559 0.000280
560 0.000281
561 0.000281
562 0.000273
563 0.000269
564 0.000265
565 0.000254
566 0.000240
567 0.000231
568 0.000226
569 0.000225
570 0.000223
571 0.000225
572 0.000223
573 0.000219
574 0.000218
575 0.000212
576 0.000205
577 0.000206
578 0.000204
579 0.000198
580 0.000195
581 0.000190
582 0.000179
583 0.000177
584 0.000177
585 0.000178
586 0.000181
587 0.000186
588 0.000189
589 0.000191
590 0.000195
591 0.000198
592 0.000196
593 0.000198
594 0.000200
595 0.000203
596 0.000207
597 0.000204
598 0.000202
599 0.000206
600 0.000205
601 0.000207
602 0.000215
603 0.000229
604 0.000240
605 0.000254
606 0.000261
607 0.000257
608 0.000252
609 0.000248
610 0.000245
611 0.000240
612 0.000239
613 0.000240
614 0.000247
615 0.000253
616 0.000256
617 0.000250
618 0.000250
619 0.000254
620 0.000255
621 0.000255
622 0.000256
623 0.000259
624 0.000264
625 0.000269
626 0.000271
627 0.000269
628 0.000266
629 0.000260
630 0.000253
631 0.000246
632 0.000244
633 0.000244
634 0.000248
635 0.000247
636 0.000244
637 0.000242
638 0.000237
639 0.000235
640 0.000233
641 0.000226
642 0.000216
643 0.000209
644 0.000199
645 0.000189
646 0.000183
647 0.000183
648 0.000183
649 0.000188
650 0.000193
651 0.000191
652 0.000196
653 0.000204
654 0.000207
655 0.000207
656 0.000204
657 0.000204
658 0.000203
659 0.000206
660 0.000201
661 0.000193
662 0.000192
663 0.000189
664 0.000186
665 0.000181
666 0.000172
667 0.000166
668 0.000165
669 0.000162
670 0.000162
671 0.000164
672 0.000165
673 0.000164
674 0.000162
675 0.000161
676 0.000160
677 0.000163
678 0.000162
679 0.000162
680 0.000166
681 0.000166
682 0.000165
683 0.000159
684 0.000162
685 0.000163
686 0.000165
687 0.000169
688 0.000170
689 0.000172
690 0.000175
691 0.000177
692 0.000178
693 0.000183
694 0.000190
695 0.000195
696 0.000199
697 0.000202
698 0.000200
699 0.000197
700 0.000197
701 0.000196
702 0.000197
703 0.000204
704 0.000212
705 0.000217
706 0.000225
707 0.000232
708 0.000238
709 0.000240
710 0.000233
711 0.000221
712 0.000211
713 0.000204
714 0.000196
715 0.000192
716 0.000182
717 0.000173
718 0.000169
719 0.000165
720 0.000163
721 0.000163
722 0.000165
723 0.000165
724 0.000166
725 0.000164
726 0.000161
727 0.000161
728 0.000167
729 0.000171
730 0.000168
731 0.000171
732 0.000180
733 0.000184
734 0.000189
735 0.000188
736 0.000192
737 0.000194
738 0.000193
739 0.000191
740 0.000191
741 0.000199
742 0.000204
743 0.000205
744 0.000203
745 0.000198
746 0.000190
747 0.000179
748 0.000171
749 0.000167
750 0.000168
751 0.000173
752 0.000183
753 0.000186
754 0.000195
755 0.000207
756 0.000214
757 0.000219
758 0.000223
759 0.000225
760 0.000225
761 0.000226
762 0.000229
763 0.000227
764 0.000227
765 0.000226
766 0.000224
767 0.000225
768 0.000226
769 0.000226
770 0.000226
771 0.000223
772 0.000218
773 0.000212
774 0.000210
775 0.000208
776 0.000207
777 0.000205
778 0.000205
779 0.000200
780 0.000193
781 0.000187
782 0.000183
783 0.000182
784 0.000184
785 0.000186
786 0.000188
787 0.000194
788 0.000197
789 0.000192
790 0.000185
791 0.000181
792 0.000176
793 0.000175
794 0.000174
795 0.000168
796 0.000167
797 0.000166
798 0.000158
799 0.000153
800 0.000149
801 0.000148
802 0.000149
803 0.000151
804 0.000155
805 0.000156
806 0.000162
807 0.000166
808 0.000167
809 0.000174
