# i correlation
1 0.001869
2 0.001781
3 0.001707
4 0.001643
5 0.001602
6 0.001562
7 0.001529
8 0.001489
9 0.001457
10 0.001427
11 0.001403
12 0.001382
13 0.001373
14 0.001361
15 0.001353
16 0.001344
17 0.001334
18 0.001333
19 0.001330
20 0.001327
21 0.001318
22 0.001315
23 0.001304
24 0.001299
25 0.001298
26 0.001290
27 0.001290
28 0.001288
29 0.001284
30 0.001277
31 0.001268
32 0.001259
33 0.001252
34 0.001238
35 0.001219
36 0.001206
37 0.001189
38 0.001179
39 0.001164
40 0.001151
41 0.001127
42 0.001105
43 0.001097
44 0.001093
45 0.001107
46 0.001109
47 0.001113
48 0.001112
49 0.001111
50 0.001103
51 0.001096
52 0.001099
53 0.001099
54 0.001096
55 0.001091
56 0.001080
57 0.001052
58 0.001026
59 0.000997
60 0.000976
61 0.000953
62 0.000934
63 0.000919
64 0.000893
65 0.000886
66 0.000875
67 0.000875
68 0.000874
69 0.000866
70 0.000867
71 0.000866
72 0.000872
73 0.000885
74 0.000896
75 0.000901
76 0.000898
77 0.000886
78 0.000879
79 0.000880
80 0.000882
81 0.000889
82 0.000890
83 0.000895
84 0.000896
85 0.000898
86 0.000890
87 0.000880
88 0.000877
89 0.000873
90 0.000874
91 0.000868
92 0.000862
93 0.000856
94 0.000841
95 0.000832
96 0.000825
97 0.000818
98 0.000818
99 0.000824
100 0.000836
101 0.000849
102 0.000856
103 0.000873
104 0.000879
105 0.000874
106 0.000881
107 0.000896
108 0.000904
109 0.000902
110 0.000893
111 0.000888
112 0.000888
113 0.000884
114 0.000878
115 0.000864
116 0.000847
117 0.000825
118 0.000812
119 0.000813
120 0.000814
121 0.000826
122 0.000833
123 0.000830
124 0.000818
125 0.000808
126 0.000797
127 0.000796
128 0.000801
129 0.000802
130 0.000806
131 0.000809
132 0.000809
133 0.000808
134 0.000804
135 0.000801
136 0.000802
137 0.000794
138 0.000798
139 0.000798
140 0.000806
141 0.000819
142 0.000828
143 0.000832
144 0.000831
145 0.000837
146 0.000841
147 0.000844
148 0.000839
149 0.000839
150 0.000831
151 0.000818
152 0.000799
153 0.000779
154 0.000765
155 0.000767
156 0.000775
157 0.000775
158 0.000773
159 0.000774
160 0.000776
161 0.000778
162 0.000782
163 0.000781
164 0.000779
165 0.000772
166 0.000768
167 0.000769
168 0.000769
169 0.000771
170 0.000760
171 0.000742
172 0.000721
173 0.000697
174 0.000680
175 0.000672
176 0.000671
177 0.000670
178 0.000663
179 0.000652
180 0.000643
181 0.000637
182 0.000627
183 0.000616
184 0.000609
185 0.000598
186 0.000581
187 0.000578
188 0.000583
189 0.000588
190 0.000593
191 0.000600
192 0.000604
193 0.000602
194 0.000610
195 0.000620
196 0.000641
197 0.000658
198 0.000656
199 0.000646
200 0.000630
201 0.000610
202 0.000603
203 0.000600
204 0.000596
205 0.000590
206 0.000584
207 0.000576
208 0.000565
209 0.000560
210 0.000565
211 0.000565
212 0.000573
213 0.000586
214 0.000593
215 0.000599
216 0.000607
217 0.000609
218 0.000599
219 0.000589
220 0.000580
221 0.000583
222 0.000593
223 0.000603
224 0.000609
225 0.000605
226 0.000599
227 0.000589
228 0.000576
229 0.000569
230 0.000567
231 0.000561
232 0.000551
233 0.000537
234 0.000532
235 0.000533
236 0.000537
237 0.000537
238 0.000531
239 0.000516
240 0.000512
241 0.000510
242 0.000512
243 0.000518
244 0.000522
245 0.000531
246 0.000539
247 0.000540
248 0.000544
249 0.000554
250 0.000565
251 0.000572
252 0.000578
253 0.000583
254 0.000576
255 0.000574
256 0.000569
257 0.000561
258 0.000551
259 0.000549
260 0.000541
261 0.000534
262 0.000541
263 0.000542
264 0.000547
265 0.000549
266 0.000550
267 0.000555
268 0.000559
269 0.000572
270 0.000588
271 0.000594
272 0.000593
273 0.000582
274 0.000567
275 0.000563
276 0.000566
277 0.000570
278 0.000578
279 0.000587
280 0.000590
281 0.000590
282 0.000581
283 0.000583
284 0.000582
285 0.000582
286 0.000576
287 0.000564
288 0.000555
289 0.000553
290 0.000550
291 0.000550
292 0.000548
293 0.000531
294 0.000517
295 0.000511
296 0.000514
297 0.000522
298 0.000534
299 0.000541
300 0.000547
301 0.000543
302 0.000538
303 0.000538
304 0.000538
305 0.000548
306 0.000554
307 0.000551
308 0.000546
309 0.000540
310 0.000526
311 0.000512
312 0.000505
313 0.000499
314 0.000494
315 0.000495
316 0.000501
317 0.000504
318 0.000509
319 0.000520
320 0.000529
321 0.000536
322 0.000538
323 0.000533
324 0.000528
325 0.000529
326 0.000528
327 0.000529
328 0.000522
329 0.000518
330 0.000517
331 0.000515
332 0.000512
333 0.000506
334 0.000498
335 0.000488
336 0.000484
337 0.000488
338 0.000492
339 0.000494
340 0.000486
341 0.000478
342 0.000474
343 0.000473
344 0.000473
345 0.000475
346 0.000476
347 0.000474
348 0.000468
349 0.000469
350 0.000461
351 0.000454
352 0.000458
353 0.000466
354 0.000473
355 0.000477
356 0.000480
357 0.000485
358 0.000489
359 0.000500
360 0.000504
361 0.000499
362 0.000500
363 0.000499
364 0.000499
365 0.000503
366 0.000500
367 0.000490
368 0.000485
369 0.000481
370 0.000475
371 0.000479
372 0.000485
373 0.000490
374 0.000501
375 0.000509
376 0.000516
377 0.000520
378 0.000524
379 0.000526
380 0.000525
381 0.000521
382 0.000525
383 0.000523
384 0.000525
385 0.000522
386 0.000513
387 0.000513
388 0.000513
389 0.000509
390 0.000504
391 0.000508
392 0.000510
393 0.000512
394 0.000519
395 0.000517
396 0.000509
397 0.000507
398 0.000503
399 0.000495
400 0.000489
401 0.000479
402 0.000467
403 0.000454
404 0.000452
405 0.000453
406 0.000456
407 0.000459
408 0.000460
409 0.000461
410 0.000466
411 0.000471
412 0.000481
413 0.000492
414 0.000497
415 0.000491
416 0.000483
417 0.000470
418 0.000464
419 0.000466
420 0.000469
421 0.000472
422 0.000469
423 0.000465
424 0.000451
425 0.000440
426 0.000435
427 0.000439
428 0.000446
429 0.000448
430 0.000449
431 0.000441
432 0.000433
433 0.000424
434 0.000422
435 0.000416
436 0.000404
437 0.000396
438 0.000396
439 0.000399
440 0.000404
441 0.000406
442 0.000404
443 0.000406
444 0.000404
445 0.000405
446 0.000404
447 0.000409
448 0.000410
449 0.000406
450 0.000401
451 0.000394
452 0.000393
453 0.000389
454 0.000381
455 0.000372
456 0.000354
457 0.000336
458 0.000318
459 0.000310
460 0.000311
461 0.000318
462 0.000325
463 0.000325
464 0.000321
465 0.000318
466 0.000319
467 0.000326
468 0.000333
469 0.000336
470 0.000328
471 0.000311
472 0.000305
473 0.000298
474 0.000295
475 0.000297
476 0.000296
477 0.000301
478 0.000299
479 0.000295
480 0.000287
481 0.000284
482 0.000280
483 0.000282
484 0.000280
485 0.000280
486 0.000282
487 0.000287
488 0.000295
489 0.000287
490 0.000287
491 0.000284
492 0.000278
493 0.000283
494 0.000286
495 0.000292
496 0.000295
497 0.000298
498 0.000299
499 0.000299
500 0.000297
501 0.000295
502 0.000294
503 0.000289
504 0.000284
505 0.000275
506 0.000262
507 0.000249
508 0.000236
509 0.000227
510 0.000221
511 0.000217
512 0.000218
513 0.000226
514 0.000232
515 0.000243
516 0.000252
517 0.000260
518 0.000268
519 0.000272
520 0.000271
521 0.000273
522 0.000284
523 0.000287
524 0.000282
525 0.000279
526 0.000276
527 0.000272
528 0.000269
529 0.000269
530 0.000268
531 0.000268
532 0.000268
533 0.000268
534 0.000272
535 0.000277
536 0.000278
537 0.000274
538 0.000270
539 0.000267
540 0.000266
541 0.000267
542 0.000277
543 0.000291
544 0.000300
545 0.000300
546 0.000310
547 0.000318
548 0.000327
549 0.000331
550 0.000331
551 0.000327
552 0.000321
553 0.000326
554 0.000326
555 0.000329
556 0.000336
557 0.000332
558 0.000330
559 0.000327
560 0.000320
561 0.000323
562 0.000328
563 0.000325
564 0.000319
565 0.000309
566 0.000303
567 0.000302
568 0.000301
569 0.000301
570 0.000305
571 0.000307
572 0.000306
573 0.000301
574 0.000298
575 0.000299
576 0.000304
577 0.000299
578 0.000293
579 0.000283
580 0.000273
581 0.000264
582 0.000246
583 0.000230
584 0.000217
585 0.000211
586 0.000212
587 0.000209
588 0.000209
589 0.000210
590 0.000207
591 0.000210
592 0.000206
593 0.000201
594 0.000198
595 0.000200
596 0.000199
597 0.000199
598 0.000204
599 0.000206
600 0.000206
601 0.000205
602 0.000203
603 0.000197
604 0.000191
605 0.000181
606 0.000174
607 0.000175
608 0.000173
609 0.000174
610 0.000173
611 0.000173
612 0.000170
613 0.000158
614 0.000142
615 0.000123
616 0.000108
617 0.000096
618 0.000092
619 0.000092
620 0.000089
621 0.000082
622 0.000078
623 0.000073
624 0.000072
625 0.000072
626 0.000074
627 0.000066
628 0.000060
629 0.000064
630 0.000062
631 0.000061
632 0.000061
633 0.000058
634 0.000061
635 0.000065
636 0.000069
637 0.000073
638 0.000078
639 0.000079
640 0.000077
641 0.000077
642 0.000076
643 0.000081
644 0.000092
645 0.000102
646 0.000117
647 0.000125
648 0.000128
649 0.000130
650 0.000135
651 0.000142
652 0.000140
653 0.000134
654 0.000133
655 0.000130
656 0.000126
657 0.000128
658 0.000129
659 0.000135
660 0.000140
661 0.000143
662 0.000148
663 0.000155
664 0.000161
665 0.000173
666 0.000182
667 0.000184
668 0.000181
669 0.000183
670 0.000183
671 0.000180
672 0.000173
673 0.000160
674 0.000156
675 0.000155
676 0.000152
677 0.000147
678 0.000146
679 0.000147
680 0.000147
681 0.000151
682 0.000151
683 0.000152
684 0.000160
685 0.000169
686 0.000172
687 0.000175
688 0.000175
689 0.000179
690 0.000183
691 0.000196
692 0.000208
693 0.000220
694 0.000230
695 0.000233
696 0.000237
697 0.000242
698 0.000250
699 0.000262
700 0.000267
701 0.000265
702 0.000264
703 0.000262
704 0.000259
705 0.000255
706 0.000251
707 0.000250
708 0.000244
709 0.000241
710 0.000243
711 0.000245
712 0.000249
713 0.000250
714 0.000250
715 0.000250
716 0.000247
717 0.000245
718 0.000245
719 0.000248
720 0.000247
721 0.000249
722 0.000248
723 0.000244
724 0.000237
725 0.000230
726 0.000225
727 0.000220
728 0.000212
729 0.000202
730 0.000195
731 0.000196
732 0.000199
733 0.000200
734 0.000200
735 0.000192
736 0.000187
737 0.000183
738 0.000178
739 0.000179
740 0.000182
741 0.000184
742 0.000178
743 0.000180
744 0.000180
745 0.000184
746 0.000186
747 0.000192
748 0.000195
749 0.000194
750 0.000195
751 0.000193
752 0.000195
753 0.000194
754 0.000188
755 0.000181
756 0.000175
757 0.000170
758 0.000164
759 0.000159
760 0.000153
761 0.000146
762 0.000139
763 0.000129
764 0.000114
765 0.000105
766 0.000103
767 0.000108
768 0.000113
769 0.000120
770 0.000125
771 0.000129
772 0.000132
773 0.000133
774 0.000133
775 0.000132
776 0.000133
777 0.000132
778 0.000130
779 0.000130
780 0.000124
781 0.000115
782 0.000111
783 0.000106
784 0.000105
785 0.000100
786 0.000093
787 0.000084
788 0.000078
789 0.000071
790 0.000068
791 0.000068
792 0.000070
793 0.000073
794 0.000071
795 0.000071
796 0.000072
797 0.000079
798 0.000086
799 0.000091
800 0.000092
801 0.000095
802 0.000100
803 0.000100
804 0.000096
805 0.000089
806 0.000088
807 0.000086
808 0.000085
809 0.000079
