# i correlation
1 0.001813
2 0.001726
3 0.001644
4 0.001574
5 0.001510
6 0.001449
7 0.001399
8 0.001366
9 0.001336
10 0.001321
11 0.001303
12 0.001275
13 0.001256
14 0.001235
15 0.001218
16 0.001202
17 0.001180
18 0.001160
19 0.001144
20 0.001137
21 0.001134
22 0.001119
23 0.001104
24 0.001086
25 0.001062
26 0.001042
27 0.001026
28 0.000994
29 0.000975
30 0.000955
31 0.000944
32 0.000939
33 0.000938
34 0.000931
35 0.000921
36 0.000907
37 0.000901
38 0.000894
39 0.000885
40 0.000878
41 0.000875
42 0.000874
43 0.000877
44 0.000884
45 0.000886
46 0.000884
47 0.000879
48 0.000874
49 0.000872
50 0.000864
51 0.000854
52 0.000848
53 0.000844
54 0.000843
55 0.000846
56 0.000847
57 0.000853
58 0.000857
59 0.000861
60 0.000855
61 0.000841
62 0.000836
63 0.000828
64 0.000828
65 0.000832
66 0.000831
67 0.000828
68 0.000824
69 0.000820
70 0.000824
71 0.000825
72 0.000820
73 0.000817
74 0.000810
75 0.000807
76 0.000801
77 0.000787
78 0.000781
79 0.000773
80 0.000765
81 0.000755
82 0.000740
83 0.000728
84 0.000715
85 0.000710
86 0.000703
87 0.000689
88 0.000677
89 0.000666
90 0.000659
91 0.000665
92 0.000675
93 0.000679
94 0.000693
95 0.000701
96 0.000706
97 0.000713
98 0.000713
99 0.000710
100 0.000702
101 0.000689
102 0.000677
103 0.000666
104 0.000651
105 0.000644
106 0.000641
107 0.000637
108 0.000641
109 0.000642
110 0.000643
111 0.000633
112 0.000631
113 0.000636
114 0.000634
115 0.000632
116 0.000633
117 0.000629
118 0.000627
119 0.000627
120 0.000619
121 0.000604
122 0.000594
123 0.000595
124 0.000599
125 0.000590
126 0.000588
127 0.000592
128 0.000587
129 0.000580
130 0.000571
131 0.000559
132 0.000544
133 0.000526
134 0.000516
135 0.000512
136 0.000499
137 0.000495
138 0.000488
139 0.000488
140 0.000490
141 0.000495
142 0.000491
143 0.000488
144 0.000485
145 0.000483
146 0.000470
147 0.000457
148 0.000441
149 0.000426
150 0.000422
151 0.000422
152 0.000421
153 0.000414
154 0.000421
155 0.000427
156 0.000447
157 0.000455
158 0.000462
159 0.000467
160 0.000474
161 0.000481
162 0.000494
163 0.000503
164 0.000509
165 0.000518
166 0.000524
167 0.000532
168 0.000539
169 0.000533
170 0.000535
171 0.000537
172 0.000545
173 0.000550
174 0.000551
175 0.000560
176 0.000567
177 0.000569
178 0.000573
179 0.000571
180 0.000572
181 0.000577
182 0.000575
183 0.000571
184 0.000559
185 0.000537
186 0.000527
187 0.000508
188 0.000498
189 0.000493
190 0.000491
191 0.000490
192 0.000486
193 0.000484
194 0.000485
195 0.000491
196 0.000486
197 0.000481
198 0.000480
199 0.000487
200 0.000494
201 0.000502
202 0.000509
203 0.000520
204 0.000529
205 0.000537
206 0.000540
207 0.000542
208 0.000538
209 0.000524
210 0.000513
211 0.000503
212 0.000493
213 0.000499
214 0.000501
215 0.000512
216 0.000527
217 0.000530
218 0.000529
219 0.000523
220 0.000522
221 0.000525
222 0.000533
223 0.000536
224 0.000535
225 0.000529
226 0.000529
227 0.000529
228 0.000529
229 0.000523
230 0.000514
231 0.000497
232 0.000494
233 0.000502
234 0.000507
235 0.000506
236 0.000510
237 0.000516
238 0.000518
239 0.000520
240 0.000523
241 0.000509
242 0.000501
243 0.000500
244 0.000492
245 0.000483
246 0.000478
247 0.000476
248 0.000486
249 0.000485
250 0.000491
251 0.000494
252 0.000485
253 0.000483
254 0.000471
255 0.000455
256 0.000434
257 0.000420
258 0.000400
259 0.000388
260 0.000377
261 0.000370
262 0.000356
263 0.000344
264 0.000328
265 0.000307
266 0.000298
267 0.000294
268 0.000280
269 0.000271
270 0.000258
271 0.000259
272 0.000262
273 0.000274
274 0.000283
275 0.000296
276 0.000308
277 0.000322
278 0.000327
279 0.000328
280 0.000332
281 0.000333
282 0.000328
283 0.000329
284 0.000325
285 0.000320
286 0.000319
287 0.000316
288 0.000320
289 0.000322
290 0.000324
291 0.000324
292 0.000322
293 0.000323
294 0.000327
295 0.000340
296 0.000352
297 0.000361
298 0.000364
299 0.000371
300 0.000381
301 0.000390
302 0.000394
303 0.000393
304 0.000397
305 0.000400
306 0.000401
307 0.000402
308 0.000405
309 0.000400
310 0.000402
311 0.000404
312 0.000407
313 0.000411
314 0.000413
315 0.000420
316 0.000424
317 0.000426
318 0.000430
319 0.000435
320 0.000430
321 0.000425
322 0.000414
323 0.000409
324 0.000400
325 0.000395
326 0.000392
327 0.000390
328 0.000385
329 0.000374
330 0.000367
331 0.000366
332 0.000362
333 0.000361
334 0.000357
335 0.000348
336 0.000341
337 0.000334
338 0.000337
339 0.000336
340 0.000340
341 0.000334
342 0.000336
343 0.000331
344 0.000323
345 0.000322
346 0.000324
347 0.000324
348 0.000327
349 0.000332
350 0.000337
351 0.000346
352 0.000354
353 0.000364
354 0.000368
355 0.000369
356 0.000364
357 0.000357
358 0.000353
359 0.000345
360 0.000339
361 0.000339
362 0.000331
363 0.000328
364 0.000325
365 0.000324
366 0.000321
367 0.000316
368 0.000305
369 0.000298
370 0.000290
371 0.000285
372 0.000281
373 0.000279
374 0.000284
375 0.000294
376 0.000306
377 0.000323
378 0.000336
379 0.000343
380 0.000348
381 0.000353
382 0.000351
383 0.000345
384 0.000336
385 0.000334
386 0.000326
387 0.000318
388 0.000316
389 0.000318
390 0.000326
391 0.000330
392 0.000329
393 0.000325
394 0.000317
395 0.000317
396 0.000321
397 0.000328
398 0.000342
399 0.000348
400 0.000352
401 0.000352
402 0.000356
403 0.000353
404 0.000350
405 0.000345
406 0.000337
407 0.000327
408 0.000322
409 0.000313
410 0.000306
411 0.000305
412 0.000309
413 0.000309
414 0.000309
415 0.000314
416 0.000322
417 0.000325
418 0.000334
419 0.000341
420 0.000342
421 0.000338
422 0.000328
423 0.000327
424 0.000326
425 0.000324
426 0.000312
427 0.000301
428 0.000289
429 0.000283
430 0.000275
431 0.000273
432 0.000264
433 0.000256
434 0.000250
435 0.000250
436 0.000250
437 0.000244
438 0.000235
439 0.000237
440 0.000240
441 0.000246
442 0.000254
443 0.000262
444 0.000265
445 0.000271
446 0.000270
447 0.000271
448 0.000267
449 0.000265
450 0.000266
451 0.000274
452 0.000281
453 0.000287
454 0.000281
455 0.000277
456 0.000278
457 0.000288
458 0.000295
459 0.000299
460 0.000307
461 0.000321
462 0.000335
463 0.000341
464 0.000342
465 0.000340
466 0.000338
467 0.000338
468 0.000340
469 0.000338
470 0.000337
471 0.000336
472 0.000330
473 0.000323
474 0.000323
475 0.000326
476 0.000332
477 0.000337
478 0.000341
479 0.000340
480 0.000336
481 0.000334
482 0.000330
483 0.000329
484 0.000327
485 0.000322
486 0.000317
487 0.000306
488 0.000294
489 0.000284
490 0.000286
491 0.000290
492 0.000291
493 0.000289
494 0.000292
495 0.000291
496 0.000291
497 0.000292
498 0.000286
499 0.000283
500 0.000274
501 0.000275
502 0.000264
503 0.000254
504 0.000250
505 0.000250
506 0.000249
507 0.000243
508 0.000236
509 0.000235
510 0.000233
511 0.000235
512 0.000236
513 0.000228
514 0.000220
515 0.000217
516 0.000221
517 0.000229
518 0.000232
519 0.000237
520 0.000242
521 0.000252
522 0.000259
523 0.000265
524 0.000270
525 0.000270
526 0.000271
527 0.000267
528 0.000265
529 0.000257
530 0.000246
531 0.000235
532 0.000230
533 0.000236
534 0.000243
535 0.000251
536 0.000258
537 0.000265
538 0.000265
539 0.000270
540 0.000273
541 0.000277
542 0.000282
543 0.000289
544 0.000294
545 0.000300
546 0.000299
547 0.000303
548 0.000302
549 0.000299
550 0.000297
551 0.000287
552 0.000273
553 0.000267
554 0.000266
555 0.000270
556 0.000272
557 0.000275
558 0.000282
559 0.000289
560 0.000293
561 0.000296
562 0.000296
563 0.000293
564 0.000285
565 0.000270
566 0.000256
567 0.000244
568 0.000236
569 0.000228
570 0.000226
571 0.000229
572 0.000230
573 0.000224
574 0.000222
575 0.000218
576 0.000217
577 0.000213
578 0.000208
579 0.000203
580 0.000202
581 0.000206
582 0.000207
583 0.000202
584 0.000197
585 0.000190
586 0.000183
587 0.000170
588 0.000166
589 0.000161
590 0.000157
591 0.000164
592 0.000175
593 0.000180
594 0.000187
595 0.000196
596 0.000199
597 0.000201
598 0.000201
599 0.000198
600 0.000189
601 0.000180
602 0.000173
603 0.000170
604 0.000171
605 0.000172
606 0.000175
607 0.000176
608 0.000176
609 0.000172
610 0.000162
611 0.000153
612 0.000143
613 0.000136
614 0.000133
615 0.000134
616 0.000132
617 0.000133
618 0.000137
619 0.000140
620 0.000145
621 0.000148
622 0.000149
623 0.000146
624 0.000145
625 0.000149
626 0.000146
627 0.000144
628 0.000144
629 0.000141
630 0.000142
631 0.000144
632 0.000145
633 0.000143
634 0.000137
635 0.000136
636 0.000133
637 0.000127
638 0.000127
639 0.000121
640 0.000113
641 0.000116
642 0.000117
643 0.000118
644 0.000116
645 0.000111
646 0.000114
647 0.000113
648 0.000114
649 0.000113
650 0.000109
651 0.000107
652 0.000112
653 0.000116
654 0.000113
655 0.000108
656 0.000104
657 0.000105
658 0.000103
659 0.000104
660 0.000099
661 0.000095
662 0.000091
663 0.000085
664 0.000083
665 0.000085
666 0.000091
667 0.000100
668 0.000110
669 0.000125
670 0.000136
671 0.000143
672 0.000146
673 0.000154
674 0.000160
675 0.000167
676 0.000172
677 0.000175
678 0.000183
679 0.000193
680 0.000203
681 0.000207
682 0.000213
683 0.000215
684 0.000215
685 0.000212
686 0.000210
687 0.000208
688 0.000206
689 0.000203
690 0.000207
691 0.000214
692 0.000221
693 0.000225
694 0.000221
695 0.000214
696 0.000206
697 0.000194
698 0.000187
699 0.000179
700 0.000176
701 0.000177
702 0.000175
703 0.000174
704 0.000178
705 0.000179
706 0.000175
707 0.000170
708 0.000166
709 0.000163
710 0.000156
711 0.000154
712 0.000157
713 0.000159
714 0.000162
715 0.000162
716 0.000164
717 0.000163
718 0.000162
719 0.000161
720 0.000156
721 0.000149
722 0.000144
723 0.000139
724 0.000136
725 0.000132
726 0.000131
727 0.000126
728 0.000124
729 0.000120
730 0.000118
731 0.000113
732 0.000105
733 0.000096
734 0.000090
735 0.000079
736 0.000070
737 0.000065
738 0.000067
739 0.000068
740 0.000072
741 0.000072
742 0.000074
743 0.000073
744 0.000074
745 0.000074
746 0.000066
747 0.000059
748 0.000053
749 0.000048
750 0.000044
751 0.000038
752 0.000030
753 0.000019
754 0.000011
755 0.000007
756 0.000001
757 0.000002
758 0.000009
759 0.000018
760 0.000021
761 0.000026
762 0.000028
763 0.000031
764 0.000029
765 0.000024
766 0.000019
767 0.000018
768 0.000014
769 0.000014
770 0.000018
771 0.000021
772 0.000024
773 0.000027
774 0.000030
775 0.000033
776 0.000035
777 0.000036
778 0.000042
779 0.000046
780 0.000045
781 0.000042
782 0.000037
783 0.000035
784 0.000033
785 0.000029
786 0.000027
787 0.000030
788 0.000039
789 0.000045
790 0.000049
791 0.000046
792 0.000045
793 0.000043
794 0.000044
795 0.000046
796 0.000051
797 0.000060
798 0.000070
799 0.000078
800 0.000084
801 0.000084
802 0.000083
803 0.000080
804 0.000074
805 0.000063
806 0.000054
807 0.000047
808 0.000044
809 0.000042
