# i correlation
1 0.001777
2 0.001711
3 0.001644
4 0.001584
5 0.001536
6 0.001490
7 0.001458
8 0.001427
9 0.001413
10 0.001400
11 0.001383
12 0.001364
13 0.001348
14 0.001333
15 0.001327
16 0.001321
17 0.001316
18 0.001304
19 0.001295
20 0.001285
21 0.001279
22 0.001267
23 0.001262
24 0.001259
25 0.001256
26 0.001251
27 0.001248
28 0.001232
29 0.001217
30 0.001201
31 0.001185
32 0.001174
33 0.001163
34 0.001164
35 0.001167
36 0.001164
37 0.001159
38 0.001150
39 0.001132
40 0.001118
41 0.001103
42 0.001092
43 0.001080
44 0.001070
45 0.001058
46 0.001046
47 0.001039
48 0.001025
49 0.001014
50 0.000995
51 0.000988
52 0.000990
53 0.000986
54 0.000990
55 0.000979
56 0.000980
57 0.000974
58 0.000972
59 0.000980
60 0.000982
61 0.000983
62 0.000980
63 0.000979
64 0.000978
65 0.000981
66 0.000977
67 0.000969
68 0.000960
69 0.000955
70 0.000951
71 0.000940
72 0.000931
73 0.000929
74 0.000931
75 0.000927
76 0.000925
77 0.000918
78 0.000906
79 0.000901
80 0.000893
81 0.000892
82 0.000892
83 0.000892
84 0.000897
85 0.000907
86 0.000912
87 0.000918
88 0.000919
89 0.000919
90 0.000917
91 0.000921
92 0.000919
93 0.000917
94 0.000914
95 0.000909
96 0.000909
97 0.000906
98 0.000910
99 0.000905
100 0.000897
101 0.000892
102 0.000882
103 0.000879
104 0.000872
105 0.000867
106 0.000861
107 0.000850
108 0.000847
109 0.000842
110 0.000845
111 0.000845
112 0.000842
113 0.000851
114 0.000858
115 0.000859
116 0.000857
117 0.000856
118 0.000867
119 0.000869
120 0.000876
121 0.000884
122 0.000883
123 0.000879
124 0.000860
125 0.000849
126 0.000844
127 0.000845
128 0.000847
129 0.000846
130 0.000857
131 0.000859
132 0.000860
133 0.000857
134 0.000847
135 0.000846
136 0.000839
137 0.000835
138 0.000828
139 0.000829
140 0.000834
141 0.000839
142 0.000841
143 0.000842
144 0.000838
145 0.000835
146 0.000831
147 0.000839
148 0.000845
149 0.000844
150 0.000849
151 0.000846
152 0.000835
153 0.000830
154 0.000828
155 0.000823
156 0.000820
157 0.000829
158 0.000839
159 0.000840
160 0.000837
161 0.000829
162 0.000823
163 0.000819
164 0.000817
165 0.000812
166 0.000809
167 0.000809
168 0.000815
169 0.000817
170 0.000824
171 0.000822
172 0.000818
173 0.000821
174 0.000825
175 0.000839
176 0.000838
177 0.000840
178 0.000829
179 0.000824
180 0.000812
181 0.000805
182 0.000805
183 0.000805
184 0.000811
185 0.000817
186 0.000821
187 0.000822
188 0.000820
189 0.000807
190 0.000800
191 0.000786
192 0.000785
193 0.000786
194 0.000787
195 0.000796
196 0.000799
197 0.000800
198 0.000796
199 0.000798
200 0.000804
201 0.000807
202 0.000812
203 0.000815
204 0.000816
205 0.000827
206 0.000835
207 0.000832
208 0.000828
209 0.000831
210 0.000827
211 0.000827
212 0.000824
213 0.000821
214 0.000811
215 0.000799
216 0.000797
217 0.000798
218 0.000795
219 0.000795
220 0.000787
221 0.000784
222 0.000788
223 0.000788
224 0.000790
225 0.000789
226 0.000781
227 0.000765
228 0.000759
229 0.000755
230 0.000742
231 0.000728
232 0.000710
233 0.000701
234 0.000693
235 0.000686
236 0.000694
237 0.000692
238 0.000689
239 0.000685
240 0.000687
241 0.000689
242 0.000677
243 0.000671
244 0.000668
245 0.000662
246 0.000659
247 0.000656
248 0.000652
249 0.000656
250 0.000651
251 0.000647
252 0.000635
253 0.000631
254 0.000624
255 0.000613
256 0.000602
257 0.000591
258 0.000586
259 0.000582
260 0.000587
261 0.000602
262 0.000620
263 0.000629
264 0.000634
265 0.000635
266 0.000627
267 0.000622
268 0.000613
269 0.000602
270 0.000590
271 0.000584
272 0.000578
273 0.000577
274 0.000567
275 0.000560
276 0.000551
277 0.000547
278 0.000549
279 0.000547
280 0.000546
281 0.000544
282 0.000549
283 0.000550
284 0.000549
285 0.000551
286 0.000547
287 0.000543
288 0.000550
289 0.000552
290 0.000562
291 0.000564
292 0.000566
293 0.000567
294 0.000565
295 0.000552
296 0.000544
297 0.000539
298 0.000539
299 0.000537
300 0.000537
301 0.000537
302 0.000533
303 0.000538
304 0.000538
305 0.000548
306 0.000548
307 0.000546
308 0.000540
309 0.000532
310 0.000524
311 0.000506
312 0.000486
313 0.000472
314 0.000463
315 0.000460
316 0.000456
317 0.000453
318 0.000452
319 0.000446
320 0.000446
321 0.000446
322 0.000445
323 0.000451
324 0.000460
325 0.000471
326 0.000488
327 0.000504
328 0.000518
329 0.000521
330 0.000521
331 0.000515
332 0.000507
333 0.000499
334 0.000490
335 0.000483
336 0.000481
337 0.000477
338 0.000473
339 0.000473
340 0.000467
341 0.000460
342 0.000456
343 0.000451
344 0.000447
345 0.000444
346 0.000445
347 0.000446
348 0.000440
349 0.000436
350 0.000437
351 0.000438
352 0.000444
353 0.000448
354 0.000461
355 0.000461
356 0.000458
357 0.000452
358 0.000454
359 0.000462
360 0.000470
361 0.000469
362 0.000460
363 0.000458
364 0.000458
365 0.000455
366 0.000445
367 0.000443
368 0.000440
369 0.000441
370 0.000441
371 0.000446
372 0.000445
373 0.000448
374 0.000443
375 0.000443
376 0.000449
377 0.000450
378 0.000454
379 0.000453
380 0.000455
381 0.000455
382 0.000462
383 0.000460
384 0.000465
385 0.000468
386 0.000466
387 0.000473
388 0.000479
389 0.000483
390 0.000477
391 0.000481
392 0.000485
393 0.000484
394 0.000488
395 0.000488
396 0.000488
397 0.000486
398 0.000491
399 0.000494
400 0.000488
401 0.000487
402 0.000483
403 0.000482
404 0.000485
405 0.000482
406 0.000486
407 0.000488
408 0.000485
409 0.000476
410 0.000467
411 0.000460
412 0.000456
413 0.000454
414 0.000452
415 0.000451
416 0.000448
417 0.000443
418 0.000443
419 0.000450
420 0.000448
421 0.000450
422 0.000449
423 0.000455
424 0.000462
425 0.000464
426 0.000470
427 0.000468
428 0.000469
429 0.000464
430 0.000460
431 0.000450
432 0.000435
433 0.000425
434 0.000415
435 0.000409
436 0.000406
437 0.000402
438 0.000398
439 0.000389
440 0.000382
441 0.000384
442 0.000379
443 0.000375
444 0.000373
445 0.000373
446 0.000376
447 0.000385
448 0.000388
449 0.000382
450 0.000380
451 0.000370
452 0.000361
453 0.000350
454 0.000340
455 0.000329
456 0.000318
457 0.000316
458 0.000320
459 0.000321
460 0.000320
461 0.000320
462 0.000318
463 0.000321
464 0.000323
465 0.000321
466 0.000322
467 0.000323
468 0.000326
469 0.000329
470 0.000328
471 0.000325
472 0.000323
473 0.000329
474 0.000331
475 0.000337
476 0.000334
477 0.000331
478 0.000329
479 0.000319
480 0.000314
481 0.000301
482 0.000290
483 0.000278
484 0.000278
485 0.000275
486 0.000272
487 0.000273
488 0.000269
489 0.000271
490 0.000280
491 0.000285
492 0.000291
493 0.000293
494 0.000293
495 0.000294
496 0.000288
497 0.000285
498 0.000277
499 0.000274
500 0.000274
501 0.000279
502 0.000284
503 0.000289
504 0.000292
505 0.000296
506 0.000301
507 0.000299
508 0.000299
509 0.000294
510 0.000293
511 0.000302
512 0.000305
513 0.000306
514 0.000310
515 0.000314
516 0.000309
517 0.000306
518 0.000308
519 0.000306
520 0.000299
521 0.000294
522 0.000289
523 0.000279
524 0.000270
525 0.000257
526 0.000253
527 0.000255
528 0.000254
529 0.000261
530 0.000260
531 0.000258
532 0.000260
533 0.000260
534 0.000263
535 0.000266
536 0.000271
537 0.000274
538 0.000278
539 0.000285
540 0.000287
541 0.000290
542 0.000294
543 0.000293
544 0.000290
545 0.000286
546 0.000292
547 0.000290
548 0.000286
549 0.000286
550 0.000276
551 0.000270
552 0.000267
553 0.000269
554 0.000268
555 0.000275
556 0.000278
557 0.000281
558 0.000277
559 0.000277
560 0.000275
561 0.000270
562 0.000271
563 0.000274
564 0.000277
565 0.000283
566 0.000288
567 0.000289
568 0.000292
569 0.000294
570 0.000298
571 0.000302
572 0.000309
573 0.000313
574 0.000314
575 0.000316
576 0.000326
577 0.000332
578 0.000336
579 0.000340
580 0.000335
581 0.000330
582 0.000327
583 0.000318
584 0.000313
585 0.000304
586 0.000295
587 0.000287
588 0.000291
589 0.000297
590 0.000306
591 0.000316
592 0.000323
593 0.000332
594 0.000339
595 0.000343
596 0.000338
597 0.000333
598 0.000332
599 0.000325
600 0.000324
601 0.000323
602 0.000318
603 0.000321
604 0.000318
605 0.000320
606 0.000316
607 0.000315
608 0.000318
609 0.000319
610 0.000310
611 0.000305
612 0.000299
613 0.000296
614 0.000291
615 0.000282
616 0.000274
617 0.000267
618 0.000263
619 0.000255
620 0.000248
621 0.000238
622 0.000233
623 0.000228
624 0.000223
625 0.000221
626 0.000216
627 0.000217
628 0.000222
629 0.000225
630 0.000224
631 0.000222
632 0.000225
633 0.000232
634 0.000234
635 0.000235
636 0.000231
637 0.000225
638 0.000220
639 0.000218
640 0.000216
641 0.000214
642 0.000212
643 0.000213
644 0.000213
645 0.000211
646 0.000208
647 0.000203
648 0.000198
649 0.000194
650 0.000194
651 0.000190
652 0.000188
653 0.000186
654 0.000186
655 0.000184
656 0.000178
657 0.000176
658 0.000167
659 0.000162
660 0.000162
661 0.000160
662 0.000158
663 0.000158
664 0.000162
665 0.000164
666 0.000167
667 0.000170
668 0.000176
669 0.000183
670 0.000189
671 0.000189
672 0.000185
673 0.000180
674 0.000180
675 0.000177
676 0.000172
677 0.000173
678 0.000174
679 0.000175
680 0.000175
681 0.000178
682 0.000183
683 0.000187
684 0.000186
685 0.000189
686 0.000191
687 0.000192
688 0.000194
689 0.000196
690 0.000201
691 0.000203
692 0.000209
693 0.000209
694 0.000211
695 0.000208
696 0.000202
697 0.000202
698 0.000202
699 0.000207
700 0.000208
701 0.000207
702 0.000206
703 0.000206
704 0.000208
705 0.000205
706 0.000204
707 0.000204
708 0.000202
709 0.000207
710 0.000203
711 0.000202
712 0.000202
713 0.000205
714 0.000209
715 0.000215
716 0.000219
717 0.000222
718 0.000221
719 0.000217
720 0.000221
721 0.000222
722 0.000221
723 0.000220
724 0.000222
725 0.000225
726 0.000229
727 0.000234
728 0.000236
729 0.000237
730 0.000240
731 0.000241
732 0.000241
733 0.000241
734 0.000239
735 0.000233
736 0.000231
737 0.000228
738 0.000229
739 0.000229
740 0.000231
741 0.000232
742 0.000231
743 0.000228
744 0.000225
745 0.000218
746 0.000212
747 0.000203
748 0.000199
749 0.000195
750 0.000188
751 0.000191
752 0.000195
753 0.000200
754 0.000201
755 0.000206
756 0.000205
757 0.000200
758 0.000197
759 0.000191
760 0.000183
761 0.000179
762 0.000178
763 0.000176
764 0.000176
765 0.000180
766 0.000180
767 0.000184
768 0.000189
769 0.000190
770 0.000185
771 0.000179
772 0.000175
773 0.000165
774 0.000160
775 0.000156
776 0.000154
777 0.000151
778 0.000155
779 0.000154
780 0.000154
781 0.000153
782 0.000155
783 0.000160
784 0.000165
785 0.000168
786 0.000169
787 0.000172
788 0.000176
789 0.000180
790 0.000186
791 0.000193
792 0.000195
793 0.000202
794 0.000200
795 0.000203
796 0.000205
797 0.000209
798 0.000210
799 0.000214
800 0.000222
801 0.000230
802 0.000239
803 0.000244
804 0.000248
805 0.000249
806 0.000250
807 0.000246
808 0.000244
809 0.000239
