# i correlation
1 0.001811
2 0.001734
3 0.001677
4 0.001629
5 0.001588
6 0.001552
7 0.001524
8 0.001494
9 0.001465
10 0.001439
11 0.001415
12 0.001389
13 0.001373
14 0.001364
15 0.001354
16 0.001349
17 0.001338
18 0.001331
19 0.001325
20 0.001320
21 0.001313
22 0.001314
23 0.001315
24 0.001304
25 0.001299
26 0.001289
27 0.001283
28 0.001275
29 0.001274
30 0.001277
31 0.001280
32 0.001290
33 0.001296
34 0.001303
35 0.001316
36 0.001319
37 0.001317
38 0.001315
39 0.001309
40 0.001303
41 0.001296
42 0.001288
43 0.001282
44 0.001277
45 0.001264
46 0.001246
47 0.001235
48 0.001220
49 0.001200
50 0.001191
51 0.001180
52 0.001176
53 0.001177
54 0.001182
55 0.001180
56 0.001180
57 0.001174
58 0.001166
59 0.001149
60 0.001133
61 0.001127
62 0.001127
63 0.001127
64 0.001137
65 0.001144
66 0.001140
67 0.001130
68 0.001117
69 0.001114
70 0.001116
71 0.001115
72 0.001120
73 0.001117
74 0.001104
75 0.001096
76 0.001086
77 0.001081
78 0.001079
79 0.001080
80 0.001072
81 0.001059
82 0.001046
83 0.001036
84 0.001027
85 0.001023
86 0.001017
87 0.001018
88 0.001020
89 0.001024
90 0.001008
91 0.001005
92 0.000998
93 0.000993
94 0.000988
95 0.000978
96 0.000968
97 0.000956
98 0.000947
99 0.000942
100 0.000937
101 0.000934
102 0.000932
103 0.000929
104 0.000929
105 0.000930
106 0.000928
107 0.000928
108 0.000928
109 0.000925
110 0.000924
111 0.000924
112 0.000920
113 0.000907
114 0.000895
115 0.000887
116 0.000884
117 0.000882
118 0.000883
119 0.000884
120 0.000886
121 0.000887
122 0.000890
123 0.000883
124 0.000871
125 0.000862
126 0.000866
127 0.000869
128 0.000869
129 0.000869
130 0.000865
131 0.000859
132 0.000853
133 0.000850
134 0.000848
135 0.000851
136 0.000851
137 0.000840
138 0.000831
139 0.000834
140 0.000845
141 0.000856
142 0.000865
143 0.000875
144 0.000888
145 0.000908
146 0.000917
147 0.000921
148 0.000911
149 0.000900
150 0.000886
151 0.000876
152 0.000869
153 0.000859
154 0.000849
155 0.000832
156 0.000825
157 0.000819
158 0.000809
159 0.000806
160 0.000805
161 0.000809
162 0.000810
163 0.000809
164 0.000806
165 0.000802
166 0.000802
167 0.000797
168 0.000790
169 0.000783
170 0.000783
171 0.000773
172 0.000774
173 0.000778
174 0.000785
175 0.000785
176 0.000789
177 0.000789
178 0.000788
179 0.000788
180 0.000794
181 0.000794
182 0.000792
183 0.000792
184 0.000796
185 0.000793
186 0.000790
187 0.000785
188 0.000785
189 0.000785
190 0.000775
191 0.000767
192 0.000755
193 0.000745
194 0.000731
195 0.000716
196 0.000709
197 0.000710
198 0.000708
199 0.000707
200 0.000702
201 0.000697
202 0.000686
203 0.000677
204 0.000671
205 0.000669
206 0.000669
207 0.000672
208 0.000672
209 0.000669
210 0.000661
211 0.000665
212 0.000675
213 0.000679
214 0.000681
215 0.000683
216 0.000687
217 0.000692
218 0.000703
219 0.000710
220 0.000711
221 0.000711
222 0.000710
223 0.000706
224 0.000705
225 0.000699
226 0.000695
227 0.000690
228 0.000690
229 0.000696
230 0.000699
231 0.000707
232 0.000712
233 0.000713
234 0.000717
235 0.000708
236 0.000696
237 0.000684
238 0.000685
239 0.000686
240 0.000682
241 0.000683
242 0.000689
243 0.000682
244 0.000669
245 0.000660
246 0.000656
247 0.000654
248 0.000654
249 0.000645
250 0.000631
251 0.000625
252 0.000617
253 0.000617
254 0.000616
255 0.000614
256 0.000620
257 0.000620
258 0.000619
259 0.000616
260 0.000602
261 0.000600
262 0.000601
263 0.000604
264 0.000609
265 0.000613
266 0.000622
267 0.000625
268 0.000630
269 0.000639
270 0.000644
271 0.000644
272 0.000642
273 0.000639
274 0.000634
275 0.000627
276 0.000622
277 0.000623
278 0.000624
279 0.000620
280 0.000616
281 0.000614
282 0.000612
283 0.000614
284 0.000607
285 0.000607
286 0.000612
287 0.000609
288 0.000608
289 0.000608
290 0.000608
291 0.000610
292 0.000616
293 0.000623
294 0.000624
295 0.000628
296 0.000645
297 0.000651
298 0.000650
299 0.000644
300 0.000646
301 0.000653
302 0.000656
303 0.000666
304 0.000683
305 0.000697
306 0.000704
307 0.000710
308 0.000714
309 0.000713
310 0.000712
311 0.000714
312 0.000713
313 0.000706
314 0.000697
315 0.000694
316 0.000684
317 0.000674
318 0.000662
319 0.000660
320 0.000658
321 0.000656
322 0.000651
323 0.000654
324 0.000654
325 0.000655
326 0.000658
327 0.000661
328 0.000665
329 0.000665
330 0.000662
331 0.000655
332 0.000643
333 0.000636
334 0.000628
335 0.000621
336 0.000621
337 0.000620
338 0.000617
339 0.000621
340 0.000632
341 0.000643
342 0.000652
343 0.000659
344 0.000663
345 0.000669
346 0.000671
347 0.000675
348 0.000681
349 0.000682
350 0.000686
351 0.000688
352 0.000689
353 0.000686
354 0.000673
355 0.000660
356 0.000641
357 0.000621
358 0.000612
359 0.000609
360 0.000611
361 0.000616
362 0.000620
363 0.000626
364 0.000624
365 0.000626
366 0.000629
367 0.000627
368 0.000622
369 0.000628
370 0.000635
371 0.000635
372 0.000629
373 0.000627
374 0.000632
375 0.000640
376 0.000646
377 0.000656
378 0.000659
379 0.000660
380 0.000658
381 0.000663
382 0.000663
383 0.000670
384 0.000678
385 0.000685
386 0.000689
387 0.000688
388 0.000689
389 0.000686
390 0.000681
391 0.000671
392 0.000668
393 0.000657
394 0.000653
395 0.000648
396 0.000640
397 0.000631
398 0.000621
399 0.000614
400 0.000612
401 0.000616
402 0.000614
403 0.000614
404 0.000615
405 0.000617
406 0.000622
407 0.000617
408 0.000614
409 0.000611
410 0.000611
411 0.000607
412 0.000604
413 0.000600
414 0.000600
415 0.000603
416 0.000609
417 0.000618
418 0.000625
419 0.000629
420 0.000631
421 0.000626
422 0.000617
423 0.000609
424 0.000601
425 0.000595
426 0.000588
427 0.000578
428 0.000568
429 0.000552
430 0.000541
431 0.000535
432 0.000534
433 0.000532
434 0.000525
435 0.000519
436 0.000516
437 0.000513
438 0.000515
439 0.000521
440 0.000524
441 0.000523
442 0.000522
443 0.000521
444 0.000516
445 0.000514
446 0.000515
447 0.000517
448 0.000520
449 0.000525
450 0.000532
451 0.000535
452 0.000536
453 0.000538
454 0.000539
455 0.000541
456 0.000539
457 0.000537
458 0.000533
459 0.000531
460 0.000528
461 0.000519
462 0.000509
463 0.000498
464 0.000488
465 0.000477
466 0.000465
467 0.000451
468 0.000443
469 0.000432
470 0.000432
471 0.000435
472 0.000432
473 0.000428
474 0.000423
475 0.000421
476 0.000419
477 0.000416
478 0.000410
479 0.000400
480 0.000397
481 0.000398
482 0.000397
483 0.000389
484 0.000384
485 0.000387
486 0.000388
487 0.000386
488 0.000386
489 0.000392
490 0.000402
491 0.000407
492 0.000408
493 0.000410
494 0.000414
495 0.000425
496 0.000431
497 0.000436
498 0.000436
499 0.000437
500 0.000434
501 0.000428
502 0.000416
503 0.000404
504 0.000395
505 0.000391
506 0.000381
507 0.000371
508 0.000360
509 0.000354
510 0.000353
511 0.000354
512 0.000356
513 0.000352
514 0.000354
515 0.000355
516 0.000360
517 0.000370
518 0.000379
519 0.000380
520 0.000373
521 0.000370
522 0.000367
523 0.000368
524 0.000373
525 0.000382
526 0.000389
527 0.000395
528 0.000398
529 0.000400
530 0.000401
531 0.000400
532 0.000399
533 0.000392
534 0.000388
535 0.000384
536 0.000385
537 0.000392
538 0.000390
539 0.000390
540 0.000387
541 0.000381
542 0.000380
543 0.000377
544 0.000373
545 0.000367
546 0.000366
547 0.000367
548 0.000364
549 0.000367
550 0.000368
551 0.000367
552 0.000366
553 0.000364
554 0.000361
555 0.000361
556 0.000351
557 0.000342
558 0.000334
559 0.000329
560 0.000324
561 0.000324
562 0.000330
563 0.000336
564 0.000332
565 0.000331
566 0.000332
567 0.000333
568 0.000330
569 0.000325
570 0.000321
571 0.000318
572 0.000317
573 0.000312
574 0.000312
575 0.000311
576 0.000303
577 0.000296
578 0.000288
579 0.000285
580 0.000277
581 0.000274
582 0.000277
583 0.000281
584 0.000286
585 0.000287
586 0.000281
587 0.000274
588 0.000266
589 0.000263
590 0.000264
591 0.000260
592 0.000257
593 0.000256
594 0.000258
595 0.000255
596 0.000250
597 0.000251
598 0.000253
599 0.000253
600 0.000245
601 0.000239
602 0.000234
603 0.000227
604 0.000218
605 0.000214
606 0.000217
607 0.000217
608 0.000219
609 0.000218
610 0.000211
611 0.000211
612 0.000216
613 0.000217
614 0.000218
615 0.000222
616 0.000229
617 0.000240
618 0.000253
619 0.000266
620 0.000270
621 0.000274
622 0.000281
623 0.000277
624 0.000273
625 0.000274
626 0.000273
627 0.000269
628 0.000269
629 0.000266
630 0.000264
631 0.000263
632 0.000261
633 0.000258
634 0.000253
635 0.000248
636 0.000245
637 0.000247
638 0.000251
639 0.000248
640 0.000245
641 0.000242
642 0.000235
643 0.000228
644 0.000226
645 0.000220
646 0.000212
647 0.000204
648 0.000195
649 0.000188
650 0.000182
651 0.000179
652 0.000178
653 0.000173
654 0.000172
655 0.000170
656 0.000169
657 0.000170
658 0.000176
659 0.000184
660 0.000188
661 0.000188
662 0.000189
663 0.000190
664 0.000190
665 0.000188
666 0.000192
667 0.000192
668 0.000189
669 0.000185
670 0.000186
671 0.000189
672 0.000194
673 0.000200
674 0.000204
675 0.000208
676 0.000210
677 0.000215
678 0.000223
679 0.000227
680 0.000225
681 0.000225
682 0.000230
683 0.000232
684 0.000236
685 0.000238
686 0.000237
687 0.000234
688 0.000231
689 0.000231
690 0.000228
691 0.000222
692 0.000216
693 0.000214
694 0.000214
695 0.000211
696 0.000205
697 0.000201
698 0.000198
699 0.000194
700 0.000188
701 0.000186
702 0.000185
703 0.000183
704 0.000182
705 0.000181
706 0.000177
707 0.000178
708 0.000185
709 0.000190
710 0.000194
711 0.000197
712 0.000198
713 0.000198
714 0.000196
715 0.000198
716 0.000200
717 0.000202
718 0.000199
719 0.000198
720 0.000197
721 0.000190
722 0.000182
723 0.000178
724 0.000178
725 0.000178
726 0.000175
727 0.000167
728 0.000162
729 0.000165
730 0.000169
731 0.000171
732 0.000169
733 0.000166
734 0.000161
735 0.000154
736 0.000149
737 0.000149
738 0.000146
739 0.000141
740 0.000136
741 0.000131
742 0.000127
743 0.000126
744 0.000122
745 0.000120
746 0.000118
747 0.000119
748 0.000119
749 0.000114
750 0.000107
751 0.000101
752 0.000097
753 0.000093
754 0.000089
755 0.000088
756 0.000079
757 0.000073
758 0.000072
759 0.000073
760 0.000076
761 0.000077
762 0.000078
763 0.000080
764 0.000086
765 0.000090
766 0.000095
767 0.000100
768 0.000105
769 0.000105
770 0.000102
771 0.000103
772 0.000102
773 0.000104
774 0.000099
775 0.000096
776 0.000090
777 0.000083
778 0.000081
779 0.000076
780 0.000075
781 0.000075
782 0.000076
783 0.000074
784 0.000069
785 0.000066
786 0.000062
787 0.000061
788 0.000060
789 0.000059
790 0.000058
791 0.000056
792 0.000052
793 0.000045
794 0.000039
795 0.000040
796 0.000043
797 0.000043
798 0.000042
799 0.000041
800 0.000042
801 0.000046
802 0.000047
803 0.000051
804 0.000058
805 0.000064
806 0.000068
807 0.000070
808 0.000072
809 0.000071
