# i correlation
1 0.001948
2 0.001866
3 0.001793
4 0.001727
5 0.001666
6 0.001621
7 0.001583
8 0.001545
9 0.001507
10 0.001481
11 0.001444
12 0.001413
13 0.001388
14 0.001371
15 0.001357
16 0.001341
17 0.001334
18 0.001330
19 0.001327
20 0.001325
21 0.001328
22 0.001332
23 0.001340
24 0.001342
25 0.001348
26 0.001340
27 0.001328
28 0.001315
29 0.001301
30 0.001281
31 0.001259
32 0.001243
33 0.001234
34 0.001232
35 0.001235
36 0.001235
37 0.001243
38 0.001252
39 0.001257
40 0.001264
41 0.001258
42 0.001255
43 0.001257
44 0.001259
45 0.001257
46 0.001244
47 0.001230
48 0.001221
49 0.001210
50 0.001209
51 0.001207
52 0.001210
53 0.001211
54 0.001205
55 0.001195
56 0.001169
57 0.001138
58 0.001125
59 0.001117
60 0.001115
61 0.001109
62 0.001111
63 0.001112
64 0.001117
65 0.001130
66 0.001143
67 0.001162
68 0.001179
69 0.001180
70 0.001183
71 0.001172
72 0.001168
73 0.001164
74 0.001164
75 0.001155
76 0.001146
77 0.001144
78 0.001145
79 0.001145
80 0.001139
81 0.001121
82 0.001115
83 0.001105
84 0.001094
85 0.001082
86 0.001057
87 0.001039
88 0.001027
89 0.001020
90 0.001014
91 0.001012
92 0.001011
93 0.001017
94 0.001017
95 0.001020
96 0.001017
97 0.001016
98 0.001011
99 0.001001
100 0.000998
101 0.000993
102 0.000989
103 0.000987
104 0.000989
105 0.001001
106 0.001004
107 0.001001
108 0.000993
109 0.000976
110 0.000967
111 0.000952
112 0.000943
113 0.000942
114 0.000938
115 0.000937
116 0.000937
117 0.000941
118 0.000947
119 0.000952
120 0.000955
121 0.000951
122 0.000949
123 0.000939
124 0.000934
125 0.000937
126 0.000933
127 0.000919
128 0.000915
129 0.000908
130 0.000899
131 0.000879
132 0.000874
133 0.000878
134 0.000881
135 0.000888
136 0.000880
137 0.000879
138 0.000872
139 0.000870
140 0.000874
141 0.000872
142 0.000865
143 0.000870
144 0.000872
145 0.000871
146 0.000871
147 0.000860
148 0.000848
149 0.000837
150 0.000826
151 0.000814
152 0.000803
153 0.000796
154 0.000776
155 0.000757
156 0.000745
157 0.000736
158 0.000745
159 0.000754
160 0.000763
161 0.000759
162 0.000767
163 0.000775
164 0.000772
165 0.000770
166 0.000766
167 0.000768
168 0.000776
169 0.000778
170 0.000779
171 0.000782
172 0.000791
173 0.000794
174 0.000798
175 0.000799
176 0.000793
177 0.000789
178 0.000794
179 0.000795
180 0.000795
181 0.000793
182 0.000788
183 0.000791
184 0.000793
185 0.000799
186 0.000793
187 0.000790
188 0.000792
189 0.000790
190 0.000782
191 0.000756
192 0.000738
193 0.000731
194 0.000722
195 0.000712
196 0.000712
197 0.000715
198 0.000709
199 0.000699
200 0.000690
201 0.000676
202 0.000669
203 0.000664
204 0.000668
205 0.000667
206 0.000666
207 0.000677
208 0.000689
209 0.000695
210 0.000687
211 0.000693
212 0.000698
213 0.000705
214 0.000710
215 0.000708
216 0.000696
217 0.000691
218 0.000683
219 0.000680
220 0.000669
221 0.000667
222 0.000665
223 0.000666
224 0.000662
225 0.000656
226 0.000657
227 0.000650
228 0.000640
229 0.000622
230 0.000616
231 0.000609
232 0.000609
233 0.000609
234 0.000604
235 0.000606
236 0.000605
237 0.000608
238 0.000614
239 0.000618
240 0.000625
241 0.000626
242 0.000631
243 0.000637
244 0.000631
245 0.000631
246 0.000628
247 0.000625
248 0.000630
249 0.000631
250 0.000626
251 0.000630
252 0.000638
253 0.000641
254 0.000641
255 0.000644
256 0.000648
257 0.000651
258 0.000651
259 0.000649
260 0.000648
261 0.000649
262 0.000644
263 0.000646
264 0.000646
265 0.000650
266 0.000658
267 0.000662
268 0.000657
269 0.000644
270 0.000636
271 0.000619
272 0.000604
273 0.000591
274 0.000584
275 0.000587
276 0.000592
277 0.000597
278 0.000603
279 0.000609
280 0.000618
281 0.000631
282 0.000634
283 0.000636
284 0.000627
285 0.000619
286 0.000610
287 0.000597
288 0.000587
289 0.000579
290 0.000569
291 0.000568
292 0.000564
293 0.000566
294 0.000567
295 0.000565
296 0.000555
297 0.000545
298 0.000531
299 0.000520
300 0.000506
301 0.000504
302 0.000509
303 0.000509
304 0.000511
305 0.000512
306 0.000518
307 0.000519
308 0.000516
309 0.000523
310 0.000529
311 0.000531
312 0.000534
313 0.000539
314 0.000542
315 0.000545
316 0.000548
317 0.000551
318 0.000557
319 0.000558
320 0.000568
321 0.000581
322 0.000589
323 0.000589
324 0.000589
325 0.000590
326 0.000587
327 0.000583
328 0.000576
329 0.000573
330 0.000578
331 0.000591
332 0.000595
333 0.000608
334 0.000619
335 0.000624
336 0.000623
337 0.000621
338 0.000612
339 0.000606
340 0.000596
341 0.000588
342 0.000570
343 0.000556
344 0.000537
345 0.000521
346 0.000512
347 0.000509
348 0.000515
349 0.000517
350 0.000521
351 0.000517
352 0.000513
353 0.000501
354 0.000498
355 0.000492
356 0.000497
357 0.000507
358 0.000514
359 0.000520
360 0.000529
361 0.000540
362 0.000542
363 0.000537
364 0.000532
365 0.000530
366 0.000519
367 0.000514
368 0.000499
369 0.000484
370 0.000466
371 0.000459
372 0.000458
373 0.000460
374 0.000454
375 0.000449
376 0.000446
377 0.000446
378 0.000447
379 0.000451
380 0.000452
381 0.000453
382 0.000451
383 0.000458
384 0.000457
385 0.000461
386 0.000480
387 0.000491
388 0.000494
389 0.000498
390 0.000494
391 0.000492
392 0.000487
393 0.000482
394 0.000475
395 0.000469
396 0.000459
397 0.000444
398 0.000430
399 0.000425
400 0.000428
401 0.000444
402 0.000453
403 0.000458
404 0.000467
405 0.000475
406 0.000473
407 0.000472
408 0.000469
409 0.000464
410 0.000460
411 0.000461
412 0.000455
413 0.000442
414 0.000426
415 0.000412
416 0.000404
417 0.000391
418 0.000379
419 0.000371
420 0.000359
421 0.000344
422 0.000326
423 0.000317
424 0.000313
425 0.000304
426 0.000311
427 0.000316
428 0.000328
429 0.000327
430 0.000329
431 0.000330
432 0.000331
433 0.000331
434 0.000336
435 0.000340
436 0.000338
437 0.000331
438 0.000325
439 0.000330
440 0.000330
441 0.000334
442 0.000335
443 0.000333
444 0.000325
445 0.000322
446 0.000320
447 0.000316
448 0.000309
449 0.000305
450 0.000308
451 0.000310
452 0.000314
453 0.000327
454 0.000335
455 0.000350
456 0.000368
457 0.000383
458 0.000390
459 0.000400
460 0.000413
461 0.000429
462 0.000433
463 0.000440
464 0.000443
465 0.000442
466 0.000439
467 0.000430
468 0.000416
469 0.000400
470 0.000385
471 0.000371
472 0.000350
473 0.000338
474 0.000328
475 0.000319
476 0.000307
477 0.000301
478 0.000306
479 0.000311
480 0.000320
481 0.000326
482 0.000325
483 0.000327
484 0.000332
485 0.000334
486 0.000337
487 0.000340
488 0.000344
489 0.000349
490 0.000348
491 0.000346
492 0.000343
493 0.000339
494 0.000338
495 0.000331
496 0.000327
497 0.000323
498 0.000327
499 0.000328
500 0.000333
501 0.000337
502 0.000340
503 0.000339
504 0.000334
505 0.000328
506 0.000332
507 0.000334
508 0.000340
509 0.000344
510 0.000345
511 0.000341
512 0.000333
513 0.000325
514 0.000312
515 0.000299
516 0.000289
517 0.000278
518 0.000275
519 0.000279
520 0.000281
521 0.000283
522 0.000278
523 0.000273
524 0.000270
525 0.000266
526 0.000261
527 0.000253
528 0.000243
529 0.000243
530 0.000241
531 0.000241
532 0.000240
533 0.000245
534 0.000243
535 0.000241
536 0.000237
537 0.000228
538 0.000217
539 0.000207
540 0.000195
541 0.000187
542 0.000178
543 0.000168
544 0.000165
545 0.000167
546 0.000171
547 0.000169
548 0.000169
549 0.000159
550 0.000149
551 0.000134
552 0.000129
553 0.000126
554 0.000127
555 0.000125
556 0.000125
557 0.000123
558 0.000124
559 0.000125
560 0.000134
561 0.000145
562 0.000153
563 0.000161
564 0.000169
565 0.000174
566 0.000176
567 0.000181
568 0.000183
569 0.000186
570 0.000184
571 0.000181
572 0.000175
573 0.000168
574 0.000164
575 0.000159
576 0.000155
577 0.000147
578 0.000142
579 0.000138
580 0.000130
581 0.000126
582 0.000125
583 0.000120
584 0.000122
585 0.000128
586 0.000136
587 0.000144
588 0.000153
589 0.000159
590 0.000162
591 0.000164
592 0.000162
593 0.000156
594 0.000152
595 0.000148
596 0.000141
597 0.000132
598 0.000127
599 0.000124
600 0.000120
601 0.000120
602 0.000119
603 0.000116
604 0.000118
605 0.000117
606 0.000117
607 0.000115
608 0.000111
609 0.000103
610 0.000092
611 0.000076
612 0.000064
613 0.000059
614 0.000058
615 0.000057
616 0.000060
617 0.000061
618 0.000058
619 0.000052
620 0.000038
621 0.000019
622 0.000005
623 -0.000006
624 -0.000012
625 -0.000013
626 -0.000014
627 -0.000011
628 -0.000004
629 -0.000001
630 0.000000
631 0.000003
632 0.000005
633 0.000008
634 0.000006
635 0.000014
636 0.000016
637 0.000022
638 0.000024
639 0.000030
640 0.000038
641 0.000042
642 0.000049
643 0.000061
644 0.000069
645 0.000075
646 0.000079
647 0.000083
648 0.000082
649 0.000084
650 0.000084
651 0.000081
652 0.000080
653 0.000083
654 0.000087
655 0.000080
656 0.000078
657 0.000072
658 0.000061
659 0.000051
660 0.000044
661 0.000036
662 0.000026
663 0.000019
664 0.000014
665 0.000005
666 0.000000
667 0.000004
668 0.000009
669 0.000020
670 0.000031
671 0.000043
672 0.000053
673 0.000055
674 0.000063
675 0.000067
676 0.000067
677 0.000066
678 0.000069
679 0.000071
680 0.000069
681 0.000068
682 0.000071
683 0.000072
684 0.000068
685 0.000071
686 0.000069
687 0.000071
688 0.000070
689 0.000070
690 0.000064
691 0.000056
692 0.000049
693 0.000044
694 0.000032
695 0.000025
696 0.000019
697 0.000017
698 0.000015
699 0.000014
700 0.000013
701 0.000013
702 0.000007
703 0.000003
704 -0.000003
705 -0.000008
706 -0.000013
707 -0.000009
708 -0.000008
709 -0.000006
710 -0.000004
711 -0.000004
712 -0.000002
713 0.000002
714 0.000006
715 0.000005
716 0.000001
717 -0.000003
718 -0.000005
719 -0.000009
720 -0.000012
721 -0.000010
722 -0.000001
723 0.000003
724 0.000007
725 0.000012
726 0.000015
727 0.000015
728 0.000019
729 0.000024
730 0.000027
731 0.000027
732 0.000029
733 0.000028
734 0.000032
735 0.000034
736 0.000037
737 0.000042
738 0.000047
739 0.000045
740 0.000042
741 0.000041
742 0.000039
743 0.000036
744 0.000036
745 0.000037
746 0.000029
747 0.000023
748 0.000020
749 0.000014
750 0.000012
751 0.000012
752 0.000013
753 0.000017
754 0.000024
755 0.000026
756 0.000024
757 0.000023
758 0.000019
759 0.000014
760 0.000010
761 0.000003
762 -0.000001
763 -0.000007
764 -0.000013
765 -0.000018
766 -0.000021
767 -0.000021
768 -0.000018
769 -0.000016
770 -0.000016
771 -0.000019
772 -0.000023
773 -0.000025
774 -0.000023
775 -0.000019
776 -0.000011
777 -0.000004
778 0.000006
779 0.000015
780 0.000024
781 0.000029
782 0.000037
783 0.000036
784 0.000036
785 0.000037
786 0.000036
787 0.000033
788 0.000032
789 0.000033
790 0.000036
791 0.000040
792 0.000043
793 0.000048
794 0.000046
795 0.000046
796 0.000047
797 0.000050
798 0.000050
799 0.000048
800 0.000048
801 0.000048
802 0.000048
803 0.000049
804 0.000050
805 0.000049
806 0.000044
807 0.000043
808 0.000038
809 0.000030
