# i correlation
1 0.001994
2 0.001918
3 0.001854
4 0.001807
5 0.001763
6 0.001722
7 0.001691
8 0.001664
9 0.001645
10 0.001631
11 0.001614
12 0.001609
13 0.001604
14 0.001599
15 0.001592
16 0.001576
17 0.001568
18 0.001564
19 0.001552
20 0.001534
21 0.001523
22 0.001515
23 0.001505
24 0.001493
25 0.001478
26 0.001457
27 0.001454
28 0.001451
29 0.001441
30 0.001426
31 0.001411
32 0.001398
33 0.001391
34 0.001392
35 0.001377
36 0.001367
37 0.001363
38 0.001358
39 0.001350
40 0.001339
41 0.001333
42 0.001325
43 0.001318
44 0.001301
45 0.001286
46 0.001276
47 0.001269
48 0.001252
49 0.001239
50 0.001222
51 0.001218
52 0.001209
53 0.001187
54 0.001173
55 0.001157
56 0.001154
57 0.001149
58 0.001148
59 0.001147
60 0.001143
61 0.001139
62 0.001140
63 0.001140
64 0.001142
65 0.001143
66 0.001144
67 0.001141
68 0.001128
69 0.001115
70 0.001117
71 0.001119
72 0.001122
73 0.001120
74 0.001126
75 0.001129
76 0.001124
77 0.001119
78 0.001119
79 0.001129
80 0.001137
81 0.001151
82 0.001169
83 0.001182
84 0.001190
85 0.001193
86 0.001192
87 0.001193
88 0.001193
89 0.001189
90 0.001171
91 0.001159
92 0.001147
93 0.001132
94 0.001123
95 0.001121
96 0.001118
97 0.001119
98 0.001117
99 0.001112
100 0.001110
101 0.001106
102 0.001100
103 0.001093
104 0.001079
105 0.001065
106 0.001060
107 0.001050
108 0.001038
109 0.001032
110 0.001030
111 0.001023
112 0.001017
113 0.001006
114 0.000985
115 0.000956
116 0.000934
117 0.000921
118 0.000913
119 0.000911
120 0.000900
121 0.000899
122 0.000904
123 0.000912
124 0.000906
125 0.000906
126 0.000905
127 0.000897
128 0.000892
129 0.000881
130 0.000883
131 0.000872
132 0.000862
133 0.000843
134 0.000837
135 0.000831
136 0.000821
137 0.000809
138 0.000798
139 0.000792
140 0.000792
141 0.000795
142 0.000797
143 0.000780
144 0.000785
145 0.000777
146 0.000771
147 0.000762
148 0.000747
149 0.000732
150 0.000712
151 0.000700
152 0.000688
153 0.000679
154 0.000672
155 0.000666
156 0.000659
157 0.000666
158 0.000668
159 0.000679
160 0.000682
161 0.000685
162 0.000685
163 0.000687
164 0.000688
165 0.000687
166 0.000681
167 0.000678
168 0.000679
169 0.000686
170 0.000689
171 0.000695
172 0.000700
173 0.000707
174 0.000711
175 0.000714
176 0.000715
177 0.000717
178 0.000715
179 0.000713
180 0.000706
181 0.000713
182 0.000720
183 0.000732
184 0.000740
185 0.000749
186 0.000758
187 0.000765
188 0.000775
189 0.000775
190 0.000774
191 0.000772
192 0.000770
193 0.000773
194 0.000775
195 0.000781
196 0.000777
197 0.000769
198 0.000770
199 0.000752
200 0.000737
201 0.000725
202 0.000714
203 0.000710
204 0.000707
205 0.000705
206 0.000713
207 0.000719
208 0.000727
209 0.000736
210 0.000740
211 0.000749
212 0.000753
213 0.000753
214 0.000748
215 0.000749
216 0.000753
217 0.000751
218 0.000747
219 0.000751
220 0.000750
221 0.000742
222 0.000743
223 0.000754
224 0.000762
225 0.000772
226 0.000772
227 0.000764
228 0.000752
229 0.000748
230 0.000744
231 0.000740
232 0.000733
233 0.000733
234 0.000733
235 0.000733
236 0.000732
237 0.000725
238 0.000716
239 0.000704
240 0.000694
241 0.000682
242 0.000681
243 0.000672
244 0.000671
245 0.000670
246 0.000664
247 0.000665
248 0.000672
249 0.000680
250 0.000688
251 0.000696
252 0.000700
253 0.000702
254 0.000710
255 0.000709
256 0.000708
257 0.000707
258 0.000719
259 0.000725
260 0.000736
261 0.000742
262 0.000745
263 0.000750
264 0.000751
265 0.000754
266 0.000755
267 0.000760
268 0.000763
269 0.000765
270 0.000768
271 0.000769
272 0.000782
273 0.000784
274 0.000792
275 0.000799
276 0.000815
277 0.000826
278 0.000834
279 0.000842
280 0.000840
281 0.000839
282 0.000845
283 0.000844
284 0.000840
285 0.000835
286 0.000840
287 0.000845
288 0.000852
289 0.000858
290 0.000866
291 0.000872
292 0.000870
293 0.000874
294 0.000875
295 0.000880
296 0.000886
297 0.000895
298 0.000898
299 0.000901
300 0.000901
301 0.000906
302 0.000900
303 0.000897
304 0.000894
305 0.000899
306 0.000908
307 0.000917
308 0.000918
309 0.000917
310 0.000912
311 0.000907
312 0.000899
313 0.000886
314 0.000876
315 0.000868
316 0.000867
317 0.000868
318 0.000871
319 0.000866
320 0.000861
321 0.000862
322 0.000861
323 0.000855
324 0.000848
325 0.000844
326 0.000839
327 0.000824
328 0.000818
329 0.000805
330 0.000794
331 0.000779
332 0.000769
333 0.000755
334 0.000747
335 0.000741
336 0.000733
337 0.000727
338 0.000725
339 0.000722
340 0.000724
341 0.000717
342 0.000714
343 0.000714
344 0.000712
345 0.000715
346 0.000716
347 0.000717
348 0.000716
349 0.000715
350 0.000712
351 0.000710
352 0.000711
353 0.000710
354 0.000704
355 0.000703
356 0.000700
357 0.000702
358 0.000703
359 0.000703
360 0.000706
361 0.000710
362 0.000712
363 0.000721
364 0.000724
365 0.000726
366 0.000728
367 0.000728
368 0.000731
369 0.000729
370 0.000730
371 0.000730
372 0.000728
373 0.000733
374 0.000728
375 0.000726
376 0.000723
377 0.000725
378 0.000721
379 0.000718
380 0.000717
381 0.000717
382 0.000718
383 0.000713
384 0.000714
385 0.000711
386 0.000713
387 0.000702
388 0.000706
389 0.000710
390 0.000712
391 0.000714
392 0.000715
393 0.000714
394 0.000719
395 0.000724
396 0.000727
397 0.000727
398 0.000729
399 0.000728
400 0.000730
401 0.000730
402 0.000729
403 0.000726
404 0.000727
405 0.000728
406 0.000723
407 0.000727
408 0.000726
409 0.000725
410 0.000722
411 0.000717
412 0.000711
413 0.000709
414 0.000697
415 0.000681
416 0.000662
417 0.000648
418 0.000639
419 0.000635
420 0.000632
421 0.000621
422 0.000607
423 0.000597
424 0.000584
425 0.000572
426 0.000563
427 0.000557
428 0.000547
429 0.000539
430 0.000532
431 0.000533
432 0.000537
433 0.000539
434 0.000538
435 0.000546
436 0.000545
437 0.000543
438 0.000537
439 0.000528
440 0.000521
441 0.000516
442 0.000513
443 0.000509
444 0.000499
445 0.000494
446 0.000491
447 0.000494
448 0.000500
449 0.000502
450 0.000503
451 0.000509
452 0.000515
453 0.000524
454 0.000523
455 0.000517
456 0.000513
457 0.000505
458 0.000497
459 0.000488
460 0.000484
461 0.000479
462 0.000477
463 0.000472
464 0.000468
465 0.000465
466 0.000465
467 0.000458
468 0.000449
469 0.000450
470 0.000458
471 0.000461
472 0.000465
473 0.000465
474 0.000472
475 0.000480
476 0.000489
477 0.000493
478 0.000489
479 0.000493
480 0.000491
481 0.000488
482 0.000484
483 0.000481
484 0.000480
485 0.000483
486 0.000483
487 0.000487
488 0.000489
489 0.000492
490 0.000488
491 0.000483
492 0.000479
493 0.000470
494 0.000474
495 0.000473
496 0.000475
497 0.000473
498 0.000470
499 0.000467
500 0.000467
501 0.000468
502 0.000470
503 0.000471
504 0.000472
505 0.000468
506 0.000463
507 0.000459
508 0.000450
509 0.000448
510 0.000442
511 0.000434
512 0.000426
513 0.000419
514 0.000415
515 0.000409
516 0.000407
517 0.000405
518 0.000400
519 0.000396
520 0.000392
521 0.000389
522 0.000386
523 0.000384
524 0.000384
525 0.000369
526 0.000364
527 0.000351
528 0.000343
529 0.000331
530 0.000332
531 0.000331
532 0.000335
533 0.000336
534 0.000331
535 0.000331
536 0.000335
537 0.000342
538 0.000346
539 0.000350
540 0.000355
541 0.000364
542 0.000370
543 0.000370
544 0.000371
545 0.000374
546 0.000372
547 0.000370
548 0.000366
549 0.000361
550 0.000352
551 0.000353
552 0.000352
553 0.000351
554 0.000351
555 0.000352
556 0.000350
557 0.000347
558 0.000348
559 0.000348
560 0.000352
561 0.000359
562 0.000358
563 0.000355
564 0.000353
565 0.000357
566 0.000356
567 0.000351
568 0.000346
569 0.000347
570 0.000350
571 0.000352
572 0.000348
573 0.000345
574 0.000346
575 0.000351
576 0.000363
577 0.000369
578 0.000370
579 0.000380
580 0.000387
581 0.000388
582 0.000395
583 0.000409
584 0.000417
585 0.000420
586 0.000425
587 0.000434
588 0.000444
589 0.000449
590 0.000452
591 0.000450
592 0.000448
593 0.000448
594 0.000447
595 0.000446
596 0.000445
597 0.000443
598 0.000448
599 0.000447
600 0.000448
601 0.000445
602 0.000443
603 0.000442
604 0.000444
605 0.000445
606 0.000445
607 0.000443
608 0.000442
609 0.000434
610 0.000428
611 0.000425
612 0.000422
613 0.000415
614 0.000410
615 0.000403
616 0.000400
617 0.000400
618 0.000405
619 0.000414
620 0.000418
621 0.000425
622 0.000423
623 0.000425
624 0.000433
625 0.000432
626 0.000435
627 0.000434
628 0.000434
629 0.000430
630 0.000424
631 0.000416
632 0.000404
633 0.000396
634 0.000389
635 0.000384
636 0.000383
637 0.000375
638 0.000371
639 0.000368
640 0.000367
641 0.000363
642 0.000364
643 0.000368
644 0.000373
645 0.000373
646 0.000376
647 0.000373
648 0.000366
649 0.000366
650 0.000363
651 0.000361
652 0.000357
653 0.000351
654 0.000344
655 0.000331
656 0.000316
657 0.000308
658 0.000309
659 0.000305
660 0.000301
661 0.000302
662 0.000308
663 0.000314
664 0.000321
665 0.000326
666 0.000327
667 0.000328
668 0.000331
669 0.000328
670 0.000333
671 0.000340
672 0.000349
673 0.000345
674 0.000343
675 0.000339
676 0.000333
677 0.000331
678 0.000329
679 0.000329
680 0.000326
681 0.000321
682 0.000325
683 0.000334
684 0.000335
685 0.000337
686 0.000340
687 0.000344
688 0.000343
689 0.000345
690 0.000346
691 0.000343
692 0.000345
693 0.000343
694 0.000339
695 0.000342
696 0.000345
697 0.000340
698 0.000338
699 0.000335
700 0.000335
701 0.000340
702 0.000341
703 0.000340
704 0.000338
705 0.000336
706 0.000341
707 0.000342
708 0.000342
709 0.000343
710 0.000350
711 0.000355
712 0.000355
713 0.000353
714 0.000351
715 0.000348
716 0.000341
717 0.000333
718 0.000328
719 0.000321
720 0.000315
721 0.000313
722 0.000307
723 0.000303
724 0.000299
725 0.000298
726 0.000300
727 0.000293
728 0.000293
729 0.000294
730 0.000297
731 0.000294
732 0.000288
733 0.000283
734 0.000281
735 0.000276
736 0.000271
737 0.000263
738 0.000257
739 0.000248
740 0.000240
741 0.000233
742 0.000228
743 0.000225
744 0.000220
745 0.000213
746 0.000209
747 0.000205
748 0.000202
749 0.000207
750 0.000209
751 0.000205
752 0.000200
753 0.000199
754 0.000196
755 0.000192
756 0.000188
757 0.000180
758 0.000173
759 0.000165
760 0.000158
761 0.000151
762 0.000145
763 0.000139
764 0.000138
765 0.000141
766 0.000141
767 0.000138
768 0.000138
769 0.000139
770 0.000142
771 0.000147
772 0.000149
773 0.000144
774 0.000140
775 0.000134
776 0.000129
777 0.000127
778 0.000126
779 0.000118
780 0.000115
781 0.000112
782 0.000112
783 0.000113
784 0.000116
785 0.000120
786 0.000122
787 0.000122
788 0.000120
789 0.000116
790 0.000109
791 0.000104
792 0.000100
793 0.000101
794 0.000098
795 0.000096
796 0.000096
797 0.000096
798 0.000096
799 0.000094
800 0.000095
801 0.000095
802 0.000093
803 0.000089
804 0.000084
805 0.000080
806 0.000077
807 0.000075
808 0.000074
809 0.000073
