# i correlation
1 0.002059
2 0.001966
3 0.001893
4 0.001834
5 0.001787
6 0.001750
7 0.001715
8 0.001687
9 0.001662
10 0.001643
11 0.001637
12 0.001624
13 0.001604
14 0.001584
15 0.001581
16 0.001573
17 0.001565
18 0.001564
19 0.001556
20 0.001552
21 0.001556
22 0.001540
23 0.001532
24 0.001528
25 0.001530
26 0.001523
27 0.001518
28 0.001506
29 0.001491
30 0.001480
31 0.001472
32 0.001464
33 0.001457
34 0.001462
35 0.001459
36 0.001454
37 0.001456
38 0.001462
39 0.001462
40 0.001469
41 0.001474
42 0.001478
43 0.001482
44 0.001480
45 0.001476
46 0.001470
47 0.001460
48 0.001447
49 0.001445
50 0.001445
51 0.001443
52 0.001446
53 0.001443
54 0.001429
55 0.001418
56 0.001400
57 0.001379
58 0.001368
59 0.001352
60 0.001337
61 0.001333
62 0.001334
63 0.001333
64 0.001340
65 0.001348
66 0.001350
67 0.001339
68 0.001329
69 0.001312
70 0.001297
71 0.001282
72 0.001266
73 0.001251
74 0.001237
75 0.001213
76 0.001198
77 0.001190
78 0.001181
79 0.001177
80 0.001178
81 0.001175
82 0.001171
83 0.001171
84 0.001174
85 0.001181
86 0.001185
87 0.001184
88 0.001190
89 0.001201
90 0.001197
91 0.001193
92 0.001190
93 0.001191
94 0.001175
95 0.001158
96 0.001146
97 0.001142
98 0.001125
99 0.001110
100 0.001095
101 0.001079
102 0.001068
103 0.001063
104 0.001067
105 0.001073
106 0.001077
107 0.001087
108 0.001095
109 0.001097
110 0.001089
111 0.001088
112 0.001087
113 0.001084
114 0.001085
115 0.001091
116 0.001091
117 0.001085
118 0.001086
119 0.001084
120 0.001082
121 0.001072
122 0.001052
123 0.001037
124 0.001025
125 0.001005
126 0.000987
127 0.000971
128 0.000955
129 0.000950
130 0.000945
131 0.000948
132 0.000955
133 0.000958
134 0.000953
135 0.000943
136 0.000932
137 0.000926
138 0.000926
139 0.000933
140 0.000926
141 0.000916
142 0.000905
143 0.000897
144 0.000890
145 0.000885
146 0.000882
147 0.000876
148 0.000864
149 0.000865
150 0.000871
151 0.000870
152 0.000869
153 0.000862
154 0.000859
155 0.000859
156 0.000862
157 0.000871
158 0.000875
159 0.000878
160 0.000873
161 0.000871
162 0.000866
163 0.000864
164 0.000858
165 0.000852
166 0.000844
167 0.000840
168 0.000826
169 0.000813
170 0.000810
171 0.000805
172 0.000812
173 0.000823
174 0.000826
175 0.000827
176 0.000824
177 0.000825
178 0.000819
179 0.000810
180 0.000804
181 0.000802
182 0.000802
183 0.000796
184 0.000797
185 0.000799
186 0.000792
187 0.000786
188 0.000778
189 0.000772
190 0.000762
191 0.000748
192 0.000735
193 0.000727
194 0.000721
195 0.000719
196 0.000718
197 0.000716
198 0.000717
199 0.000713
200 0.000715
201 0.000719
202 0.000718
203 0.000713
204 0.000713
205 0.000708
206 0.000707
207 0.000712
208 0.000711
209 0.000704
210 0.000698
211 0.000689
212 0.000683
213 0.000678
214 0.000673
215 0.000666
216 0.000657
217 0.000646
218 0.000633
219 0.000622
220 0.000607
221 0.000595
222 0.000603
223 0.000611
224 0.000619
225 0.000629
226 0.000633
227 0.000641
228 0.000653
229 0.000658
230 0.000667
231 0.000671
232 0.000666
233 0.000666
234 0.000661
235 0.000651
236 0.000644
237 0.000635
238 0.000630
239 0.000633
240 0.000630
241 0.000631
242 0.000629
243 0.000625
244 0.000622
245 0.000621
246 0.000623
247 0.000621
248 0.000616
249 0.000616
250 0.000616
251 0.000623
252 0.000628
253 0.000630
254 0.000636
255 0.000633
256 0.000631
257 0.000629
258 0.000622
259 0.000619
260 0.000616
261 0.000611
262 0.000608
263 0.000602
264 0.000597
265 0.000607
266 0.000619
267 0.000634
268 0.000644
269 0.000643
270 0.000639
271 0.000633
272 0.000628
273 0.000623
274 0.000618
275 0.000604
276 0.000586
277 0.000580
278 0.000584
279 0.000581
280 0.000582
281 0.000584
282 0.000587
283 0.000596
284 0.000603
285 0.000602
286 0.000611
287 0.000611
288 0.000608
289 0.000606
290 0.000599
291 0.000592
292 0.000584
293 0.000584
294 0.000585
295 0.000586
296 0.000590
297 0.000590
298 0.000588
299 0.000588
300 0.000582
301 0.000577
302 0.000572
303 0.000561
304 0.000554
305 0.000550
306 0.000541
307 0.000540
308 0.000541
309 0.000538
310 0.000535
311 0.000532
312 0.000533
313 0.000535
314 0.000542
315 0.000543
316 0.000550
317 0.000553
318 0.000549
319 0.000556
320 0.000566
321 0.000563
322 0.000564
323 0.000568
324 0.000570
325 0.000560
326 0.000547
327 0.000540
328 0.000533
329 0.000520
330 0.000512
331 0.000514
332 0.000515
333 0.000514
334 0.000519
335 0.000522
336 0.000518
337 0.000514
338 0.000509
339 0.000508
340 0.000508
341 0.000511
342 0.000515
343 0.000514
344 0.000511
345 0.000514
346 0.000515
347 0.000515
348 0.000518
349 0.000523
350 0.000519
351 0.000518
352 0.000518
353 0.000516
354 0.000526
355 0.000523
356 0.000513
357 0.000513
358 0.000513
359 0.000510
360 0.000508
361 0.000501
362 0.000498
363 0.000496
364 0.000491
365 0.000490
366 0.000486
367 0.000479
368 0.000468
369 0.000462
370 0.000462
371 0.000455
372 0.000452
373 0.000451
374 0.000454
375 0.000456
376 0.000455
377 0.000457
378 0.000456
379 0.000450
380 0.000443
381 0.000444
382 0.000444
383 0.000447
384 0.000443
385 0.000444
386 0.000449
387 0.000444
388 0.000442
389 0.000442
390 0.000450
391 0.000452
392 0.000450
393 0.000445
394 0.000436
395 0.000431
396 0.000428
397 0.000432
398 0.000442
399 0.000447
400 0.000448
401 0.000452
402 0.000452
403 0.000449
404 0.000447
405 0.000441
406 0.000439
407 0.000439
408 0.000437
409 0.000434
410 0.000428
411 0.000419
412 0.000416
413 0.000416
414 0.000407
415 0.000397
416 0.000388
417 0.000390
418 0.000388
419 0.000389
420 0.000388
421 0.000383
422 0.000374
423 0.000366
424 0.000362
425 0.000355
426 0.000353
427 0.000350
428 0.000346
429 0.000338
430 0.000329
431 0.000329
432 0.000328
433 0.000325
434 0.000327
435 0.000333
436 0.000334
437 0.000328
438 0.000326
439 0.000324
440 0.000331
441 0.000337
442 0.000346
443 0.000355
444 0.000358
445 0.000355
446 0.000352
447 0.000352
448 0.000354
449 0.000345
450 0.000338
451 0.000338
452 0.000337
453 0.000338
454 0.000338
455 0.000334
456 0.000333
457 0.000322
458 0.000313
459 0.000308
460 0.000300
461 0.000297
462 0.000293
463 0.000294
464 0.000286
465 0.000278
466 0.000270
467 0.000264
468 0.000264
469 0.000272
470 0.000274
471 0.000268
472 0.000263
473 0.000261
474 0.000265
475 0.000267
476 0.000264
477 0.000259
478 0.000257
479 0.000256
480 0.000248
481 0.000245
482 0.000239
483 0.000234
484 0.000233
485 0.000232
486 0.000230
487 0.000229
488 0.000225
489 0.000223
490 0.000228
491 0.000231
492 0.000230
493 0.000234
494 0.000241
495 0.000246
496 0.000249
497 0.000265
498 0.000276
499 0.000284
500 0.000287
501 0.000287
502 0.000282
503 0.000279
504 0.000276
505 0.000276
506 0.000276
507 0.000266
508 0.000263
509 0.000261
510 0.000259
511 0.000256
512 0.000251
513 0.000238
514 0.000231
515 0.000233
516 0.000241
517 0.000253
518 0.000252
519 0.000246
520 0.000242
521 0.000242
522 0.000245
523 0.000247
524 0.000247
525 0.000239
526 0.000225
527 0.000218
528 0.000212
529 0.000202
530 0.000196
531 0.000187
532 0.000181
533 0.000174
534 0.000164
535 0.000160
536 0.000153
537 0.000149
538 0.000148
539 0.000148
540 0.000154
541 0.000161
542 0.000175
543 0.000179
544 0.000172
545 0.000162
546 0.000150
547 0.000141
548 0.000137
549 0.000139
550 0.000140
551 0.000143
552 0.000147
553 0.000157
554 0.000158
555 0.000159
556 0.000159
557 0.000152
558 0.000150
559 0.000148
560 0.000143
561 0.000142
562 0.000141
563 0.000142
564 0.000145
565 0.000147
566 0.000147
567 0.000150
568 0.000152
569 0.000150
570 0.000151
571 0.000153
572 0.000151
573 0.000153
574 0.000154
575 0.000153
576 0.000153
577 0.000147
578 0.000133
579 0.000120
580 0.000107
581 0.000099
582 0.000107
583 0.000114
584 0.000116
585 0.000120
586 0.000128
587 0.000136
588 0.000145
589 0.000144
590 0.000141
591 0.000142
592 0.000140
593 0.000145
594 0.000153
595 0.000151
596 0.000150
597 0.000150
598 0.000154
599 0.000155
600 0.000155
601 0.000154
602 0.000154
603 0.000160
604 0.000165
605 0.000166
606 0.000170
607 0.000173
608 0.000181
609 0.000191
610 0.000198
611 0.000206
612 0.000212
613 0.000219
614 0.000223
615 0.000229
616 0.000228
617 0.000224
618 0.000216
619 0.000210
620 0.000205
621 0.000202
622 0.000198
623 0.000194
624 0.000192
625 0.000191
626 0.000190
627 0.000187
628 0.000184
629 0.000184
630 0.000181
631 0.000185
632 0.000194
633 0.000197
634 0.000195
635 0.000199
636 0.000209
637 0.000220
638 0.000228
639 0.000232
640 0.000236
641 0.000239
642 0.000243
643 0.000241
644 0.000239
645 0.000226
646 0.000218
647 0.000214
648 0.000213
649 0.000215
650 0.000224
651 0.000230
652 0.000233
653 0.000232
654 0.000236
655 0.000237
656 0.000248
657 0.000256
658 0.000260
659 0.000263
660 0.000262
661 0.000262
662 0.000260
663 0.000258
664 0.000255
665 0.000258
666 0.000257
667 0.000258
668 0.000258
669 0.000254
670 0.000250
671 0.000247
672 0.000246
673 0.000249
674 0.000252
675 0.000259
676 0.000263
677 0.000271
678 0.000274
679 0.000276
680 0.000273
681 0.000277
682 0.000286
683 0.000293
684 0.000300
685 0.000302
686 0.000305
687 0.000306
688 0.000307
689 0.000304
690 0.000298
691 0.000289
692 0.000280
693 0.000272
694 0.000269
695 0.000269
696 0.000268
697 0.000268
698 0.000264
699 0.000261
700 0.000261
701 0.000263
702 0.000268
703 0.000273
704 0.000279
705 0.000286
706 0.000291
707 0.000297
708 0.000303
709 0.000307
710 0.000307
711 0.000304
712 0.000303
713 0.000299
714 0.000297
715 0.000295
716 0.000292
717 0.000291
718 0.000284
719 0.000276
720 0.000273
721 0.000271
722 0.000271
723 0.000270
724 0.000268
725 0.000272
726 0.000281
727 0.000287
728 0.000291
729 0.000296
730 0.000301
731 0.000300
732 0.000301
733 0.000300
734 0.000293
735 0.000289
736 0.000284
737 0.000279
738 0.000270
739 0.000263
740 0.000257
741 0.000256
742 0.000255
743 0.000250
744 0.000242
745 0.000239
746 0.000237
747 0.000246
748 0.000252
749 0.000256
750 0.000260
751 0.000261
752 0.000262
753 0.000263
754 0.000261
755 0.000260
756 0.000262
757 0.000265
758 0.000269
759 0.000271
760 0.000273
761 0.000269
762 0.000270
763 0.000273
764 0.000276
765 0.000275
766 0.000276
767 0.000277
768 0.000284
769 0.000285
770 0.000290
771 0.000295
772 0.000302
773 0.000303
774 0.000299
775 0.000300
776 0.000300
777 0.000300
778 0.000294
779 0.000289
780 0.000281
781 0.000275
782 0.000266
783 0.000260
784 0.000250
785 0.000241
786 0.000229
787 0.000221
788 0.000217
789 0.000218
790 0.000220
791 0.000219
792 0.000219
793 0.000221
794 0.000229
795 0.000236
796 0.000241
797 0.000247
798 0.000253
799 0.000253
800 0.000256
801 0.000260
802 0.000260
803 0.000255
804 0.000250
805 0.000244
806 0.000241
807 0.000239
808 0.000235
809 0.000229
