# i correlation
1 0.002055
2 0.001957
3 0.001873
4 0.001799
5 0.001753
6 0.001716
7 0.001675
8 0.001639
9 0.001619
10 0.001607
11 0.001601
12 0.001586
13 0.001576
14 0.001558
15 0.001542
16 0.001535
17 0.001527
18 0.001527
19 0.001519
20 0.001515
21 0.001502
22 0.001486
23 0.001470
24 0.001451
25 0.001428
26 0.001406
27 0.001393
28 0.001396
29 0.001404
30 0.001411
31 0.001415
32 0.001419
33 0.001419
34 0.001417
35 0.001419
36 0.001413
37 0.001396
38 0.001397
39 0.001395
40 0.001392
41 0.001384
42 0.001369
43 0.001348
44 0.001337
45 0.001325
46 0.001308
47 0.001293
48 0.001288
49 0.001285
50 0.001284
51 0.001294
52 0.001308
53 0.001313
54 0.001322
55 0.001332
56 0.001330
57 0.001331
58 0.001335
59 0.001335
60 0.001331
61 0.001319
62 0.001309
63 0.001300
64 0.001301
65 0.001310
66 0.001323
67 0.001324
68 0.001324
69 0.001315
70 0.001302
71 0.001288
72 0.001278
73 0.001277
74 0.001275
75 0.001270
76 0.001272
77 0.001267
78 0.001261
79 0.001250
80 0.001240
81 0.001227
82 0.001219
83 0.001212
84 0.001207
85 0.001197
86 0.001181
87 0.001176
88 0.001160
89 0.001152
90 0.001148
91 0.001139
92 0.001140
93 0.001146
94 0.001152
95 0.001150
96 0.001150
97 0.001160
98 0.001164
99 0.001164
100 0.001162
101 0.001155
102 0.001143
103 0.001131
104 0.001133
105 0.001131
106 0.001124
107 0.001111
108 0.001098
109 0.001090
110 0.001089
111 0.001088
112 0.001094
113 0.001096
114 0.001106
115 0.001127
116 0.001148
117 0.001163
118 0.001166
119 0.001152
120 0.001142
121 0.001124
122 0.001113
123 0.001103
124 0.001093
125 0.001083
126 0.001082
127 0.001072
128 0.001078
129 0.001073
130 0.001066
131 0.001058
132 0.001059
133 0.001061
134 0.001061
135 0.001052
136 0.001048
137 0.001053
138 0.001057
139 0.001062
140 0.001070
141 0.001068
142 0.001063
143 0.001055
144 0.001054
145 0.001055
146 0.001062
147 0.001055
148 0.001048
149 0.001040
150 0.001036
151 0.001033
152 0.001028
153 0.001014
154 0.001007
155 0.000994
156 0.000985
157 0.000989
158 0.000985
159 0.000982
160 0.000981
161 0.000973
162 0.000963
163 0.000954
164 0.000940
165 0.000917
166 0.000898
167 0.000888
168 0.000884
169 0.000887
170 0.000899
171 0.000909
172 0.000919
173 0.000919
174 0.000921
175 0.000920
176 0.000910
177 0.000898
178 0.000894
179 0.000888
180 0.000881
181 0.000886
182 0.000887
183 0.000883
184 0.000893
185 0.000900
186 0.000897
187 0.000892
188 0.000888
189 0.000879
190 0.000888
191 0.000899
192 0.000917
193 0.000929
194 0.000927
195 0.000919
196 0.000909
197 0.000888
198 0.000885
199 0.000879
200 0.000861
201 0.000847
202 0.000836
203 0.000829
204 0.000823
205 0.000826
206 0.000835
207 0.000832
208 0.000830
209 0.000829
210 0.000833
211 0.000842
212 0.000854
213 0.000856
214 0.000860
215 0.000860
216 0.000858
217 0.000859
218 0.000850
219 0.000837
220 0.000826
221 0.000817
222 0.000809
223 0.000805
224 0.000800
225 0.000795
226 0.000797
227 0.000796
228 0.000793
229 0.000786
230 0.000790
231 0.000790
232 0.000782
233 0.000773
234 0.000766
235 0.000760
236 0.000755
237 0.000751
238 0.000742
239 0.000733
240 0.000726
241 0.000723
242 0.000723
243 0.000724
244 0.000733
245 0.000734
246 0.000740
247 0.000743
248 0.000746
249 0.000746
250 0.000750
251 0.000749
252 0.000745
253 0.000735
254 0.000724
255 0.000715
256 0.000713
257 0.000713
258 0.000718
259 0.000717
260 0.000715
261 0.000721
262 0.000723
263 0.000713
264 0.000698
265 0.000678
266 0.000672
267 0.000666
268 0.000671
269 0.000678
270 0.000679
271 0.000678
272 0.000682
273 0.000680
274 0.000694
275 0.000707
276 0.000712
277 0.000710
278 0.000708
279 0.000706
280 0.000708
281 0.000706
282 0.000706
283 0.000706
284 0.000697
285 0.000695
286 0.000692
287 0.000683
288 0.000678
289 0.000672
290 0.000677
291 0.000686
292 0.000690
293 0.000688
294 0.000678
295 0.000664
296 0.000654
297 0.000642
298 0.000635
299 0.000624
300 0.000617
301 0.000604
302 0.000590
303 0.000586
304 0.000587
305 0.000581
306 0.000570
307 0.000567
308 0.000569
309 0.000577
310 0.000590
311 0.000601
312 0.000595
313 0.000598
314 0.000604
315 0.000604
316 0.000607
317 0.000598
318 0.000592
319 0.000578
320 0.000572
321 0.000569
322 0.000561
323 0.000550
324 0.000546
325 0.000547
326 0.000549
327 0.000553
328 0.000554
329 0.000562
330 0.000566
331 0.000571
332 0.000576
333 0.000572
334 0.000565
335 0.000560
336 0.000557
337 0.000544
338 0.000533
339 0.000529
340 0.000522
341 0.000517
342 0.000522
343 0.000525
344 0.000529
345 0.000536
346 0.000533
347 0.000529
348 0.000531
349 0.000539
350 0.000547
351 0.000557
352 0.000564
353 0.000574
354 0.000578
355 0.000584
356 0.000592
357 0.000591
358 0.000595
359 0.000593
360 0.000589
361 0.000577
362 0.000572
363 0.000572
364 0.000570
365 0.000573
366 0.000582
367 0.000580
368 0.000574
369 0.000567
370 0.000553
371 0.000540
372 0.000532
373 0.000521
374 0.000515
375 0.000506
376 0.000504
377 0.000509
378 0.000510
379 0.000507
380 0.000508
381 0.000507
382 0.000500
383 0.000498
384 0.000497
385 0.000491
386 0.000491
387 0.000493
388 0.000493
389 0.000493
390 0.000497
391 0.000496
392 0.000492
393 0.000489
394 0.000488
395 0.000488
396 0.000489
397 0.000489
398 0.000498
399 0.000497
400 0.000506
401 0.000508
402 0.000506
403 0.000503
404 0.000496
405 0.000489
406 0.000478
407 0.000472
408 0.000471
409 0.000470
410 0.000472
411 0.000472
412 0.000469
413 0.000462
414 0.000454
415 0.000445
416 0.000432
417 0.000424
418 0.000426
419 0.000431
420 0.000433
421 0.000437
422 0.000441
423 0.000452
424 0.000460
425 0.000462
426 0.000465
427 0.000454
428 0.000445
429 0.000440
430 0.000436
431 0.000440
432 0.000447
433 0.000453
434 0.000453
435 0.000449
436 0.000451
437 0.000451
438 0.000448
439 0.000441
440 0.000431
441 0.000426
442 0.000433
443 0.000438
444 0.000436
445 0.000428
446 0.000422
447 0.000418
448 0.000416
449 0.000415
450 0.000409
451 0.000402
452 0.000397
453 0.000396
454 0.000401
455 0.000414
456 0.000422
457 0.000428
458 0.000424
459 0.000423
460 0.000418
461 0.000412
462 0.000415
463 0.000409
464 0.000405
465 0.000406
466 0.000407
467 0.000409
468 0.000414
469 0.000416
470 0.000421
471 0.000427
472 0.000430
473 0.000431
474 0.000425
475 0.000418
476 0.000412
477 0.000412
478 0.000419
479 0.000417
480 0.000412
481 0.000411
482 0.000407
483 0.000402
484 0.000395
485 0.000387
486 0.000379
487 0.000371
488 0.000370
489 0.000369
490 0.000369
491 0.000369
492 0.000370
493 0.000368
494 0.000371
495 0.000377
496 0.000379
497 0.000389
498 0.000396
499 0.000410
500 0.000420
501 0.000426
502 0.000434
503 0.000443
504 0.000447
505 0.000448
506 0.000453
507 0.000450
508 0.000440
509 0.000430
510 0.000426
511 0.000422
512 0.000415
513 0.000415
514 0.000410
515 0.000404
516 0.000399
517 0.000393
518 0.000388
519 0.000385
520 0.000388
521 0.000391
522 0.000396
523 0.000403
524 0.000405
525 0.000399
526 0.000396
527 0.000388
528 0.000380
529 0.000368
530 0.000353
531 0.000339
532 0.000324
533 0.000309
534 0.000297
535 0.000300
536 0.000307
537 0.000314
538 0.000324
539 0.000330
540 0.000333
541 0.000342
542 0.000346
543 0.000346
544 0.000344
545 0.000325
546 0.000305
547 0.000288
548 0.000274
549 0.000264
550 0.000256
551 0.000254
552 0.000253
553 0.000252
554 0.000260
555 0.000269
556 0.000275
557 0.000284
558 0.000288
559 0.000293
560 0.000295
561 0.000296
562 0.000298
563 0.000296
564 0.000298
565 0.000303
566 0.000307
567 0.000306
568 0.000299
569 0.000290
570 0.000285
571 0.000292
572 0.000309
573 0.000322
574 0.000330
575 0.000337
576 0.000339
577 0.000341
578 0.000335
579 0.000334
580 0.000332
581 0.000332
582 0.000334
583 0.000336
584 0.000333
585 0.000326
586 0.000325
587 0.000322
588 0.000320
589 0.000318
590 0.000324
591 0.000323
592 0.000327
593 0.000335
594 0.000340
595 0.000347
596 0.000351
597 0.000349
598 0.000347
599 0.000345
600 0.000341
601 0.000341
602 0.000340
603 0.000343
604 0.000342
605 0.000335
606 0.000327
607 0.000318
608 0.000313
609 0.000304
610 0.000295
611 0.000292
612 0.000287
613 0.000282
614 0.000275
615 0.000272
616 0.000272
617 0.000274
618 0.000271
619 0.000267
620 0.000261
621 0.000253
622 0.000245
623 0.000234
624 0.000228
625 0.000226
626 0.000227
627 0.000231
628 0.000236
629 0.000239
630 0.000241
631 0.000243
632 0.000243
633 0.000245
634 0.000247
635 0.000247
636 0.000250
637 0.000253
638 0.000253
639 0.000252
640 0.000260
641 0.000271
642 0.000277
643 0.000283
644 0.000283
645 0.000279
646 0.000270
647 0.000267
648 0.000265
649 0.000267
650 0.000265
651 0.000260
652 0.000257
653 0.000254
654 0.000254
655 0.000252
656 0.000254
657 0.000253
658 0.000255
659 0.000253
660 0.000251
661 0.000247
662 0.000234
663 0.000225
664 0.000221
665 0.000212
666 0.000206
667 0.000200
668 0.000193
669 0.000196
670 0.000201
671 0.000205
672 0.000205
673 0.000203
674 0.000196
675 0.000185
676 0.000178
677 0.000169
678 0.000160
679 0.000150
680 0.000138
681 0.000130
682 0.000122
683 0.000119
684 0.000119
685 0.000121
686 0.000120
687 0.000122
688 0.000128
689 0.000133
690 0.000134
691 0.000131
692 0.000125
693 0.000120
694 0.000119
695 0.000122
696 0.000121
697 0.000121
698 0.000123
699 0.000128
700 0.000130
701 0.000128
702 0.000125
703 0.000123
704 0.000118
705 0.000114
706 0.000108
707 0.000103
708 0.000102
709 0.000108
710 0.000107
711 0.000110
712 0.000111
713 0.000113
714 0.000120
715 0.000120
716 0.000124
717 0.000126
718 0.000130
719 0.000135
720 0.000134
721 0.000131
722 0.000125
723 0.000120
724 0.000114
725 0.000108
726 0.000101
727 0.000097
728 0.000090
729 0.000087
730 0.000084
731 0.000075
732 0.000073
733 0.000075
734 0.000082
735 0.000088
736 0.000092
737 0.000096
738 0.000093
739 0.000088
740 0.000083
741 0.000074
742 0.000066
743 0.000060
744 0.000052
745 0.000043
746 0.000037
747 0.000039
748 0.000041
749 0.000046
750 0.000051
751 0.000052
752 0.000057
753 0.000068
754 0.000077
755 0.000083
756 0.000088
757 0.000096
758 0.000106
759 0.000105
760 0.000099
761 0.000089
762 0.000080
763 0.000075
764 0.000072
765 0.000072
766 0.000066
767 0.000063
768 0.000064
769 0.000064
770 0.000062
771 0.000060
772 0.000059
773 0.000063
774 0.000068
775 0.000074
776 0.000072
777 0.000074
778 0.000074
779 0.000069
780 0.000062
781 0.000057
782 0.000056
783 0.000053
784 0.000052
785 0.000055
786 0.000061
787 0.000068
788 0.000081
789 0.000093
790 0.000100
791 0.000101
792 0.000101
793 0.000102
794 0.000102
795 0.000100
796 0.000096
797 0.000093
798 0.000094
799 0.000092
800 0.000083
801 0.000076
802 0.000069
803 0.000064
804 0.000064
805 0.000060
806 0.000057
807 0.000049
808 0.000042
809 0.000038
