# i correlation
1 0.001799
2 0.001733
3 0.001675
4 0.001627
5 0.001588
6 0.001552
7 0.001520
8 0.001489
9 0.001467
10 0.001446
11 0.001426
12 0.001409
13 0.001393
14 0.001381
15 0.001370
16 0.001358
17 0.001340
18 0.001323
19 0.001304
20 0.001298
21 0.001277
22 0.001264
23 0.001251
24 0.001247
25 0.001235
26 0.001227
27 0.001210
28 0.001197
29 0.001182
30 0.001175
31 0.001171
32 0.001162
33 0.001153
34 0.001143
35 0.001125
36 0.001107
37 0.001091
38 0.001073
39 0.001058
40 0.001044
41 0.001033
42 0.001024
43 0.001011
44 0.001001
45 0.000991
46 0.000981
47 0.000966
48 0.000952
49 0.000934
50 0.000923
51 0.000912
52 0.000893
53 0.000876
54 0.000867
55 0.000865
56 0.000862
57 0.000851
58 0.000847
59 0.000844
60 0.000842
61 0.000837
62 0.000830
63 0.000819
64 0.000809
65 0.000806
66 0.000804
67 0.000804
68 0.000804
69 0.000802
70 0.000799
71 0.000804
72 0.000805
73 0.000801
74 0.000795
75 0.000792
76 0.000786
77 0.000779
78 0.000782
79 0.000786
80 0.000790
81 0.000785
82 0.000780
83 0.000775
84 0.000774
85 0.000774
86 0.000776
87 0.000775
88 0.000779
89 0.000778
90 0.000773
91 0.000775
92 0.000778
93 0.000783
94 0.000778
95 0.000771
96 0.000760
97 0.000746
98 0.000737
99 0.000733
100 0.000732
101 0.000734
102 0.000736
103 0.000740
104 0.000744
105 0.000749
106 0.000762
107 0.000770
108 0.000785
109 0.000789
110 0.000791
111 0.000789
112 0.000783
113 0.000778
114 0.000770
115 0.000766
116 0.000764
117 0.000766
118 0.000762
119 0.000752
120 0.000746
121 0.000743
122 0.000741
123 0.000738
124 0.000736
125 0.000738
126 0.000742
127 0.000745
128 0.000756
129 0.000766
130 0.000772
131 0.000775
132 0.000778
133 0.000780
134 0.000784
135 0.000786
136 0.000783
137 0.000776
138 0.000768
139 0.000765
140 0.000759
141 0.000756
142 0.000752
143 0.000752
144 0.000749
145 0.000742
146 0.000745
147 0.000749
148 0.000748
149 0.000747
150 0.000738
151 0.000730
152 0.000723
153 0.000715
154 0.000704
155 0.000704
156 0.000695
157 0.000691
158 0.000685
159 0.000687
160 0.000685
161 0.000683
162 0.000684
163 0.000693
164 0.000704
165 0.000709
166 0.000710
167 0.000706
168 0.000693
169 0.000680
170 0.000669
171 0.000654
172 0.000647
173 0.000641
174 0.000631
175 0.000618
176 0.000603
177 0.000596
178 0.000591
179 0.000584
180 0.000579
181 0.000575
182 0.000574
183 0.000566
184 0.000563
185 0.000555
186 0.000548
187 0.000541
188 0.000534
189 0.000523
190 0.000513
191 0.000499
192 0.000489
193 0.000485
194 0.000478
195 0.000473
196 0.000463
197 0.000455
198 0.000444
199 0.000427
200 0.000407
201 0.000392
202 0.000387
203 0.000377
204 0.000369
205 0.000356
206 0.000348
207 0.000342
208 0.000348
209 0.000348
210 0.000348
211 0.000346
212 0.000345
213 0.000345
214 0.000346
215 0.000342
216 0.000335
217 0.000332
218 0.000336
219 0.000333
220 0.000338
221 0.000336
222 0.000337
223 0.000340
224 0.000346
225 0.000351
226 0.000345
227 0.000332
228 0.000329
229 0.000323
230 0.000318
231 0.000310
232 0.000306
233 0.000303
234 0.000300
235 0.000306
236 0.000311
237 0.000317
238 0.000326
239 0.000332
240 0.000339
241 0.000341
242 0.000344
243 0.000342
244 0.000341
245 0.000342
246 0.000340
247 0.000334
248 0.000327
249 0.000325
250 0.000318
251 0.000319
252 0.000324
253 0.000327
254 0.000332
255 0.000343
256 0.000348
257 0.000354
258 0.000356
259 0.000359
260 0.000357
261 0.000352
262 0.000354
263 0.000353
264 0.000356
265 0.000357
266 0.000358
267 0.000361
268 0.000355
269 0.000355
270 0.000348
271 0.000351
272 0.000351
273 0.000359
274 0.000364
275 0.000371
276 0.000375
277 0.000380
278 0.000381
279 0.000385
280 0.000392
281 0.000401
282 0.000408
283 0.000418
284 0.000416
285 0.000418
286 0.000419
287 0.000420
288 0.000427
289 0.000435
290 0.000442
291 0.000449
292 0.000456
293 0.000464
294 0.000469
295 0.000481
296 0.000488
297 0.000492
298 0.000495
299 0.000496
300 0.000495
301 0.000496
302 0.000490
303 0.000478
304 0.000473
305 0.000468
306 0.000466
307 0.000470
308 0.000469
309 0.000462
310 0.000457
311 0.000451
312 0.000444
313 0.000451
314 0.000452
315 0.000449
316 0.000448
317 0.000445
318 0.000437
319 0.000432
320 0.000419
321 0.000407
322 0.000404
323 0.000396
324 0.000389
325 0.000377
326 0.000366
327 0.000360
328 0.000348
329 0.000340
330 0.000327
331 0.000321
332 0.000311
333 0.000309
334 0.000303
335 0.000291
336 0.000282
337 0.000273
338 0.000264
339 0.000260
340 0.000253
341 0.000245
342 0.000235
343 0.000230
344 0.000222
345 0.000218
346 0.000222
347 0.000223
348 0.000226
349 0.000224
350 0.000224
351 0.000223
352 0.000226
353 0.000226
354 0.000225
355 0.000221
356 0.000216
357 0.000211
358 0.000212
359 0.000207
360 0.000197
361 0.000194
362 0.000184
363 0.000179
364 0.000171
365 0.000166
366 0.000153
367 0.000146
368 0.000141
369 0.000142
370 0.000147
371 0.000146
372 0.000152
373 0.000157
374 0.000162
375 0.000169
376 0.000173
377 0.000177
378 0.000183
379 0.000188
380 0.000196
381 0.000204
382 0.000206
383 0.000213
384 0.000221
385 0.000229
386 0.000232
387 0.000238
388 0.000242
389 0.000246
390 0.000251
391 0.000249
392 0.000244
393 0.000241
394 0.000233
395 0.000235
396 0.000235
397 0.000232
398 0.000236
399 0.000235
400 0.000238
401 0.000243
402 0.000254
403 0.000259
404 0.000264
405 0.000273
406 0.000288
407 0.000300
408 0.000312
409 0.000319
410 0.000324
411 0.000333
412 0.000334
413 0.000333
414 0.000327
415 0.000325
416 0.000326
417 0.000325
418 0.000325
419 0.000329
420 0.000334
421 0.000333
422 0.000342
423 0.000348
424 0.000355
425 0.000361
426 0.000375
427 0.000383
428 0.000389
429 0.000393
430 0.000398
431 0.000402
432 0.000409
433 0.000416
434 0.000418
435 0.000418
436 0.000420
437 0.000414
438 0.000414
439 0.000425
440 0.000429
441 0.000429
442 0.000432
443 0.000431
444 0.000436
445 0.000439
446 0.000441
447 0.000445
448 0.000445
449 0.000441
450 0.000442
451 0.000442
452 0.000441
453 0.000441
454 0.000437
455 0.000429
456 0.000425
457 0.000423
458 0.000417
459 0.000414
460 0.000411
461 0.000411
462 0.000414
463 0.000413
464 0.000414
465 0.000413
466 0.000416
467 0.000417
468 0.000418
469 0.000414
470 0.000413
471 0.000415
472 0.000416
473 0.000416
474 0.000408
475 0.000404
476 0.000401
477 0.000402
478 0.000404
479 0.000407
480 0.000411
481 0.000417
482 0.000425
483 0.000422
484 0.000419
485 0.000409
486 0.000404
487 0.000403
488 0.000404
489 0.000408
490 0.000403
491 0.000407
492 0.000408
493 0.000407
494 0.000408
495 0.000407
496 0.000397
497 0.000391
498 0.000384
499 0.000376
500 0.000366
501 0.000358
502 0.000346
503 0.000337
504 0.000331
505 0.000322
506 0.000316
507 0.000310
508 0.000307
509 0.000301
510 0.000295
511 0.000298
512 0.000301
513 0.000309
514 0.000311
515 0.000313
516 0.000314
517 0.000321
518 0.000330
519 0.000340
520 0.000346
521 0.000350
522 0.000355
523 0.000351
524 0.000354
525 0.000356
526 0.000356
527 0.000354
528 0.000353
529 0.000350
530 0.000341
531 0.000334
532 0.000332
533 0.000335
534 0.000332
535 0.000333
536 0.000334
537 0.000342
538 0.000346
539 0.000346
540 0.000350
541 0.000356
542 0.000361
543 0.000361
544 0.000358
545 0.000358
546 0.000355
547 0.000362
548 0.000365
549 0.000367
550 0.000374
551 0.000376
552 0.000378
553 0.000384
554 0.000388
555 0.000392
556 0.000398
557 0.000409
558 0.000407
559 0.000406
560 0.000407
561 0.000405
562 0.000406
563 0.000404
564 0.000403
565 0.000401
566 0.000399
567 0.000396
568 0.000392
569 0.000389
570 0.000384
571 0.000387
572 0.000389
573 0.000393
574 0.000400
575 0.000407
576 0.000407
577 0.000404
578 0.000400
579 0.000396
580 0.000395
581 0.000396
582 0.000400
583 0.000403
584 0.000402
585 0.000401
586 0.000397
587 0.000393
588 0.000397
589 0.000400
590 0.000400
591 0.000401
592 0.000401
593 0.000407
594 0.000400
595 0.000398
596 0.000395
597 0.000396
598 0.000399
599 0.000400
600 0.000404
601 0.000408
602 0.000410
603 0.000407
604 0.000402
605 0.000401
606 0.000400
607 0.000399
608 0.000401
609 0.000402
610 0.000397
611 0.000389
612 0.000382
613 0.000377
614 0.000371
615 0.000367
616 0.000362
617 0.000356
618 0.000348
619 0.000342
620 0.000332
621 0.000330
622 0.000324
623 0.000319
624 0.000306
625 0.000297
626 0.000285
627 0.000274
628 0.000264
629 0.000258
630 0.000254
631 0.000249
632 0.000243
633 0.000237
634 0.000228
635 0.000225
636 0.000223
637 0.000216
638 0.000205
639 0.000193
640 0.000181
641 0.000179
642 0.000175
643 0.000172
644 0.000174
645 0.000170
646 0.000167
647 0.000166
648 0.000164
649 0.000161
650 0.000155
651 0.000148
652 0.000141
653 0.000140
654 0.000137
655 0.000134
656 0.000130
657 0.000123
658 0.000120
659 0.000121
660 0.000120
661 0.000122
662 0.000118
663 0.000110
664 0.000107
665 0.000105
666 0.000098
667 0.000091
668 0.000089
669 0.000083
670 0.000078
671 0.000074
672 0.000073
673 0.000071
674 0.000068
675 0.000070
676 0.000072
677 0.000075
678 0.000072
679 0.000068
680 0.000064
681 0.000067
682 0.000065
683 0.000065
684 0.000065
685 0.000067
686 0.000070
687 0.000071
688 0.000077
689 0.000079
690 0.000081
691 0.000087
692 0.000092
693 0.000095
694 0.000095
695 0.000096
696 0.000098
697 0.000102
698 0.000098
699 0.000094
700 0.000088
701 0.000088
702 0.000086
703 0.000086
704 0.000085
705 0.000082
706 0.000085
707 0.000088
708 0.000091
709 0.000093
710 0.000093
711 0.000091
712 0.000088
713 0.000084
714 0.000082
715 0.000082
716 0.000081
717 0.000081
718 0.000079
719 0.000080
720 0.000080
721 0.000084
722 0.000089
723 0.000089
724 0.000088
725 0.000083
726 0.000079
727 0.000077
728 0.000075
729 0.000074
730 0.000077
731 0.000082
732 0.000082
733 0.000083
734 0.000084
735 0.000089
736 0.000092
737 0.000094
738 0.000095
739 0.000098
740 0.000103
741 0.000103
742 0.000099
743 0.000096
744 0.000095
745 0.000091
746 0.000083
747 0.000076
748 0.000073
749 0.000071
750 0.000068
751 0.000063
752 0.000059
753 0.000061
754 0.000061
755 0.000065
756 0.000065
757 0.000065
758 0.000065
759 0.000064
760 0.000062
761 0.000062
762 0.000058
763 0.000055
764 0.000048
765 0.000044
766 0.000043
767 0.000041
768 0.000041
769 0.000039
770 0.000039
771 0.000038
772 0.000038
773 0.000036
774 0.000031
775 0.000027
776 0.000022
777 0.000017
778 0.000011
779 0.000006
780 0.000004
781 0.000004
782 0.000005
783 0.000004
784 -0.000000
785 -0.000004
786 -0.000004
787 -0.000007
788 -0.000013
789 -0.000019
790 -0.000024
791 -0.000033
792 -0.000039
793 -0.000045
794 -0.000051
795 -0.000054
796 -0.000056
797 -0.000056
798 -0.000063
799 -0.000069
800 -0.000072
801 -0.000076
802 -0.000081
803 -0.000085
804 -0.000089
805 -0.000092
806 -0.000095
807 -0.000101
808 -0.000104
809 -0.000110
