# i correlation
1 0.001863
2 0.001781
3 0.001701
4 0.001637
5 0.001587
6 0.001547
7 0.001515
8 0.001480
9 0.001441
10 0.001414
11 0.001386
12 0.001367
13 0.001355
14 0.001349
15 0.001337
16 0.001323
17 0.001313
18 0.001313
19 0.001311
20 0.001314
21 0.001310
22 0.001296
23 0.001289
24 0.001284
25 0.001285
26 0.001294
27 0.001299
28 0.001308
29 0.001301
30 0.001300
31 0.001298
32 0.001293
33 0.001295
34 0.001294
35 0.001297
36 0.001287
37 0.001280
38 0.001263
39 0.001241
40 0.001226
41 0.001209
42 0.001190
43 0.001173
44 0.001165
45 0.001167
46 0.001175
47 0.001185
48 0.001181
49 0.001167
50 0.001157
51 0.001149
52 0.001141
53 0.001128
54 0.001129
55 0.001127
56 0.001127
57 0.001129
58 0.001140
59 0.001148
60 0.001155
61 0.001162
62 0.001168
63 0.001170
64 0.001175
65 0.001170
66 0.001167
67 0.001169
68 0.001177
69 0.001170
70 0.001155
71 0.001142
72 0.001131
73 0.001124
74 0.001126
75 0.001136
76 0.001145
77 0.001149
78 0.001147
79 0.001139
80 0.001133
81 0.001116
82 0.001103
83 0.001096
84 0.001089
85 0.001080
86 0.001064
87 0.001043
88 0.001022
89 0.001006
90 0.000989
91 0.000979
92 0.000966
93 0.000954
94 0.000944
95 0.000941
96 0.000938
97 0.000935
98 0.000933
99 0.000936
100 0.000938
101 0.000936
102 0.000940
103 0.000942
104 0.000950
105 0.000961
106 0.000969
107 0.000969
108 0.000975
109 0.000979
110 0.000981
111 0.000976
112 0.000977
113 0.000972
114 0.000966
115 0.000960
116 0.000949
117 0.000941
118 0.000926
119 0.000914
120 0.000903
121 0.000895
122 0.000889
123 0.000884
124 0.000875
125 0.000871
126 0.000869
127 0.000872
128 0.000875
129 0.000870
130 0.000867
131 0.000869
132 0.000875
133 0.000872
134 0.000875
135 0.000883
136 0.000893
137 0.000904
138 0.000917
139 0.000925
140 0.000930
141 0.000929
142 0.000923
143 0.000919
144 0.000907
145 0.000900
146 0.000893
147 0.000887
148 0.000878
149 0.000863
150 0.000854
151 0.000843
152 0.000829
153 0.000820
154 0.000818
155 0.000820
156 0.000824
157 0.000823
158 0.000825
159 0.000823
160 0.000828
161 0.000832
162 0.000829
163 0.000835
164 0.000838
165 0.000829
166 0.000824
167 0.000823
168 0.000818
169 0.000814
170 0.000810
171 0.000811
172 0.000805
173 0.000818
174 0.000827
175 0.000831
176 0.000836
177 0.000833
178 0.000839
179 0.000836
180 0.000833
181 0.000832
182 0.000823
183 0.000809
184 0.000796
185 0.000788
186 0.000778
187 0.000764
188 0.000748
189 0.000735
190 0.000728
191 0.000722
192 0.000718
193 0.000719
194 0.000711
195 0.000706
196 0.000700
197 0.000695
198 0.000695
199 0.000694
200 0.000697
201 0.000706
202 0.000698
203 0.000692
204 0.000689
205 0.000688
206 0.000691
207 0.000691
208 0.000698
209 0.000688
210 0.000679
211 0.000678
212 0.000676
213 0.000680
214 0.000687
215 0.000694
216 0.000694
217 0.000687
218 0.000683
219 0.000678
220 0.000670
221 0.000667
222 0.000663
223 0.000655
224 0.000636
225 0.000621
226 0.000617
227 0.000616
228 0.000617
229 0.000613
230 0.000609
231 0.000606
232 0.000610
233 0.000606
234 0.000610
235 0.000614
236 0.000622
237 0.000624
238 0.000630
239 0.000634
240 0.000650
241 0.000671
242 0.000686
243 0.000697
244 0.000709
245 0.000708
246 0.000709
247 0.000711
248 0.000711
249 0.000709
250 0.000704
251 0.000694
252 0.000681
253 0.000669
254 0.000658
255 0.000645
256 0.000635
257 0.000611
258 0.000589
259 0.000567
260 0.000557
261 0.000552
262 0.000552
263 0.000554
264 0.000551
265 0.000547
266 0.000549
267 0.000551
268 0.000551
269 0.000558
270 0.000557
271 0.000547
272 0.000536
273 0.000535
274 0.000533
275 0.000546
276 0.000558
277 0.000570
278 0.000571
279 0.000574
280 0.000574
281 0.000580
282 0.000584
283 0.000582
284 0.000581
285 0.000575
286 0.000569
287 0.000559
288 0.000560
289 0.000559
290 0.000564
291 0.000566
292 0.000556
293 0.000540
294 0.000526
295 0.000525
296 0.000530
297 0.000531
298 0.000540
299 0.000548
300 0.000554
301 0.000562
302 0.000566
303 0.000573
304 0.000575
305 0.000579
306 0.000577
307 0.000569
308 0.000569
309 0.000567
310 0.000577
311 0.000582
312 0.000584
313 0.000586
314 0.000591
315 0.000597
316 0.000602
317 0.000600
318 0.000598
319 0.000594
320 0.000585
321 0.000579
322 0.000576
323 0.000575
324 0.000585
325 0.000588
326 0.000598
327 0.000591
328 0.000587
329 0.000583
330 0.000568
331 0.000558
332 0.000545
333 0.000526
334 0.000509
335 0.000493
336 0.000490
337 0.000484
338 0.000479
339 0.000470
340 0.000466
341 0.000459
342 0.000456
343 0.000452
344 0.000445
345 0.000444
346 0.000449
347 0.000445
348 0.000438
349 0.000435
350 0.000435
351 0.000435
352 0.000439
353 0.000449
354 0.000459
355 0.000466
356 0.000479
357 0.000487
358 0.000488
359 0.000493
360 0.000488
361 0.000494
362 0.000493
363 0.000488
364 0.000489
365 0.000480
366 0.000476
367 0.000468
368 0.000463
369 0.000464
370 0.000460
371 0.000465
372 0.000468
373 0.000473
374 0.000480
375 0.000486
376 0.000490
377 0.000492
378 0.000494
379 0.000497
380 0.000490
381 0.000488
382 0.000491
383 0.000495
384 0.000497
385 0.000492
386 0.000491
387 0.000495
388 0.000499
389 0.000505
390 0.000516
391 0.000527
392 0.000537
393 0.000540
394 0.000548
395 0.000552
396 0.000547
397 0.000535
398 0.000513
399 0.000493
400 0.000471
401 0.000456
402 0.000445
403 0.000437
404 0.000433
405 0.000433
406 0.000432
407 0.000432
408 0.000430
409 0.000429
410 0.000425
411 0.000423
412 0.000410
413 0.000412
414 0.000413
415 0.000419
416 0.000415
417 0.000415
418 0.000414
419 0.000415
420 0.000422
421 0.000430
422 0.000439
423 0.000453
424 0.000455
425 0.000461
426 0.000456
427 0.000454
428 0.000448
429 0.000443
430 0.000436
431 0.000433
432 0.000419
433 0.000409
434 0.000400
435 0.000392
436 0.000386
437 0.000387
438 0.000391
439 0.000395
440 0.000398
441 0.000404
442 0.000417
443 0.000423
444 0.000428
445 0.000429
446 0.000431
447 0.000428
448 0.000426
449 0.000430
450 0.000436
451 0.000436
452 0.000438
453 0.000441
454 0.000448
455 0.000459
456 0.000468
457 0.000466
458 0.000465
459 0.000460
460 0.000450
461 0.000443
462 0.000441
463 0.000438
464 0.000431
465 0.000418
466 0.000405
467 0.000393
468 0.000381
469 0.000373
470 0.000371
471 0.000366
472 0.000361
473 0.000359
474 0.000357
475 0.000355
476 0.000348
477 0.000343
478 0.000338
479 0.000338
480 0.000334
481 0.000333
482 0.000330
483 0.000332
484 0.000335
485 0.000332
486 0.000329
487 0.000324
488 0.000320
489 0.000316
490 0.000321
491 0.000328
492 0.000334
493 0.000336
494 0.000331
495 0.000324
496 0.000324
497 0.000325
498 0.000326
499 0.000323
500 0.000324
501 0.000323
502 0.000320
503 0.000317
504 0.000319
505 0.000320
506 0.000322
507 0.000321
508 0.000313
509 0.000308
510 0.000306
511 0.000304
512 0.000294
513 0.000288
514 0.000282
515 0.000268
516 0.000263
517 0.000265
518 0.000267
519 0.000274
520 0.000281
521 0.000287
522 0.000291
523 0.000298
524 0.000301
525 0.000302
526 0.000301
527 0.000305
528 0.000301
529 0.000300
530 0.000305
531 0.000311
532 0.000315
533 0.000316
534 0.000314
535 0.000313
536 0.000305
537 0.000305
538 0.000305
539 0.000304
540 0.000296
541 0.000289
542 0.000290
543 0.000288
544 0.000287
545 0.000285
546 0.000284
547 0.000280
548 0.000273
549 0.000261
550 0.000252
551 0.000248
552 0.000248
553 0.000245
554 0.000250
555 0.000254
556 0.000260
557 0.000269
558 0.000276
559 0.000279
560 0.000284
561 0.000287
562 0.000287
563 0.000281
564 0.000283
565 0.000290
566 0.000300
567 0.000310
568 0.000315
569 0.000318
570 0.000316
571 0.000310
572 0.000310
573 0.000310
574 0.000307
575 0.000303
576 0.000303
577 0.000303
578 0.000301
579 0.000294
580 0.000289
581 0.000291
582 0.000291
583 0.000285
584 0.000279
585 0.000273
586 0.000266
587 0.000268
588 0.000264
589 0.000263
590 0.000265
591 0.000265
592 0.000266
593 0.000266
594 0.000266
595 0.000271
596 0.000278
597 0.000283
598 0.000286
599 0.000286
600 0.000284
601 0.000285
602 0.000291
603 0.000295
604 0.000298
605 0.000303
606 0.000308
607 0.000308
608 0.000304
609 0.000304
610 0.000304
611 0.000304
612 0.000307
613 0.000311
614 0.000312
615 0.000314
616 0.000312
617 0.000307
618 0.000308
619 0.000309
620 0.000306
621 0.000300
622 0.000295
623 0.000292
624 0.000287
625 0.000281
626 0.000274
627 0.000267
628 0.000267
629 0.000265
630 0.000262
631 0.000258
632 0.000256
633 0.000251
634 0.000249
635 0.000242
636 0.000244
637 0.000247
638 0.000249
639 0.000252
640 0.000255
641 0.000263
642 0.000268
643 0.000269
644 0.000262
645 0.000257
646 0.000249
647 0.000240
648 0.000226
649 0.000208
650 0.000193
651 0.000182
652 0.000171
653 0.000160
654 0.000149
655 0.000139
656 0.000131
657 0.000131
658 0.000127
659 0.000126
660 0.000125
661 0.000126
662 0.000122
663 0.000119
664 0.000120
665 0.000122
666 0.000124
667 0.000125
668 0.000119
669 0.000118
670 0.000113
671 0.000111
672 0.000108
673 0.000102
674 0.000100
675 0.000097
676 0.000096
677 0.000096
678 0.000095
679 0.000091
680 0.000088
681 0.000087
682 0.000088
683 0.000092
684 0.000093
685 0.000097
686 0.000096
687 0.000103
688 0.000109
689 0.000113
690 0.000118
691 0.000118
692 0.000121
693 0.000121
694 0.000120
695 0.000118
696 0.000116
697 0.000116
698 0.000121
699 0.000125
700 0.000128
701 0.000131
702 0.000130
703 0.000131
704 0.000135
705 0.000135
706 0.000135
707 0.000132
708 0.000127
709 0.000121
710 0.000114
711 0.000108
712 0.000099
713 0.000091
714 0.000080
715 0.000074
716 0.000066
717 0.000060
718 0.000056
719 0.000053
720 0.000051
721 0.000050
722 0.000047
723 0.000049
724 0.000053
725 0.000060
726 0.000059
727 0.000057
728 0.000055
729 0.000049
730 0.000041
731 0.000037
732 0.000031
733 0.000029
734 0.000023
735 0.000020
736 0.000014
737 0.000012
738 0.000010
739 0.000008
740 0.000006
741 0.000003
742 0.000001
743 -0.000001
744 -0.000002
745 0.000001
746 0.000006
747 0.000014
748 0.000016
749 0.000018
750 0.000020
751 0.000028
752 0.000035
753 0.000043
754 0.000049
755 0.000046
756 0.000040
757 0.000035
758 0.000024
759 0.000015
760 0.000010
761 0.000009
762 0.000005
763 0.000004
764 -0.000003
765 -0.000004
766 -0.000008
767 -0.000008
768 -0.000007
769 -0.000008
770 -0.000013
771 -0.000017
772 -0.000022
773 -0.000020
774 -0.000016
775 -0.000011
776 -0.000011
777 -0.000012
778 -0.000011
779 -0.000006
780 -0.000002
781 0.000000
782 0.000008
783 0.000012
784 0.000015
785 0.000012
786 0.000006
787 0.000005
788 0.000006
789 0.000009
790 0.000006
791 -0.000002
792 -0.000009
793 -0.000016
794 -0.000024
795 -0.000031
796 -0.000033
797 -0.000037
798 -0.000041
799 -0.000041
800 -0.000041
801 -0.000039
802 -0.000040
803 -0.000040
804 -0.000041
805 -0.000043
806 -0.000047
807 -0.000050
808 -0.000052
809 -0.000054
