# i correlation
1 0.001488
2 0.001398
3 0.001325
4 0.001261
5 0.001207
6 0.001166
7 0.001142
8 0.001116
9 0.001095
10 0.001077
11 0.001055
12 0.001049
13 0.001051
14 0.001060
15 0.001060
16 0.001062
17 0.001067
18 0.001068
19 0.001054
20 0.001040
21 0.001028
22 0.001013
23 0.001003
24 0.001006
25 0.001005
26 0.000990
27 0.000971
28 0.000957
29 0.000934
30 0.000915
31 0.000902
32 0.000893
33 0.000867
34 0.000841
35 0.000831
36 0.000820
37 0.000806
38 0.000795
39 0.000785
40 0.000789
41 0.000790
42 0.000805
43 0.000805
44 0.000806
45 0.000814
46 0.000821
47 0.000826
48 0.000840
49 0.000843
50 0.000834
51 0.000822
52 0.000812
53 0.000798
54 0.000789
55 0.000780
56 0.000781
57 0.000782
58 0.000783
59 0.000788
60 0.000801
61 0.000827
62 0.000837
63 0.000834
64 0.000834
65 0.000830
66 0.000823
67 0.000815
68 0.000812
69 0.000800
70 0.000793
71 0.000782
72 0.000777
73 0.000780
74 0.000784
75 0.000792
76 0.000797
77 0.000805
78 0.000807
79 0.000806
80 0.000799
81 0.000787
82 0.000776
83 0.000768
84 0.000768
85 0.000769
86 0.000760
87 0.000753
88 0.000749
89 0.000745
90 0.000737
91 0.000736
92 0.000732
93 0.000729
94 0.000730
95 0.000727
96 0.000723
97 0.000731
98 0.000730
99 0.000724
100 0.000721
101 0.000726
102 0.000735
103 0.000735
104 0.000733
105 0.000738
106 0.000732
107 0.000723
108 0.000708
109 0.000714
110 0.000724
111 0.000729
112 0.000733
113 0.000722
114 0.000719
115 0.000716
116 0.000711
117 0.000711
118 0.000709
119 0.000706
120 0.000689
121 0.000679
122 0.000670
123 0.000665
124 0.000659
125 0.000654
126 0.000662
127 0.000669
128 0.000670
129 0.000676
130 0.000680
131 0.000683
132 0.000678
133 0.000678
134 0.000676
135 0.000680
136 0.000687
137 0.000694
138 0.000690
139 0.000684
140 0.000672
141 0.000663
142 0.000654
143 0.000639
144 0.000628
145 0.000624
146 0.000625
147 0.000625
148 0.000622
149 0.000622
150 0.000614
151 0.000610
152 0.000600
153 0.000593
154 0.000584
155 0.000583
156 0.000581
157 0.000580
158 0.000582
159 0.000593
160 0.000589
161 0.000590
162 0.000588
163 0.000595
164 0.000599
165 0.000596
166 0.000593
167 0.000590
168 0.000582
169 0.000574
170 0.000572
171 0.000573
172 0.000578
173 0.000590
174 0.000594
175 0.000597
176 0.000586
177 0.000588
178 0.000591
179 0.000590
180 0.000586
181 0.000586
182 0.000593
183 0.000591
184 0.000590
185 0.000583
186 0.000576
187 0.000581
188 0.000580
189 0.000578
190 0.000575
191 0.000583
192 0.000579
193 0.000569
194 0.000562
195 0.000568
196 0.000574
197 0.000583
198 0.000589
199 0.000591
200 0.000585
201 0.000572
202 0.000561
203 0.000552
204 0.000548
205 0.000549
206 0.000549
207 0.000542
208 0.000531
209 0.000517
210 0.000507
211 0.000503
212 0.000506
213 0.000508
214 0.000504
215 0.000515
216 0.000518
217 0.000523
218 0.000514
219 0.000505
220 0.000507
221 0.000505
222 0.000494
223 0.000492
224 0.000492
225 0.000490
226 0.000487
227 0.000486
228 0.000479
229 0.000478
230 0.000481
231 0.000485
232 0.000480
233 0.000478
234 0.000474
235 0.000471
236 0.000480
237 0.000481
238 0.000488
239 0.000497
240 0.000505
241 0.000509
242 0.000510
243 0.000522
244 0.000528
245 0.000534
246 0.000535
247 0.000538
248 0.000548
249 0.000556
250 0.000560
251 0.000557
252 0.000557
253 0.000563
254 0.000565
255 0.000560
256 0.000555
257 0.000554
258 0.000545
259 0.000534
260 0.000527
261 0.000521
262 0.000520
263 0.000513
264 0.000501
265 0.000498
266 0.000496
267 0.000500
268 0.000509
269 0.000512
270 0.000503
271 0.000497
272 0.000490
273 0.000489
274 0.000492
275 0.000490
276 0.000483
277 0.000475
278 0.000468
279 0.000458
280 0.000442
281 0.000438
282 0.000442
283 0.000439
284 0.000440
285 0.000440
286 0.000438
287 0.000429
288 0.000429
289 0.000430
290 0.000429
291 0.000429
292 0.000432
293 0.000438
294 0.000436
295 0.000430
296 0.000427
297 0.000426
298 0.000422
299 0.000427
300 0.000442
301 0.000444
302 0.000448
303 0.000445
304 0.000439
305 0.000436
306 0.000433
307 0.000432
308 0.000431
309 0.000441
310 0.000459
311 0.000467
312 0.000467
313 0.000472
314 0.000482
315 0.000486
316 0.000487
317 0.000487
318 0.000486
319 0.000476
320 0.000477
321 0.000477
322 0.000481
323 0.000481
324 0.000483
325 0.000477
326 0.000465
327 0.000452
328 0.000439
329 0.000422
330 0.000420
331 0.000417
332 0.000414
333 0.000411
334 0.000411
335 0.000418
336 0.000425
337 0.000429
338 0.000435
339 0.000438
340 0.000435
341 0.000434
342 0.000437
343 0.000431
344 0.000419
345 0.000414
346 0.000414
347 0.000408
348 0.000402
349 0.000388
350 0.000382
351 0.000379
352 0.000378
353 0.000375
354 0.000369
355 0.000365
356 0.000358
357 0.000355
358 0.000347
359 0.000346
360 0.000348
361 0.000351
362 0.000362
363 0.000364
364 0.000362
365 0.000358
366 0.000351
367 0.000343
368 0.000335
369 0.000340
370 0.000340
371 0.000347
372 0.000354
373 0.000355
374 0.000354
375 0.000347
376 0.000341
377 0.000335
378 0.000331
379 0.000334
380 0.000331
381 0.000321
382 0.000308
383 0.000302
384 0.000306
385 0.000303
386 0.000310
387 0.000322
388 0.000344
389 0.000358
390 0.000371
391 0.000368
392 0.000357
393 0.000350
394 0.000344
395 0.000342
396 0.000339
397 0.000340
398 0.000342
399 0.000343
400 0.000340
401 0.000338
402 0.000340
403 0.000341
404 0.000344
405 0.000344
406 0.000328
407 0.000314
408 0.000304
409 0.000293
410 0.000274
411 0.000267
412 0.000270
413 0.000265
414 0.000265
415 0.000276
416 0.000281
417 0.000283
418 0.000291
419 0.000296
420 0.000301
421 0.000307
422 0.000308
423 0.000308
424 0.000295
425 0.000285
426 0.000285
427 0.000285
428 0.000282
429 0.000274
430 0.000273
431 0.000268
432 0.000271
433 0.000273
434 0.000275
435 0.000284
436 0.000297
437 0.000304
438 0.000304
439 0.000308
440 0.000317
441 0.000317
442 0.000316
443 0.000313
444 0.000311
445 0.000308
446 0.000305
447 0.000307
448 0.000312
449 0.000320
450 0.000322
451 0.000335
452 0.000347
453 0.000353
454 0.000359
455 0.000352
456 0.000346
457 0.000343
458 0.000336
459 0.000328
460 0.000330
461 0.000336
462 0.000337
463 0.000338
464 0.000341
465 0.000343
466 0.000347
467 0.000345
468 0.000340
469 0.000330
470 0.000321
471 0.000315
472 0.000310
473 0.000313
474 0.000313
475 0.000312
476 0.000315
477 0.000315
478 0.000310
479 0.000316
480 0.000323
481 0.000328
482 0.000325
483 0.000315
484 0.000311
485 0.000301
486 0.000291
487 0.000279
488 0.000275
489 0.000271
490 0.000262
491 0.000257
492 0.000251
493 0.000251
494 0.000254
495 0.000262
496 0.000271
497 0.000281
498 0.000292
499 0.000302
500 0.000317
501 0.000325
502 0.000335
503 0.000332
504 0.000327
505 0.000330
506 0.000333
507 0.000332
508 0.000331
509 0.000330
510 0.000331
511 0.000327
512 0.000323
513 0.000318
514 0.000314
515 0.000312
516 0.000309
517 0.000312
518 0.000312
519 0.000307
520 0.000305
521 0.000307
522 0.000307
523 0.000302
524 0.000300
525 0.000305
526 0.000309
527 0.000317
528 0.000324
529 0.000321
530 0.000322
531 0.000319
532 0.000316
533 0.000317
534 0.000312
535 0.000310
536 0.000306
537 0.000309
538 0.000306
539 0.000300
540 0.000298
541 0.000295
542 0.000298
543 0.000295
544 0.000287
545 0.000283
546 0.000280
547 0.000274
548 0.000261
549 0.000252
550 0.000250
551 0.000248
552 0.000246
553 0.000254
554 0.000262
555 0.000259
556 0.000257
557 0.000256
558 0.000258
559 0.000263
560 0.000264
561 0.000268
562 0.000274
563 0.000285
564 0.000286
565 0.000282
566 0.000281
567 0.000279
568 0.000280
569 0.000281
570 0.000280
571 0.000280
572 0.000276
573 0.000267
574 0.000252
575 0.000248
576 0.000246
577 0.000250
578 0.000255
579 0.000260
580 0.000255
581 0.000245
582 0.000244
583 0.000244
584 0.000246
585 0.000251
586 0.000255
587 0.000255
588 0.000254
589 0.000253
590 0.000255
591 0.000258
592 0.000253
593 0.000254
594 0.000251
595 0.000248
596 0.000245
597 0.000234
598 0.000225
599 0.000216
600 0.000207
601 0.000202
602 0.000202
603 0.000204
604 0.000205
605 0.000206
606 0.000202
607 0.000201
608 0.000202
609 0.000202
610 0.000205
611 0.000205
612 0.000205
613 0.000206
614 0.000206
615 0.000208
616 0.000203
617 0.000202
618 0.000198
619 0.000197
620 0.000193
621 0.000189
622 0.000183
623 0.000177
624 0.000173
625 0.000171
626 0.000173
627 0.000177
628 0.000176
629 0.000172
630 0.000172
631 0.000172
632 0.000175
633 0.000180
634 0.000183
635 0.000186
636 0.000189
637 0.000194
638 0.000203
639 0.000212
640 0.000217
641 0.000218
642 0.000215
643 0.000211
644 0.000211
645 0.000211
646 0.000208
647 0.000213
648 0.000215
649 0.000209
650 0.000205
651 0.000203
652 0.000206
653 0.000206
654 0.000206
655 0.000206
656 0.000206
657 0.000209
658 0.000213
659 0.000214
660 0.000208
661 0.000205
662 0.000200
663 0.000198
664 0.000199
665 0.000195
666 0.000190
667 0.000183
668 0.000177
669 0.000176
670 0.000177
671 0.000178
672 0.000187
673 0.000193
674 0.000194
675 0.000193
676 0.000192
677 0.000195
678 0.000194
679 0.000193
680 0.000194
681 0.000192
682 0.000192
683 0.000196
684 0.000195
685 0.000190
686 0.000184
687 0.000179
688 0.000176
689 0.000175
690 0.000174
691 0.000170
692 0.000166
693 0.000170
694 0.000175
695 0.000180
696 0.000182
697 0.000181
698 0.000180
699 0.000179
700 0.000183
701 0.000192
702 0.000199
703 0.000205
704 0.000207
705 0.000208
706 0.000202
707 0.000198
708 0.000200
709 0.000201
710 0.000202
711 0.000201
712 0.000204
713 0.000200
714 0.000204
715 0.000207
716 0.000200
717 0.000193
718 0.000185
719 0.000179
720 0.000177
721 0.000173
722 0.000171
723 0.000165
724 0.000156
725 0.000153
726 0.000151
727 0.000146
728 0.000141
729 0.000141
730 0.000141
731 0.000134
732 0.000131
733 0.000130
734 0.000124
735 0.000120
736 0.000120
737 0.000117
738 0.000116
739 0.000116
740 0.000112
741 0.000108
742 0.000107
743 0.000109
744 0.000111
745 0.000115
746 0.000113
747 0.000108
748 0.000104
749 0.000101
750 0.000110
751 0.000114
752 0.000118
753 0.000123
754 0.000126
755 0.000127
756 0.000123
757 0.000122
758 0.000123
759 0.000122
760 0.000119
761 0.000120
762 0.000127
763 0.000134
764 0.000140
765 0.000140
766 0.000139
767 0.000138
768 0.000139
769 0.000138
770 0.000139
771 0.000141
772 0.000141
773 0.000139
774 0.000140
775 0.000144
776 0.000149
777 0.000152
778 0.000157
779 0.000158
780 0.000158
781 0.000160
782 0.000161
783 0.000160
784 0.000161
785 0.000163
786 0.000165
787 0.000168
788 0.000169
789 0.000170
790 0.000172
791 0.000171
792 0.000171
793 0.000170
794 0.000170
795 0.000168
796 0.000166
797 0.000165
798 0.000160
799 0.000157
800 0.000158
801 0.000155
802 0.000156
803 0.000157
804 0.000159
805 0.000161
806 0.000162
807 0.000167
808 0.000169
809 0.000171
