# i correlation
1 0.002006
2 0.001938
3 0.001886
4 0.001841
5 0.001792
6 0.001754
7 0.001717
8 0.001670
9 0.001630
10 0.001588
11 0.001550
12 0.001514
13 0.001475
14 0.001435
15 0.001404
16 0.001373
17 0.001344
18 0.001320
19 0.001304
20 0.001295
21 0.001288
22 0.001276
23 0.001261
24 0.001249
25 0.001240
26 0.001232
27 0.001224
28 0.001208
29 0.001190
30 0.001171
31 0.001160
32 0.001154
33 0.001149
34 0.001141
35 0.001133
36 0.001117
37 0.001106
38 0.001097
39 0.001093
40 0.001086
41 0.001085
42 0.001081
43 0.001074
44 0.001073
45 0.001076
46 0.001085
47 0.001095
48 0.001107
49 0.001115
50 0.001111
51 0.001107
52 0.001108
53 0.001107
54 0.001109
55 0.001117
56 0.001118
57 0.001116
58 0.001119
59 0.001114
60 0.001115
61 0.001106
62 0.001100
63 0.001096
64 0.001086
65 0.001080
66 0.001073
67 0.001061
68 0.001049
69 0.001037
70 0.001030
71 0.001030
72 0.001025
73 0.001022
74 0.001020
75 0.001008
76 0.001000
77 0.000989
78 0.000968
79 0.000955
80 0.000942
81 0.000930
82 0.000929
83 0.000929
84 0.000919
85 0.000909
86 0.000902
87 0.000890
88 0.000880
89 0.000870
90 0.000859
91 0.000849
92 0.000835
93 0.000832
94 0.000832
95 0.000831
96 0.000831
97 0.000834
98 0.000840
99 0.000837
100 0.000840
101 0.000839
102 0.000842
103 0.000845
104 0.000844
105 0.000846
106 0.000844
107 0.000843
108 0.000839
109 0.000830
110 0.000826
111 0.000824
112 0.000812
113 0.000802
114 0.000791
115 0.000783
116 0.000774
117 0.000776
118 0.000780
119 0.000778
120 0.000773
121 0.000768
122 0.000757
123 0.000751
124 0.000743
125 0.000733
126 0.000724
127 0.000716
128 0.000709
129 0.000707
130 0.000710
131 0.000709
132 0.000710
133 0.000704
134 0.000705
135 0.000702
136 0.000695
137 0.000685
138 0.000683
139 0.000682
140 0.000675
141 0.000673
142 0.000677
143 0.000666
144 0.000660
145 0.000650
146 0.000648
147 0.000634
148 0.000629
149 0.000620
150 0.000613
151 0.000607
152 0.000603
153 0.000599
154 0.000597
155 0.000597
156 0.000603
157 0.000598
158 0.000592
159 0.000590
160 0.000584
161 0.000574
162 0.000566
163 0.000559
164 0.000551
165 0.000544
166 0.000550
167 0.000549
168 0.000549
169 0.000547
170 0.000539
171 0.000527
172 0.000521
173 0.000513
174 0.000511
175 0.000502
176 0.000505
177 0.000501
178 0.000495
179 0.000495
180 0.000496
181 0.000498
182 0.000494
183 0.000493
184 0.000495
185 0.000493
186 0.000486
187 0.000485
188 0.000482
189 0.000476
190 0.000477
191 0.000473
192 0.000469
193 0.000466
194 0.000459
195 0.000451
196 0.000446
197 0.000437
198 0.000422
199 0.000404
200 0.000392
201 0.000394
202 0.000387
203 0.000385
204 0.000377
205 0.000365
206 0.000352
207 0.000346
208 0.000347
209 0.000357
210 0.000350
211 0.000349
212 0.000344
213 0.000340
214 0.000338
215 0.000336
216 0.000337
217 0.000343
218 0.000349
219 0.000349
220 0.000341
221 0.000337
222 0.000334
223 0.000330
224 0.000330
225 0.000328
226 0.000329
227 0.000323
228 0.000319
229 0.000318
230 0.000319
231 0.000315
232 0.000322
233 0.000324
234 0.000328
235 0.000326
236 0.000328
237 0.000337
238 0.000348
239 0.000360
240 0.000368
241 0.000376
242 0.000395
243 0.000407
244 0.000423
245 0.000434
246 0.000431
247 0.000431
248 0.000432
249 0.000438
250 0.000449
251 0.000467
252 0.000474
253 0.000484
254 0.000488
255 0.000494
256 0.000494
257 0.000505
258 0.000517
259 0.000522
260 0.000532
261 0.000539
262 0.000538
263 0.000544
264 0.000550
265 0.000552
266 0.000562
267 0.000571
268 0.000567
269 0.000571
270 0.000571
271 0.000568
272 0.000562
273 0.000566
274 0.000569
275 0.000565
276 0.000563
277 0.000558
278 0.000547
279 0.000540
280 0.000538
281 0.000529
282 0.000524
283 0.000516
284 0.000506
285 0.000504
286 0.000505
287 0.000509
288 0.000507
289 0.000502
290 0.000502
291 0.000503
292 0.000507
293 0.000505
294 0.000506
295 0.000503
296 0.000502
297 0.000498
298 0.000503
299 0.000509
300 0.000517
301 0.000519
302 0.000525
303 0.000524
304 0.000520
305 0.000524
306 0.000524
307 0.000525
308 0.000526
309 0.000527
310 0.000523
311 0.000518
312 0.000515
313 0.000509
314 0.000510
315 0.000515
316 0.000518
317 0.000517
318 0.000516
319 0.000512
320 0.000514
321 0.000522
322 0.000528
323 0.000530
324 0.000533
325 0.000534
326 0.000541
327 0.000545
328 0.000546
329 0.000549
330 0.000550
331 0.000550
332 0.000549
333 0.000546
334 0.000542
335 0.000541
336 0.000542
337 0.000545
338 0.000546
339 0.000540
340 0.000536
341 0.000533
342 0.000537
343 0.000544
344 0.000542
345 0.000540
346 0.000529
347 0.000525
348 0.000521
349 0.000520
350 0.000523
351 0.000526
352 0.000519
353 0.000515
354 0.000513
355 0.000506
356 0.000505
357 0.000505
358 0.000511
359 0.000510
360 0.000510
361 0.000510
362 0.000514
363 0.000523
364 0.000528
365 0.000536
366 0.000539
367 0.000545
368 0.000551
369 0.000558
370 0.000568
371 0.000581
372 0.000587
373 0.000590
374 0.000588
375 0.000588
376 0.000595
377 0.000602
378 0.000610
379 0.000612
380 0.000611
381 0.000610
382 0.000612
383 0.000607
384 0.000605
385 0.000608
386 0.000602
387 0.000599
388 0.000599
389 0.000598
390 0.000594
391 0.000589
392 0.000579
393 0.000572
394 0.000562
395 0.000547
396 0.000532
397 0.000518
398 0.000508
399 0.000501
400 0.000501
401 0.000491
402 0.000482
403 0.000483
404 0.000479
405 0.000482
406 0.000481
407 0.000477
408 0.000470
409 0.000462
410 0.000465
411 0.000468
412 0.000468
413 0.000463
414 0.000467
415 0.000469
416 0.000470
417 0.000474
418 0.000471
419 0.000465
420 0.000463
421 0.000468
422 0.000470
423 0.000478
424 0.000486
425 0.000501
426 0.000514
427 0.000529
428 0.000535
429 0.000541
430 0.000545
431 0.000550
432 0.000553
433 0.000557
434 0.000560
435 0.000565
436 0.000569
437 0.000570
438 0.000570
439 0.000566
440 0.000560
441 0.000556
442 0.000549
443 0.000546
444 0.000542
445 0.000539
446 0.000534
447 0.000529
448 0.000526
449 0.000518
450 0.000504
451 0.000491
452 0.000481
453 0.000475
454 0.000471
455 0.000459
456 0.000454
457 0.000436
458 0.000425
459 0.000414
460 0.000405
461 0.000396
462 0.000382
463 0.000369
464 0.000361
465 0.000349
466 0.000335
467 0.000321
468 0.000313
469 0.000305
470 0.000301
471 0.000301
472 0.000306
473 0.000308
474 0.000308
475 0.000314
476 0.000316
477 0.000324
478 0.000327
479 0.000333
480 0.000338
481 0.000345
482 0.000352
483 0.000365
484 0.000374
485 0.000379
486 0.000386
487 0.000394
488 0.000395
489 0.000396
490 0.000402
491 0.000400
492 0.000399
493 0.000395
494 0.000385
495 0.000381
496 0.000384
497 0.000384
498 0.000379
499 0.000380
500 0.000382
501 0.000384
502 0.000388
503 0.000394
504 0.000398
505 0.000396
506 0.000389
507 0.000384
508 0.000387
509 0.000395
510 0.000400
511 0.000416
512 0.000426
513 0.000433
514 0.000437
515 0.000431
516 0.000430
517 0.000426
518 0.000423
519 0.000418
520 0.000412
521 0.000403
522 0.000390
523 0.000378
524 0.000375
525 0.000367
526 0.000357
527 0.000348
528 0.000335
529 0.000324
530 0.000320
531 0.000318
532 0.000317
533 0.000319
534 0.000319
535 0.000324
536 0.000324
537 0.000326
538 0.000329
539 0.000326
540 0.000326
541 0.000326
542 0.000323
543 0.000320
544 0.000323
545 0.000325
546 0.000327
547 0.000333
548 0.000330
549 0.000326
550 0.000319
551 0.000314
552 0.000313
553 0.000307
554 0.000303
555 0.000297
556 0.000295
557 0.000289
558 0.000289
559 0.000296
560 0.000300
561 0.000302
562 0.000308
563 0.000314
564 0.000313
565 0.000313
566 0.000317
567 0.000321
568 0.000318
569 0.000322
570 0.000320
571 0.000318
572 0.000317
573 0.000316
574 0.000313
575 0.000311
576 0.000308
577 0.000307
578 0.000298
579 0.000291
580 0.000283
581 0.000273
582 0.000269
583 0.000263
584 0.000256
585 0.000249
586 0.000246
587 0.000241
588 0.000234
589 0.000229
590 0.000226
591 0.000222
592 0.000218
593 0.000214
594 0.000208
595 0.000207
596 0.000203
597 0.000203
598 0.000205
599 0.000201
600 0.000201
601 0.000201
602 0.000205
603 0.000204
604 0.000206
605 0.000202
606 0.000202
607 0.000201
608 0.000202
609 0.000204
610 0.000200
611 0.000198
612 0.000202
613 0.000200
614 0.000202
615 0.000201
616 0.000201
617 0.000204
618 0.000206
619 0.000207
620 0.000204
621 0.000206
622 0.000208
623 0.000208
624 0.000218
625 0.000219
626 0.000222
627 0.000230
628 0.000241
629 0.000249
630 0.000250
631 0.000256
632 0.000266
633 0.000273
634 0.000273
635 0.000278
636 0.000280
637 0.000280
638 0.000283
639 0.000287
640 0.000286
641 0.000282
642 0.000278
643 0.000274
644 0.000270
645 0.000267
646 0.000260
647 0.000251
648 0.000244
649 0.000240
650 0.000230
651 0.000221
652 0.000215
653 0.000211
654 0.000207
655 0.000202
656 0.000195
657 0.000189
658 0.000189
659 0.000187
660 0.000185
661 0.000182
662 0.000175
663 0.000169
664 0.000165
665 0.000164
666 0.000164
667 0.000166
668 0.000167
669 0.000169
670 0.000173
671 0.000171
672 0.000172
673 0.000177
674 0.000183
675 0.000188
676 0.000196
677 0.000203
678 0.000204
679 0.000208
680 0.000221
681 0.000228
682 0.000230
683 0.000230
684 0.000232
685 0.000227
686 0.000226
687 0.000226
688 0.000231
689 0.000228
690 0.000227
691 0.000228
692 0.000230
693 0.000233
694 0.000236
695 0.000235
696 0.000232
697 0.000230
698 0.000231
699 0.000234
700 0.000233
701 0.000240
702 0.000244
703 0.000245
704 0.000246
705 0.000252
706 0.000253
707 0.000252
708 0.000251
709 0.000254
710 0.000252
711 0.000247
712 0.000245
713 0.000240
714 0.000240
715 0.000241
716 0.000239
717 0.000232
718 0.000222
719 0.000214
720 0.000205
721 0.000200
722 0.000196
723 0.000194
724 0.000186
725 0.000180
726 0.000176
727 0.000173
728 0.000172
729 0.000172
730 0.000170
731 0.000164
732 0.000163
733 0.000161
734 0.000162
735 0.000163
736 0.000161
737 0.000156
738 0.000151
739 0.000146
740 0.000136
741 0.000132
742 0.000126
743 0.000125
744 0.000118
745 0.000110
746 0.000103
747 0.000101
748 0.000100
749 0.000094
750 0.000092
751 0.000090
752 0.000086
753 0.000087
754 0.000089
755 0.000088
756 0.000095
757 0.000097
758 0.000099
759 0.000103
760 0.000109
761 0.000115
762 0.000118
763 0.000124
764 0.000129
765 0.000135
766 0.000141
767 0.000142
768 0.000140
769 0.000140
770 0.000146
771 0.000147
772 0.000148
773 0.000150
774 0.000154
775 0.000160
776 0.000164
777 0.000168
778 0.000173
779 0.000177
780 0.000179
781 0.000183
782 0.000186
783 0.000189
784 0.000192
785 0.000194
786 0.000194
787 0.000193
788 0.000195
789 0.000190
790 0.000183
791 0.000179
792 0.000176
793 0.000172
794 0.000166
795 0.000157
796 0.000152
797 0.000146
798 0.000142
799 0.000139
800 0.000135
801 0.000127
802 0.000119
803 0.000115
804 0.000114
805 0.000114
806 0.000109
807 0.000106
808 0.000102
809 0.000103
