# i correlation
1 0.001563
2 0.001481
3 0.001402
4 0.001340
5 0.001288
6 0.001250
7 0.001220
8 0.001199
9 0.001175
10 0.001157
11 0.001144
12 0.001137
13 0.001124
14 0.001116
15 0.001109
16 0.001090
17 0.001070
18 0.001058
19 0.001050
20 0.001032
21 0.001014
22 0.000996
23 0.000984
24 0.000968
25 0.000951
26 0.000936
27 0.000926
28 0.000926
29 0.000929
30 0.000933
31 0.000936
32 0.000944
33 0.000949
34 0.000952
35 0.000951
36 0.000945
37 0.000939
38 0.000928
39 0.000917
40 0.000907
41 0.000891
42 0.000875
43 0.000865
44 0.000862
45 0.000863
46 0.000860
47 0.000863
48 0.000860
49 0.000857
50 0.000837
51 0.000831
52 0.000819
53 0.000807
54 0.000791
55 0.000783
56 0.000783
57 0.000776
58 0.000780
59 0.000787
60 0.000789
61 0.000790
62 0.000788
63 0.000790
64 0.000795
65 0.000797
66 0.000794
67 0.000794
68 0.000801
69 0.000802
70 0.000814
71 0.000824
72 0.000830
73 0.000833
74 0.000830
75 0.000823
76 0.000818
77 0.000816
78 0.000809
79 0.000797
80 0.000782
81 0.000763
82 0.000754
83 0.000754
84 0.000760
85 0.000758
86 0.000755
87 0.000747
88 0.000744
89 0.000733
90 0.000730
91 0.000725
92 0.000714
93 0.000706
94 0.000699
95 0.000681
96 0.000673
97 0.000663
98 0.000653
99 0.000644
100 0.000642
101 0.000644
102 0.000643
103 0.000643
104 0.000649
105 0.000655
106 0.000664
107 0.000676
108 0.000672
109 0.000678
110 0.000670
111 0.000670
112 0.000670
113 0.000663
114 0.000652
115 0.000639
116 0.000635
117 0.000642
118 0.000647
119 0.000660
120 0.000664
121 0.000664
122 0.000657
123 0.000650
124 0.000645
125 0.000636
126 0.000624
127 0.000613
128 0.000600
129 0.000591
130 0.000585
131 0.000587
132 0.000580
133 0.000568
134 0.000558
135 0.000554
136 0.000552
137 0.000559
138 0.000564
139 0.000579
140 0.000584
141 0.000593
142 0.000607
143 0.000619
144 0.000627
145 0.000632
146 0.000634
147 0.000629
148 0.000624
149 0.000627
150 0.000628
151 0.000631
152 0.000641
153 0.000649
154 0.000666
155 0.000676
156 0.000686
157 0.000686
158 0.000689
159 0.000688
160 0.000687
161 0.000682
162 0.000671
163 0.000657
164 0.000649
165 0.000642
166 0.000628
167 0.000608
168 0.000595
169 0.000580
170 0.000566
171 0.000556
172 0.000547
173 0.000541
174 0.000533
175 0.000523
176 0.000519
177 0.000518
178 0.000513
179 0.000512
180 0.000512
181 0.000506
182 0.000502
183 0.000491
184 0.000488
185 0.000478
186 0.000470
187 0.000463
188 0.000465
189 0.000472
190 0.000482
191 0.000502
192 0.000510
193 0.000518
194 0.000518
195 0.000524
196 0.000524
197 0.000528
198 0.000525
199 0.000525
200 0.000518
201 0.000518
202 0.000511
203 0.000511
204 0.000506
205 0.000506
206 0.000499
207 0.000503
208 0.000508
209 0.000507
210 0.000506
211 0.000501
212 0.000496
213 0.000499
214 0.000499
215 0.000498
216 0.000501
217 0.000506
218 0.000517
219 0.000531
220 0.000542
221 0.000552
222 0.000562
223 0.000559
224 0.000553
225 0.000552
226 0.000555
227 0.000562
228 0.000576
229 0.000591
230 0.000602
231 0.000618
232 0.000624
233 0.000631
234 0.000627
235 0.000626
236 0.000630
237 0.000633
238 0.000632
239 0.000627
240 0.000631
241 0.000627
242 0.000621
243 0.000614
244 0.000610
245 0.000602
246 0.000591
247 0.000575
248 0.000570
249 0.000563
250 0.000561
251 0.000557
252 0.000558
253 0.000548
254 0.000539
255 0.000539
256 0.000545
257 0.000543
258 0.000544
259 0.000541
260 0.000542
261 0.000541
262 0.000538
263 0.000530
264 0.000524
265 0.000520
266 0.000521
267 0.000525
268 0.000531
269 0.000533
270 0.000532
271 0.000534
272 0.000535
273 0.000542
274 0.000550
275 0.000563
276 0.000566
277 0.000578
278 0.000586
279 0.000592
280 0.000597
281 0.000598
282 0.000591
283 0.000585
284 0.000578
285 0.000579
286 0.000580
287 0.000580
288 0.000568
289 0.000563
290 0.000555
291 0.000549
292 0.000548
293 0.000554
294 0.000554
295 0.000555
296 0.000553
297 0.000552
298 0.000548
299 0.000550
300 0.000545
301 0.000548
302 0.000547
303 0.000550
304 0.000558
305 0.000567
306 0.000569
307 0.000564
308 0.000564
309 0.000566
310 0.000561
311 0.000559
312 0.000554
313 0.000554
314 0.000554
315 0.000553
316 0.000544
317 0.000534
318 0.000524
319 0.000518
320 0.000519
321 0.000518
322 0.000518
323 0.000516
324 0.000516
325 0.000516
326 0.000518
327 0.000509
328 0.000496
329 0.000482
330 0.000464
331 0.000445
332 0.000428
333 0.000415
334 0.000407
335 0.000397
336 0.000388
337 0.000381
338 0.000382
339 0.000380
340 0.000383
341 0.000376
342 0.000367
343 0.000355
344 0.000342
345 0.000337
346 0.000336
347 0.000333
348 0.000331
349 0.000334
350 0.000339
351 0.000345
352 0.000356
353 0.000369
354 0.000372
355 0.000374
356 0.000369
357 0.000366
358 0.000360
359 0.000350
360 0.000340
361 0.000332
362 0.000322
363 0.000308
364 0.000299
365 0.000294
366 0.000283
367 0.000278
368 0.000268
369 0.000266
370 0.000262
371 0.000258
372 0.000264
373 0.000278
374 0.000284
375 0.000294
376 0.000297
377 0.000301
378 0.000297
379 0.000296
380 0.000302
381 0.000308
382 0.000314
383 0.000317
384 0.000322
385 0.000326
386 0.000333
387 0.000341
388 0.000347
389 0.000353
390 0.000359
391 0.000356
392 0.000359
393 0.000360
394 0.000368
395 0.000370
396 0.000378
397 0.000388
398 0.000397
399 0.000410
400 0.000412
401 0.000407
402 0.000399
403 0.000383
404 0.000378
405 0.000373
406 0.000366
407 0.000348
408 0.000332
409 0.000323
410 0.000319
411 0.000316
412 0.000321
413 0.000327
414 0.000330
415 0.000326
416 0.000321
417 0.000323
418 0.000319
419 0.000309
420 0.000303
421 0.000295
422 0.000291
423 0.000287
424 0.000285
425 0.000284
426 0.000284
427 0.000279
428 0.000284
429 0.000293
430 0.000298
431 0.000304
432 0.000312
433 0.000323
434 0.000327
435 0.000325
436 0.000321
437 0.000313
438 0.000308
439 0.000302
440 0.000303
441 0.000307
442 0.000307
443 0.000307
444 0.000307
445 0.000315
446 0.000322
447 0.000328
448 0.000334
449 0.000341
450 0.000351
451 0.000352
452 0.000348
453 0.000343
454 0.000334
455 0.000324
456 0.000310
457 0.000307
458 0.000307
459 0.000316
460 0.000329
461 0.000341
462 0.000350
463 0.000356
464 0.000362
465 0.000371
466 0.000381
467 0.000384
468 0.000390
469 0.000394
470 0.000395
471 0.000394
472 0.000387
473 0.000382
474 0.000378
475 0.000371
476 0.000370
477 0.000369
478 0.000367
479 0.000367
480 0.000373
481 0.000377
482 0.000383
483 0.000385
484 0.000389
485 0.000386
486 0.000382
487 0.000369
488 0.000355
489 0.000341
490 0.000332
491 0.000326
492 0.000323
493 0.000315
494 0.000313
495 0.000311
496 0.000316
497 0.000320
498 0.000321
499 0.000324
500 0.000326
501 0.000326
502 0.000324
503 0.000325
504 0.000329
505 0.000333
506 0.000344
507 0.000348
508 0.000356
509 0.000354
510 0.000349
511 0.000349
512 0.000350
513 0.000356
514 0.000359
515 0.000360
516 0.000363
517 0.000370
518 0.000380
519 0.000385
520 0.000387
521 0.000389
522 0.000384
523 0.000377
524 0.000371
525 0.000366
526 0.000362
527 0.000358
528 0.000354
529 0.000357
530 0.000357
531 0.000361
532 0.000362
533 0.000365
534 0.000366
535 0.000371
536 0.000377
537 0.000380
538 0.000380
539 0.000378
540 0.000376
541 0.000379
542 0.000384
543 0.000386
544 0.000386
545 0.000386
546 0.000385
547 0.000383
548 0.000379
549 0.000372
550 0.000365
551 0.000363
552 0.000363
553 0.000365
554 0.000370
555 0.000376
556 0.000377
557 0.000378
558 0.000373
559 0.000371
560 0.000369
561 0.000365
562 0.000360
563 0.000351
564 0.000347
565 0.000337
566 0.000327
567 0.000314
568 0.000302
569 0.000296
570 0.000299
571 0.000301
572 0.000304
573 0.000307
574 0.000313
575 0.000309
576 0.000302
577 0.000297
578 0.000294
579 0.000288
580 0.000283
581 0.000281
582 0.000280
583 0.000280
584 0.000276
585 0.000275
586 0.000273
587 0.000269
588 0.000262
589 0.000257
590 0.000248
591 0.000244
592 0.000241
593 0.000242
594 0.000244
595 0.000246
596 0.000241
597 0.000237
598 0.000231
599 0.000217
600 0.000205
601 0.000198
602 0.000199
603 0.000201
604 0.000209
605 0.000215
606 0.000220
607 0.000224
608 0.000226
609 0.000225
610 0.000225
611 0.000222
612 0.000220
613 0.000222
614 0.000222
615 0.000218
616 0.000203
617 0.000196
618 0.000194
619 0.000200
620 0.000210
621 0.000218
622 0.000223
623 0.000223
624 0.000216
625 0.000216
626 0.000219
627 0.000224
628 0.000225
629 0.000223
630 0.000225
631 0.000219
632 0.000217
633 0.000222
634 0.000224
635 0.000227
636 0.000225
637 0.000219
638 0.000211
639 0.000204
640 0.000200
641 0.000193
642 0.000192
643 0.000187
644 0.000186
645 0.000183
646 0.000177
647 0.000169
648 0.000162
649 0.000154
650 0.000151
651 0.000149
652 0.000147
653 0.000142
654 0.000137
655 0.000131
656 0.000123
657 0.000117
658 0.000112
659 0.000105
660 0.000100
661 0.000095
662 0.000091
663 0.000092
664 0.000090
665 0.000090
666 0.000092
667 0.000094
668 0.000099
669 0.000102
670 0.000106
671 0.000110
672 0.000114
673 0.000122
674 0.000130
675 0.000134
676 0.000133
677 0.000135
678 0.000139
679 0.000147
680 0.000152
681 0.000163
682 0.000175
683 0.000182
684 0.000187
685 0.000197
686 0.000199
687 0.000200
688 0.000197
689 0.000196
690 0.000197
691 0.000204
692 0.000213
693 0.000220
694 0.000224
695 0.000225
696 0.000224
697 0.000223
698 0.000224
699 0.000225
700 0.000221
701 0.000220
702 0.000219
703 0.000223
704 0.000227
705 0.000233
706 0.000241
707 0.000244
708 0.000245
709 0.000245
710 0.000246
711 0.000250
712 0.000256
713 0.000263
714 0.000265
715 0.000265
716 0.000261
717 0.000254
718 0.000245
719 0.000240
720 0.000235
721 0.000230
722 0.000227
723 0.000222
724 0.000220
725 0.000219
726 0.000224
727 0.000229
728 0.000233
729 0.000232
730 0.000226
731 0.000217
732 0.000208
733 0.000199
734 0.000194
735 0.000190
736 0.000187
737 0.000184
738 0.000182
739 0.000182
740 0.000180
741 0.000177
742 0.000174
743 0.000172
744 0.000172
745 0.000172
746 0.000174
747 0.000179
748 0.000179
749 0.000176
750 0.000172
751 0.000168
752 0.000166
753 0.000164
754 0.000168
755 0.000171
756 0.000170
757 0.000169
758 0.000168
759 0.000169
760 0.000167
761 0.000165
762 0.000164
763 0.000165
764 0.000165
765 0.000163
766 0.000162
767 0.000160
768 0.000154
769 0.000154
770 0.000155
771 0.000159
772 0.000161
773 0.000164
774 0.000171
775 0.000178
776 0.000185
777 0.000190
778 0.000195
779 0.000200
780 0.000199
781 0.000195
782 0.000194
783 0.000193
784 0.000194
785 0.000194
786 0.000199
787 0.000199
788 0.000200
789 0.000200
790 0.000203
791 0.000205
792 0.000207
793 0.000207
794 0.000208
795 0.000209
796 0.000211
797 0.000210
798 0.000212
799 0.000215
800 0.000214
801 0.000212
802 0.000210
803 0.000210
804 0.000208
805 0.000209
806 0.000206
807 0.000201
808 0.000193
809 0.000183
