# i correlation
1 0.001814
2 0.001726
3 0.001646
4 0.001579
5 0.001517
6 0.001451
7 0.001394
8 0.001349
9 0.001303
10 0.001256
11 0.001226
12 0.001212
13 0.001193
14 0.001181
15 0.001167
16 0.001159
17 0.001157
18 0.001148
19 0.001152
20 0.001159
21 0.001163
22 0.001164
23 0.001156
24 0.001149
25 0.001140
26 0.001138
27 0.001132
28 0.001126
29 0.001119
30 0.001103
31 0.001094
32 0.001086
33 0.001079
34 0.001072
35 0.001050
36 0.001042
37 0.001035
38 0.001020
39 0.001010
40 0.000992
41 0.000979
42 0.000967
43 0.000954
44 0.000938
45 0.000934
46 0.000936
47 0.000937
48 0.000954
49 0.000952
50 0.000959
51 0.000963
52 0.000960
53 0.000950
54 0.000938
55 0.000928
56 0.000931
57 0.000923
58 0.000919
59 0.000917
60 0.000911
61 0.000914
62 0.000922
63 0.000924
64 0.000933
65 0.000944
66 0.000951
67 0.000954
68 0.000956
69 0.000950
70 0.000937
71 0.000930
72 0.000912
73 0.000908
74 0.000898
75 0.000888
76 0.000874
77 0.000862
78 0.000853
79 0.000853
80 0.000850
81 0.000853
82 0.000865
83 0.000870
84 0.000879
85 0.000887
86 0.000885
87 0.000894
88 0.000907
89 0.000911
90 0.000908
91 0.000910
92 0.000905
93 0.000909
94 0.000909
95 0.000908
96 0.000905
97 0.000905
98 0.000906
99 0.000914
100 0.000914
101 0.000920
102 0.000923
103 0.000931
104 0.000934
105 0.000931
106 0.000917
107 0.000911
108 0.000904
109 0.000893
110 0.000892
111 0.000890
112 0.000888
113 0.000882
114 0.000879
115 0.000880
116 0.000890
117 0.000894
118 0.000890
119 0.000880
120 0.000876
121 0.000875
122 0.000869
123 0.000859
124 0.000856
125 0.000855
126 0.000851
127 0.000844
128 0.000832
129 0.000826
130 0.000830
131 0.000827
132 0.000827
133 0.000826
134 0.000813
135 0.000802
136 0.000792
137 0.000786
138 0.000771
139 0.000757
140 0.000748
141 0.000735
142 0.000724
143 0.000710
144 0.000701
145 0.000698
146 0.000697
147 0.000694
148 0.000685
149 0.000680
150 0.000680
151 0.000666
152 0.000663
153 0.000665
154 0.000661
155 0.000656
156 0.000642
157 0.000630
158 0.000622
159 0.000618
160 0.000612
161 0.000605
162 0.000598
163 0.000591
164 0.000594
165 0.000590
166 0.000585
167 0.000586
168 0.000583
169 0.000588
170 0.000590
171 0.000591
172 0.000602
173 0.000602
174 0.000602
175 0.000595
176 0.000591
177 0.000579
178 0.000570
179 0.000571
180 0.000555
181 0.000547
182 0.000532
183 0.000525
184 0.000525
185 0.000533
186 0.000550
187 0.000549
188 0.000550
189 0.000549
190 0.000555
191 0.000570
192 0.000576
193 0.000574
194 0.000570
195 0.000565
196 0.000563
197 0.000557
198 0.000564
199 0.000562
200 0.000564
201 0.000563
202 0.000556
203 0.000560
204 0.000558
205 0.000548
206 0.000544
207 0.000539
208 0.000538
209 0.000538
210 0.000534
211 0.000527
212 0.000531
213 0.000521
214 0.000506
215 0.000503
216 0.000489
217 0.000480
218 0.000483
219 0.000484
220 0.000497
221 0.000505
222 0.000512
223 0.000522
224 0.000533
225 0.000531
226 0.000525
227 0.000521
228 0.000517
229 0.000513
230 0.000506
231 0.000509
232 0.000513
233 0.000507
234 0.000511
235 0.000521
236 0.000538
237 0.000550
238 0.000561
239 0.000565
240 0.000572
241 0.000576
242 0.000585
243 0.000604
244 0.000614
245 0.000603
246 0.000597
247 0.000587
248 0.000586
249 0.000584
250 0.000572
251 0.000564
252 0.000564
253 0.000555
254 0.000554
255 0.000539
256 0.000529
257 0.000530
258 0.000527
259 0.000521
260 0.000519
261 0.000509
262 0.000494
263 0.000483
264 0.000476
265 0.000472
266 0.000474
267 0.000464
268 0.000455
269 0.000448
270 0.000446
271 0.000443
272 0.000443
273 0.000439
274 0.000444
275 0.000450
276 0.000452
277 0.000459
278 0.000467
279 0.000478
280 0.000482
281 0.000474
282 0.000469
283 0.000455
284 0.000446
285 0.000439
286 0.000433
287 0.000427
288 0.000425
289 0.000420
290 0.000411
291 0.000421
292 0.000426
293 0.000430
294 0.000440
295 0.000450
296 0.000458
297 0.000471
298 0.000468
299 0.000479
300 0.000487
301 0.000491
302 0.000494
303 0.000498
304 0.000497
305 0.000498
306 0.000493
307 0.000489
308 0.000487
309 0.000483
310 0.000472
311 0.000469
312 0.000467
313 0.000468
314 0.000461
315 0.000452
316 0.000444
317 0.000440
318 0.000438
319 0.000433
320 0.000434
321 0.000430
322 0.000432
323 0.000427
324 0.000418
325 0.000418
326 0.000426
327 0.000431
328 0.000434
329 0.000431
330 0.000430
331 0.000430
332 0.000429
333 0.000428
334 0.000427
335 0.000424
336 0.000423
337 0.000419
338 0.000410
339 0.000408
340 0.000402
341 0.000396
342 0.000384
343 0.000383
344 0.000383
345 0.000391
346 0.000385
347 0.000385
348 0.000392
349 0.000395
350 0.000400
351 0.000403
352 0.000401
353 0.000400
354 0.000397
355 0.000390
356 0.000387
357 0.000379
358 0.000369
359 0.000367
360 0.000360
361 0.000356
362 0.000346
363 0.000344
364 0.000352
365 0.000359
366 0.000361
367 0.000363
368 0.000372
369 0.000376
370 0.000376
371 0.000374
372 0.000370
373 0.000371
374 0.000371
375 0.000363
376 0.000372
377 0.000376
378 0.000381
379 0.000379
380 0.000372
381 0.000364
382 0.000365
383 0.000362
384 0.000360
385 0.000353
386 0.000354
387 0.000354
388 0.000359
389 0.000364
390 0.000369
391 0.000369
392 0.000364
393 0.000364
394 0.000360
395 0.000353
396 0.000351
397 0.000347
398 0.000344
399 0.000343
400 0.000343
401 0.000339
402 0.000336
403 0.000336
404 0.000333
405 0.000324
406 0.000318
407 0.000314
408 0.000300
409 0.000285
410 0.000280
411 0.000277
412 0.000278
413 0.000275
414 0.000270
415 0.000278
416 0.000292
417 0.000297
418 0.000301
419 0.000303
420 0.000311
421 0.000321
422 0.000330
423 0.000333
424 0.000334
425 0.000332
426 0.000323
427 0.000321
428 0.000324
429 0.000326
430 0.000326
431 0.000323
432 0.000328
433 0.000335
434 0.000349
435 0.000360
436 0.000369
437 0.000373
438 0.000379
439 0.000386
440 0.000389
441 0.000386
442 0.000384
443 0.000385
444 0.000388
445 0.000384
446 0.000373
447 0.000369
448 0.000357
449 0.000355
450 0.000345
451 0.000336
452 0.000335
453 0.000328
454 0.000311
455 0.000306
456 0.000298
457 0.000294
458 0.000293
459 0.000297
460 0.000301
461 0.000308
462 0.000303
463 0.000302
464 0.000308
465 0.000299
466 0.000303
467 0.000298
468 0.000300
469 0.000295
470 0.000292
471 0.000290
472 0.000297
473 0.000299
474 0.000297
475 0.000296
476 0.000292
477 0.000280
478 0.000273
479 0.000266
480 0.000266
481 0.000272
482 0.000274
483 0.000274
484 0.000275
485 0.000279
486 0.000287
487 0.000291
488 0.000291
489 0.000295
490 0.000299
491 0.000305
492 0.000306
493 0.000301
494 0.000296
495 0.000290
496 0.000285
497 0.000287
498 0.000291
499 0.000283
500 0.000287
501 0.000291
502 0.000296
503 0.000304
504 0.000304
505 0.000305
506 0.000305
507 0.000296
508 0.000291
509 0.000293
510 0.000288
511 0.000285
512 0.000277
513 0.000269
514 0.000261
515 0.000252
516 0.000251
517 0.000247
518 0.000246
519 0.000237
520 0.000231
521 0.000229
522 0.000231
523 0.000237
524 0.000242
525 0.000241
526 0.000237
527 0.000228
528 0.000219
529 0.000205
530 0.000198
531 0.000195
532 0.000197
533 0.000194
534 0.000183
535 0.000175
536 0.000173
537 0.000177
538 0.000181
539 0.000186
540 0.000188
541 0.000186
542 0.000183
543 0.000192
544 0.000191
545 0.000187
546 0.000184
547 0.000183
548 0.000186
549 0.000190
550 0.000196
551 0.000200
552 0.000207
553 0.000217
554 0.000226
555 0.000236
556 0.000237
557 0.000241
558 0.000234
559 0.000229
560 0.000227
561 0.000216
562 0.000208
563 0.000204
564 0.000201
565 0.000205
566 0.000202
567 0.000205
568 0.000209
569 0.000221
570 0.000232
571 0.000247
572 0.000256
573 0.000266
574 0.000280
575 0.000293
576 0.000307
577 0.000314
578 0.000310
579 0.000309
580 0.000306
581 0.000293
582 0.000277
583 0.000259
584 0.000239
585 0.000224
586 0.000213
587 0.000196
588 0.000187
589 0.000184
590 0.000175
591 0.000173
592 0.000174
593 0.000177
594 0.000183
595 0.000183
596 0.000188
597 0.000205
598 0.000215
599 0.000219
600 0.000219
601 0.000222
602 0.000229
603 0.000229
604 0.000226
605 0.000223
606 0.000225
607 0.000230
608 0.000231
609 0.000234
610 0.000229
611 0.000229
612 0.000226
613 0.000223
614 0.000228
615 0.000227
616 0.000228
617 0.000224
618 0.000221
619 0.000218
620 0.000210
621 0.000204
622 0.000195
623 0.000185
624 0.000176
625 0.000170
626 0.000171
627 0.000168
628 0.000166
629 0.000158
630 0.000149
631 0.000143
632 0.000129
633 0.000123
634 0.000118
635 0.000119
636 0.000127
637 0.000125
638 0.000127
639 0.000121
640 0.000122
641 0.000114
642 0.000112
643 0.000112
644 0.000114
645 0.000115
646 0.000113
647 0.000116
648 0.000121
649 0.000115
650 0.000110
651 0.000096
652 0.000085
653 0.000076
654 0.000061
655 0.000048
656 0.000034
657 0.000024
658 0.000017
659 0.000016
660 0.000016
661 0.000012
662 0.000009
663 0.000003
664 0.000008
665 0.000013
666 0.000007
667 0.000011
668 0.000016
669 0.000020
670 0.000031
671 0.000042
672 0.000053
673 0.000066
674 0.000075
675 0.000076
676 0.000081
677 0.000086
678 0.000087
679 0.000088
680 0.000084
681 0.000081
682 0.000075
683 0.000070
684 0.000067
685 0.000065
686 0.000065
687 0.000061
688 0.000059
689 0.000052
690 0.000043
691 0.000038
692 0.000031
693 0.000025
694 0.000024
695 0.000029
696 0.000040
697 0.000045
698 0.000051
699 0.000053
700 0.000058
701 0.000064
702 0.000073
703 0.000081
704 0.000093
705 0.000092
706 0.000090
707 0.000090
708 0.000087
709 0.000090
710 0.000094
711 0.000097
712 0.000099
713 0.000098
714 0.000093
715 0.000093
716 0.000089
717 0.000084
718 0.000081
719 0.000076
720 0.000070
721 0.000059
722 0.000048
723 0.000040
724 0.000036
725 0.000037
726 0.000043
727 0.000047
728 0.000049
729 0.000063
730 0.000073
731 0.000077
732 0.000080
733 0.000083
734 0.000085
735 0.000092
736 0.000095
737 0.000095
738 0.000095
739 0.000098
740 0.000099
741 0.000106
742 0.000108
743 0.000110
744 0.000112
745 0.000107
746 0.000104
747 0.000099
748 0.000095
749 0.000083
750 0.000074
751 0.000061
752 0.000055
753 0.000038
754 0.000022
755 0.000008
756 -0.000002
757 -0.000014
758 -0.000026
759 -0.000035
760 -0.000043
761 -0.000047
762 -0.000051
763 -0.000047
764 -0.000047
765 -0.000042
766 -0.000033
767 -0.000024
768 -0.000013
769 -0.000005
770 0.000001
771 0.000003
772 0.000005
773 -0.000001
774 -0.000009
775 -0.000012
776 -0.000015
777 -0.000014
778 -0.000021
779 -0.000023
780 -0.000027
781 -0.000033
782 -0.000046
783 -0.000056
784 -0.000063
785 -0.000073
786 -0.000084
787 -0.000094
788 -0.000097
789 -0.000099
790 -0.000099
791 -0.000101
792 -0.000098
793 -0.000090
794 -0.000082
795 -0.000076
796 -0.000071
797 -0.000059
798 -0.000050
799 -0.000048
800 -0.000041
801 -0.000037
802 -0.000037
803 -0.000035
804 -0.000036
805 -0.000034
806 -0.000032
807 -0.000028
808 -0.000025
809 -0.000020
