# i correlation
1 0.001680
2 0.001598
3 0.001535
4 0.001481
5 0.001442
6 0.001411
7 0.001379
8 0.001358
9 0.001335
10 0.001319
11 0.001310
12 0.001299
13 0.001283
14 0.001268
15 0.001255
16 0.001241
17 0.001232
18 0.001223
19 0.001205
20 0.001184
21 0.001164
22 0.001148
23 0.001133
24 0.001123
25 0.001115
26 0.001117
27 0.001117
28 0.001113
29 0.001110
30 0.001104
31 0.001101
32 0.001101
33 0.001106
34 0.001103
35 0.001103
36 0.001098
37 0.001089
38 0.001084
39 0.001070
40 0.001051
41 0.001043
42 0.001040
43 0.001040
44 0.001045
45 0.001055
46 0.001060
47 0.001064
48 0.001067
49 0.001069
50 0.001067
51 0.001060
52 0.001050
53 0.001043
54 0.001032
55 0.001021
56 0.001020
57 0.001017
58 0.001018
59 0.001025
60 0.001035
61 0.001038
62 0.001049
63 0.001053
64 0.001046
65 0.001039
66 0.001032
67 0.001025
68 0.001014
69 0.001003
70 0.000986
71 0.000969
72 0.000956
73 0.000942
74 0.000927
75 0.000920
76 0.000907
77 0.000895
78 0.000899
79 0.000908
80 0.000910
81 0.000921
82 0.000921
83 0.000918
84 0.000914
85 0.000908
86 0.000900
87 0.000899
88 0.000901
89 0.000906
90 0.000915
91 0.000918
92 0.000918
93 0.000920
94 0.000923
95 0.000929
96 0.000931
97 0.000931
98 0.000934
99 0.000935
100 0.000943
101 0.000946
102 0.000942
103 0.000931
104 0.000922
105 0.000919
106 0.000913
107 0.000905
108 0.000904
109 0.000901
110 0.000907
111 0.000907
112 0.000908
113 0.000914
114 0.000910
115 0.000910
116 0.000915
117 0.000915
118 0.000917
119 0.000929
120 0.000943
121 0.000944
122 0.000938
123 0.000931
124 0.000924
125 0.000918
126 0.000914
127 0.000903
128 0.000899
129 0.000888
130 0.000884
131 0.000879
132 0.000870
133 0.000862
134 0.000849
135 0.000840
136 0.000835
137 0.000830
138 0.000830
139 0.000834
140 0.000836
141 0.000843
142 0.000845
143 0.000848
144 0.000840
145 0.000830
146 0.000829
147 0.000837
148 0.000849
149 0.000849
150 0.000849
151 0.000850
152 0.000853
153 0.000853
154 0.000859
155 0.000855
156 0.000857
157 0.000867
158 0.000886
159 0.000896
160 0.000903
161 0.000904
162 0.000897
163 0.000892
164 0.000889
165 0.000888
166 0.000889
167 0.000885
168 0.000875
169 0.000876
170 0.000872
171 0.000866
172 0.000852
173 0.000833
174 0.000818
175 0.000820
176 0.000818
177 0.000811
178 0.000804
179 0.000795
180 0.000784
181 0.000777
182 0.000767
183 0.000762
184 0.000757
185 0.000746
186 0.000735
187 0.000724
188 0.000716
189 0.000707
190 0.000693
191 0.000681
192 0.000672
193 0.000656
194 0.000640
195 0.000632
196 0.000623
197 0.000608
198 0.000590
199 0.000575
200 0.000572
201 0.000571
202 0.000570
203 0.000572
204 0.000570
205 0.000568
206 0.000558
207 0.000551
208 0.000559
209 0.000569
210 0.000583
211 0.000594
212 0.000600
213 0.000605
214 0.000611
215 0.000615
216 0.000623
217 0.000628
218 0.000622
219 0.000612
220 0.000618
221 0.000628
222 0.000634
223 0.000636
224 0.000630
225 0.000620
226 0.000615
227 0.000611
228 0.000610
229 0.000610
230 0.000606
231 0.000606
232 0.000601
233 0.000601
234 0.000603
235 0.000602
236 0.000598
237 0.000595
238 0.000595
239 0.000595
240 0.000587
241 0.000589
242 0.000589
243 0.000588
244 0.000586
245 0.000584
246 0.000580
247 0.000577
248 0.000584
249 0.000591
250 0.000591
251 0.000585
252 0.000575
253 0.000573
254 0.000570
255 0.000566
256 0.000568
257 0.000561
258 0.000558
259 0.000566
260 0.000570
261 0.000571
262 0.000572
263 0.000566
264 0.000558
265 0.000554
266 0.000551
267 0.000554
268 0.000556
269 0.000557
270 0.000561
271 0.000571
272 0.000568
273 0.000568
274 0.000565
275 0.000554
276 0.000546
277 0.000546
278 0.000541
279 0.000530
280 0.000525
281 0.000527
282 0.000530
283 0.000536
284 0.000548
285 0.000549
286 0.000548
287 0.000546
288 0.000543
289 0.000539
290 0.000535
291 0.000534
292 0.000528
293 0.000513
294 0.000497
295 0.000490
296 0.000487
297 0.000491
298 0.000489
299 0.000486
300 0.000488
301 0.000490
302 0.000495
303 0.000499
304 0.000505
305 0.000514
306 0.000526
307 0.000535
308 0.000541
309 0.000540
310 0.000540
311 0.000536
312 0.000532
313 0.000522
314 0.000510
315 0.000501
316 0.000494
317 0.000489
318 0.000492
319 0.000489
320 0.000492
321 0.000498
322 0.000498
323 0.000495
324 0.000491
325 0.000484
326 0.000481
327 0.000472
328 0.000461
329 0.000462
330 0.000463
331 0.000465
332 0.000469
333 0.000475
334 0.000480
335 0.000486
336 0.000496
337 0.000505
338 0.000505
339 0.000499
340 0.000499
341 0.000495
342 0.000490
343 0.000485
344 0.000488
345 0.000478
346 0.000471
347 0.000469
348 0.000467
349 0.000465
350 0.000465
351 0.000467
352 0.000471
353 0.000475
354 0.000476
355 0.000473
356 0.000470
357 0.000460
358 0.000445
359 0.000440
360 0.000431
361 0.000419
362 0.000412
363 0.000408
364 0.000409
365 0.000409
366 0.000410
367 0.000412
368 0.000415
369 0.000419
370 0.000423
371 0.000426
372 0.000427
373 0.000420
374 0.000415
375 0.000411
376 0.000403
377 0.000394
378 0.000378
379 0.000377
380 0.000378
381 0.000383
382 0.000386
383 0.000385
384 0.000376
385 0.000376
386 0.000378
387 0.000377
388 0.000378
389 0.000386
390 0.000386
391 0.000391
392 0.000396
393 0.000402
394 0.000401
395 0.000394
396 0.000389
397 0.000397
398 0.000399
399 0.000400
400 0.000405
401 0.000410
402 0.000417
403 0.000420
404 0.000424
405 0.000429
406 0.000429
407 0.000432
408 0.000440
409 0.000442
410 0.000439
411 0.000432
412 0.000425
413 0.000425
414 0.000426
415 0.000421
416 0.000420
417 0.000413
418 0.000405
419 0.000399
420 0.000393
421 0.000390
422 0.000382
423 0.000370
424 0.000364
425 0.000367
426 0.000374
427 0.000377
428 0.000375
429 0.000377
430 0.000376
431 0.000383
432 0.000389
433 0.000390
434 0.000386
435 0.000379
436 0.000368
437 0.000358
438 0.000348
439 0.000337
440 0.000326
441 0.000316
442 0.000311
443 0.000307
444 0.000302
445 0.000301
446 0.000302
447 0.000303
448 0.000306
449 0.000310
450 0.000314
451 0.000313
452 0.000311
453 0.000307
454 0.000302
455 0.000301
456 0.000298
457 0.000303
458 0.000306
459 0.000308
460 0.000313
461 0.000317
462 0.000316
463 0.000311
464 0.000310
465 0.000303
466 0.000299
467 0.000300
468 0.000303
469 0.000309
470 0.000314
471 0.000311
472 0.000309
473 0.000304
474 0.000294
475 0.000284
476 0.000282
477 0.000271
478 0.000260
479 0.000258
480 0.000258
481 0.000254
482 0.000249
483 0.000245
484 0.000242
485 0.000239
486 0.000237
487 0.000241
488 0.000238
489 0.000235
490 0.000230
491 0.000226
492 0.000226
493 0.000230
494 0.000238
495 0.000254
496 0.000266
497 0.000274
498 0.000283
499 0.000291
500 0.000293
501 0.000292
502 0.000295
503 0.000288
504 0.000284
505 0.000281
506 0.000274
507 0.000273
508 0.000272
509 0.000270
510 0.000266
511 0.000263
512 0.000260
513 0.000266
514 0.000269
515 0.000272
516 0.000273
517 0.000271
518 0.000274
519 0.000271
520 0.000271
521 0.000274
522 0.000278
523 0.000275
524 0.000268
525 0.000261
526 0.000259
527 0.000262
528 0.000261
529 0.000265
530 0.000272
531 0.000275
532 0.000281
533 0.000292
534 0.000293
535 0.000290
536 0.000283
537 0.000269
538 0.000256
539 0.000240
540 0.000230
541 0.000224
542 0.000217
543 0.000210
544 0.000205
545 0.000201
546 0.000196
547 0.000194
548 0.000192
549 0.000193
550 0.000193
551 0.000195
552 0.000202
553 0.000201
554 0.000199
555 0.000202
556 0.000202
557 0.000205
558 0.000209
559 0.000209
560 0.000214
561 0.000219
562 0.000224
563 0.000226
564 0.000231
565 0.000236
566 0.000240
567 0.000247
568 0.000261
569 0.000271
570 0.000276
571 0.000282
572 0.000283
573 0.000279
574 0.000281
575 0.000283
576 0.000286
577 0.000287
578 0.000288
579 0.000293
580 0.000301
581 0.000308
582 0.000307
583 0.000308
584 0.000302
585 0.000300
586 0.000299
587 0.000296
588 0.000290
589 0.000285
590 0.000277
591 0.000270
592 0.000270
593 0.000272
594 0.000271
595 0.000263
596 0.000259
597 0.000257
598 0.000254
599 0.000251
600 0.000246
601 0.000238
602 0.000232
603 0.000224
604 0.000218
605 0.000215
606 0.000205
607 0.000195
608 0.000185
609 0.000176
610 0.000168
611 0.000167
612 0.000162
613 0.000159
614 0.000159
615 0.000158
616 0.000158
617 0.000162
618 0.000171
619 0.000177
620 0.000177
621 0.000176
622 0.000178
623 0.000181
624 0.000184
625 0.000183
626 0.000185
627 0.000191
628 0.000200
629 0.000204
630 0.000209
631 0.000212
632 0.000213
633 0.000212
634 0.000209
635 0.000208
636 0.000213
637 0.000218
638 0.000221
639 0.000220
640 0.000216
641 0.000214
642 0.000215
643 0.000216
644 0.000216
645 0.000212
646 0.000208
647 0.000206
648 0.000202
649 0.000199
650 0.000201
651 0.000197
652 0.000188
653 0.000180
654 0.000173
655 0.000167
656 0.000161
657 0.000157
658 0.000157
659 0.000156
660 0.000157
661 0.000159
662 0.000164
663 0.000169
664 0.000173
665 0.000178
666 0.000179
667 0.000179
668 0.000180
669 0.000178
670 0.000180
671 0.000182
672 0.000186
673 0.000193
674 0.000200
675 0.000202
676 0.000199
677 0.000202
678 0.000204
679 0.000205
680 0.000210
681 0.000216
682 0.000216
683 0.000211
684 0.000210
685 0.000215
686 0.000220
687 0.000224
688 0.000225
689 0.000226
690 0.000225
691 0.000228
692 0.000229
693 0.000230
694 0.000226
695 0.000219
696 0.000216
697 0.000212
698 0.000206
699 0.000202
700 0.000198
701 0.000191
702 0.000188
703 0.000185
704 0.000183
705 0.000175
706 0.000168
707 0.000162
708 0.000157
709 0.000153
710 0.000147
711 0.000142
712 0.000141
713 0.000144
714 0.000144
715 0.000143
716 0.000142
717 0.000143
718 0.000143
719 0.000146
720 0.000145
721 0.000142
722 0.000141
723 0.000142
724 0.000142
725 0.000139
726 0.000136
727 0.000131
728 0.000130
729 0.000132
730 0.000136
731 0.000135
732 0.000133
733 0.000136
734 0.000137
735 0.000141
736 0.000144
737 0.000148
738 0.000151
739 0.000154
740 0.000155
741 0.000154
742 0.000151
743 0.000148
744 0.000146
745 0.000144
746 0.000141
747 0.000142
748 0.000143
749 0.000146
750 0.000151
751 0.000153
752 0.000157
753 0.000158
754 0.000155
755 0.000151
756 0.000146
757 0.000144
758 0.000141
759 0.000134
760 0.000126
761 0.000119
762 0.000112
763 0.000107
764 0.000104
765 0.000098
766 0.000092
767 0.000083
768 0.000078
769 0.000075
770 0.000071
771 0.000071
772 0.000068
773 0.000060
774 0.000047
775 0.000037
776 0.000031
777 0.000025
778 0.000019
779 0.000015
780 0.000010
781 0.000006
782 0.000004
783 0.000005
784 0.000006
785 0.000008
786 0.000010
787 0.000009
788 0.000009
789 0.000009
790 0.000008
791 0.000009
792 0.000006
793 0.000006
794 0.000005
795 0.000010
796 0.000011
797 0.000017
798 0.000023
799 0.000027
800 0.000029
801 0.000033
802 0.000040
803 0.000047
804 0.000050
805 0.000055
806 0.000059
807 0.000062
808 0.000063
809 0.000060
