# i correlation
1 0.001821
2 0.001736
3 0.001656
4 0.001593
5 0.001539
6 0.001495
7 0.001450
8 0.001415
9 0.001387
10 0.001353
11 0.001326
12 0.001308
13 0.001303
14 0.001305
15 0.001310
16 0.001309
17 0.001310
18 0.001308
19 0.001312
20 0.001316
21 0.001315
22 0.001300
23 0.001288
24 0.001273
25 0.001258
26 0.001240
27 0.001219
28 0.001201
29 0.001182
30 0.001158
31 0.001125
32 0.001101
33 0.001084
34 0.001078
35 0.001073
36 0.001069
37 0.001063
38 0.001059
39 0.001057
40 0.001059
41 0.001056
42 0.001059
43 0.001054
44 0.001042
45 0.001028
46 0.001021
47 0.001012
48 0.001007
49 0.001004
50 0.000993
51 0.000986
52 0.000974
53 0.000968
54 0.000966
55 0.000958
56 0.000953
57 0.000941
58 0.000929
59 0.000919
60 0.000911
61 0.000915
62 0.000915
63 0.000922
64 0.000922
65 0.000924
66 0.000923
67 0.000928
68 0.000924
69 0.000924
70 0.000917
71 0.000910
72 0.000907
73 0.000898
74 0.000888
75 0.000871
76 0.000863
77 0.000858
78 0.000850
79 0.000843
80 0.000838
81 0.000834
82 0.000830
83 0.000824
84 0.000820
85 0.000819
86 0.000821
87 0.000820
88 0.000822
89 0.000824
90 0.000826
91 0.000819
92 0.000811
93 0.000806
94 0.000806
95 0.000808
96 0.000815
97 0.000813
98 0.000813
99 0.000807
100 0.000792
101 0.000777
102 0.000771
103 0.000764
104 0.000759
105 0.000746
106 0.000732
107 0.000714
108 0.000698
109 0.000681
110 0.000675
111 0.000670
112 0.000674
113 0.000671
114 0.000674
115 0.000670
116 0.000654
117 0.000636
118 0.000608
119 0.000598
120 0.000593
121 0.000594
122 0.000601
123 0.000608
124 0.000613
125 0.000623
126 0.000632
127 0.000638
128 0.000643
129 0.000639
130 0.000639
131 0.000629
132 0.000627
133 0.000620
134 0.000614
135 0.000608
136 0.000600
137 0.000589
138 0.000583
139 0.000581
140 0.000571
141 0.000568
142 0.000574
143 0.000587
144 0.000595
145 0.000608
146 0.000619
147 0.000630
148 0.000635
149 0.000635
150 0.000638
151 0.000646
152 0.000644
153 0.000645
154 0.000649
155 0.000648
156 0.000647
157 0.000647
158 0.000642
159 0.000640
160 0.000645
161 0.000647
162 0.000655
163 0.000671
164 0.000686
165 0.000683
166 0.000684
167 0.000679
168 0.000683
169 0.000685
170 0.000679
171 0.000678
172 0.000667
173 0.000663
174 0.000653
175 0.000647
176 0.000644
177 0.000646
178 0.000651
179 0.000654
180 0.000654
181 0.000661
182 0.000659
183 0.000659
184 0.000666
185 0.000670
186 0.000675
187 0.000678
188 0.000681
189 0.000683
190 0.000682
191 0.000681
192 0.000682
193 0.000679
194 0.000668
195 0.000656
196 0.000647
197 0.000636
198 0.000633
199 0.000622
200 0.000616
201 0.000605
202 0.000600
203 0.000593
204 0.000585
205 0.000568
206 0.000558
207 0.000550
208 0.000542
209 0.000537
210 0.000535
211 0.000533
212 0.000540
213 0.000542
214 0.000534
215 0.000520
216 0.000518
217 0.000518
218 0.000523
219 0.000521
220 0.000515
221 0.000503
222 0.000490
223 0.000482
224 0.000480
225 0.000473
226 0.000467
227 0.000469
228 0.000468
229 0.000467
230 0.000459
231 0.000454
232 0.000452
233 0.000455
234 0.000453
235 0.000446
236 0.000444
237 0.000445
238 0.000450
239 0.000445
240 0.000455
241 0.000457
242 0.000461
243 0.000460
244 0.000456
245 0.000444
246 0.000436
247 0.000430
248 0.000423
249 0.000426
250 0.000435
251 0.000432
252 0.000435
253 0.000437
254 0.000436
255 0.000438
256 0.000436
257 0.000432
258 0.000437
259 0.000445
260 0.000445
261 0.000439
262 0.000427
263 0.000417
264 0.000405
265 0.000394
266 0.000383
267 0.000381
268 0.000368
269 0.000359
270 0.000354
271 0.000350
272 0.000342
273 0.000341
274 0.000336
275 0.000341
276 0.000348
277 0.000353
278 0.000352
279 0.000354
280 0.000359
281 0.000360
282 0.000352
283 0.000348
284 0.000341
285 0.000337
286 0.000338
287 0.000329
288 0.000318
289 0.000303
290 0.000296
291 0.000290
292 0.000292
293 0.000294
294 0.000302
295 0.000305
296 0.000312
297 0.000308
298 0.000307
299 0.000303
300 0.000303
301 0.000311
302 0.000309
303 0.000312
304 0.000311
305 0.000311
306 0.000306
307 0.000304
308 0.000301
309 0.000298
310 0.000301
311 0.000299
312 0.000295
313 0.000293
314 0.000299
315 0.000300
316 0.000301
317 0.000305
318 0.000302
319 0.000304
320 0.000311
321 0.000311
322 0.000311
323 0.000322
324 0.000334
325 0.000342
326 0.000349
327 0.000347
328 0.000342
329 0.000337
330 0.000336
331 0.000330
332 0.000343
333 0.000352
334 0.000360
335 0.000367
336 0.000370
337 0.000368
338 0.000377
339 0.000386
340 0.000400
341 0.000411
342 0.000418
343 0.000423
344 0.000425
345 0.000426
346 0.000428
347 0.000431
348 0.000430
349 0.000429
350 0.000434
351 0.000435
352 0.000444
353 0.000455
354 0.000465
355 0.000475
356 0.000479
357 0.000491
358 0.000495
359 0.000503
360 0.000503
361 0.000508
362 0.000512
363 0.000513
364 0.000508
365 0.000494
366 0.000484
367 0.000475
368 0.000465
369 0.000459
370 0.000454
371 0.000453
372 0.000451
373 0.000452
374 0.000458
375 0.000471
376 0.000482
377 0.000489
378 0.000489
379 0.000489
380 0.000491
381 0.000493
382 0.000498
383 0.000504
384 0.000508
385 0.000505
386 0.000500
387 0.000499
388 0.000496
389 0.000501
390 0.000500
391 0.000499
392 0.000500
393 0.000491
394 0.000490
395 0.000491
396 0.000491
397 0.000493
398 0.000496
399 0.000496
400 0.000488
401 0.000484
402 0.000480
403 0.000482
404 0.000482
405 0.000485
406 0.000488
407 0.000491
408 0.000487
409 0.000484
410 0.000478
411 0.000469
412 0.000465
413 0.000469
414 0.000472
415 0.000477
416 0.000483
417 0.000483
418 0.000482
419 0.000480
420 0.000479
421 0.000472
422 0.000472
423 0.000469
424 0.000477
425 0.000479
426 0.000485
427 0.000486
428 0.000491
429 0.000499
430 0.000514
431 0.000525
432 0.000529
433 0.000526
434 0.000518
435 0.000513
436 0.000513
437 0.000509
438 0.000508
439 0.000506
440 0.000513
441 0.000510
442 0.000503
443 0.000493
444 0.000484
445 0.000482
446 0.000481
447 0.000480
448 0.000477
449 0.000483
450 0.000489
451 0.000494
452 0.000501
453 0.000506
454 0.000497
455 0.000491
456 0.000491
457 0.000490
458 0.000487
459 0.000482
460 0.000478
461 0.000473
462 0.000467
463 0.000448
464 0.000430
465 0.000424
466 0.000422
467 0.000419
468 0.000416
469 0.000409
470 0.000401
471 0.000393
472 0.000383
473 0.000373
474 0.000368
475 0.000358
476 0.000351
477 0.000348
478 0.000349
479 0.000349
480 0.000349
481 0.000347
482 0.000344
483 0.000351
484 0.000353
485 0.000357
486 0.000366
487 0.000379
488 0.000387
489 0.000398
490 0.000404
491 0.000404
492 0.000400
493 0.000393
494 0.000388
495 0.000382
496 0.000385
497 0.000380
498 0.000376
499 0.000371
500 0.000362
501 0.000359
502 0.000356
503 0.000358
504 0.000368
505 0.000371
506 0.000374
507 0.000378
508 0.000378
509 0.000378
510 0.000383
511 0.000393
512 0.000398
513 0.000401
514 0.000403
515 0.000406
516 0.000408
517 0.000413
518 0.000416
519 0.000421
520 0.000419
521 0.000422
522 0.000423
523 0.000422
524 0.000422
525 0.000422
526 0.000426
527 0.000426
528 0.000426
529 0.000426
530 0.000430
531 0.000429
532 0.000427
533 0.000424
534 0.000427
535 0.000422
536 0.000422
537 0.000422
538 0.000426
539 0.000423
540 0.000418
541 0.000413
542 0.000405
543 0.000400
544 0.000393
545 0.000393
546 0.000391
547 0.000388
548 0.000378
549 0.000365
550 0.000360
551 0.000359
552 0.000369
553 0.000381
554 0.000388
555 0.000396
556 0.000400
557 0.000400
558 0.000388
559 0.000381
560 0.000376
561 0.000373
562 0.000367
563 0.000365
564 0.000360
565 0.000362
566 0.000366
567 0.000369
568 0.000368
569 0.000357
570 0.000353
571 0.000352
572 0.000353
573 0.000360
574 0.000363
575 0.000371
576 0.000380
577 0.000385
578 0.000387
579 0.000390
580 0.000394
581 0.000402
582 0.000409
583 0.000411
584 0.000410
585 0.000405
586 0.000396
587 0.000389
588 0.000382
589 0.000370
590 0.000365
591 0.000366
592 0.000369
593 0.000376
594 0.000382
595 0.000390
596 0.000397
597 0.000398
598 0.000391
599 0.000389
600 0.000389
601 0.000390
602 0.000383
603 0.000379
604 0.000372
605 0.000369
606 0.000367
607 0.000364
608 0.000362
609 0.000357
610 0.000351
611 0.000346
612 0.000334
613 0.000332
614 0.000326
615 0.000329
616 0.000341
617 0.000353
618 0.000364
619 0.000375
620 0.000381
621 0.000389
622 0.000396
623 0.000396
624 0.000391
625 0.000386
626 0.000382
627 0.000368
628 0.000353
629 0.000339
630 0.000329
631 0.000315
632 0.000303
633 0.000296
634 0.000299
635 0.000301
636 0.000301
637 0.000297
638 0.000295
639 0.000296
640 0.000301
641 0.000300
642 0.000301
643 0.000304
644 0.000302
645 0.000299
646 0.000294
647 0.000292
648 0.000289
649 0.000297
650 0.000299
651 0.000294
652 0.000283
653 0.000275
654 0.000265
655 0.000257
656 0.000244
657 0.000236
658 0.000231
659 0.000223
660 0.000216
661 0.000204
662 0.000199
663 0.000191
664 0.000191
665 0.000188
666 0.000183
667 0.000180
668 0.000184
669 0.000192
670 0.000203
671 0.000212
672 0.000224
673 0.000228
674 0.000230
675 0.000234
676 0.000234
677 0.000235
678 0.000240
679 0.000244
680 0.000246
681 0.000248
682 0.000248
683 0.000250
684 0.000248
685 0.000248
686 0.000246
687 0.000238
688 0.000230
689 0.000229
690 0.000230
691 0.000229
692 0.000227
693 0.000225
694 0.000220
695 0.000218
696 0.000215
697 0.000214
698 0.000211
699 0.000210
700 0.000212
701 0.000208
702 0.000210
703 0.000211
704 0.000208
705 0.000206
706 0.000201
707 0.000203
708 0.000202
709 0.000203
710 0.000199
711 0.000197
712 0.000189
713 0.000180
714 0.000170
715 0.000163
716 0.000161
717 0.000156
718 0.000155
719 0.000154
720 0.000155
721 0.000161
722 0.000163
723 0.000162
724 0.000162
725 0.000160
726 0.000153
727 0.000143
728 0.000133
729 0.000120
730 0.000112
731 0.000102
732 0.000090
733 0.000083
734 0.000079
735 0.000071
736 0.000065
737 0.000065
738 0.000062
739 0.000070
740 0.000074
741 0.000079
742 0.000082
743 0.000085
744 0.000090
745 0.000096
746 0.000105
747 0.000106
748 0.000113
749 0.000117
750 0.000119
751 0.000121
752 0.000117
753 0.000112
754 0.000109
755 0.000102
756 0.000096
757 0.000091
758 0.000086
759 0.000083
760 0.000085
761 0.000085
762 0.000085
763 0.000092
764 0.000099
765 0.000109
766 0.000116
767 0.000120
768 0.000122
769 0.000129
770 0.000134
771 0.000141
772 0.000146
773 0.000145
774 0.000146
775 0.000143
776 0.000140
777 0.000138
778 0.000131
779 0.000133
780 0.000131
781 0.000129
782 0.000125
783 0.000122
784 0.000120
785 0.000122
786 0.000129
787 0.000132
788 0.000139
789 0.000142
790 0.000145
791 0.000146
792 0.000151
793 0.000159
794 0.000168
795 0.000172
796 0.000171
797 0.000169
798 0.000163
799 0.000156
800 0.000152
801 0.000148
802 0.000139
803 0.000133
804 0.000126
805 0.000123
806 0.000124
807 0.000129
808 0.000131
809 0.000135
