# i correlation
1 0.001972
2 0.001888
3 0.001813
4 0.001745
5 0.001692
6 0.001652
7 0.001611
8 0.001561
9 0.001517
10 0.001489
11 0.001457
12 0.001432
13 0.001414
14 0.001394
15 0.001378
16 0.001367
17 0.001357
18 0.001345
19 0.001337
20 0.001338
21 0.001338
22 0.001338
23 0.001342
24 0.001335
25 0.001322
26 0.001312
27 0.001308
28 0.001303
29 0.001295
30 0.001287
31 0.001278
32 0.001267
33 0.001267
34 0.001256
35 0.001250
36 0.001252
37 0.001250
38 0.001244
39 0.001250
40 0.001255
41 0.001252
42 0.001253
43 0.001257
44 0.001260
45 0.001253
46 0.001246
47 0.001235
48 0.001227
49 0.001218
50 0.001203
51 0.001201
52 0.001195
53 0.001192
54 0.001186
55 0.001182
56 0.001187
57 0.001177
58 0.001166
59 0.001163
60 0.001148
61 0.001127
62 0.001115
63 0.001112
64 0.001097
65 0.001084
66 0.001074
67 0.001063
68 0.001050
69 0.001041
70 0.001023
71 0.001001
72 0.000993
73 0.000993
74 0.000983
75 0.000977
76 0.000975
77 0.000977
78 0.000981
79 0.000993
80 0.000999
81 0.000997
82 0.000984
83 0.000976
84 0.000972
85 0.000959
86 0.000955
87 0.000952
88 0.000947
89 0.000938
90 0.000936
91 0.000936
92 0.000940
93 0.000939
94 0.000939
95 0.000945
96 0.000958
97 0.000959
98 0.000962
99 0.000961
100 0.000960
101 0.000952
102 0.000955
103 0.000947
104 0.000933
105 0.000926
106 0.000914
107 0.000899
108 0.000879
109 0.000876
110 0.000879
111 0.000889
112 0.000892
113 0.000883
114 0.000875
115 0.000871
116 0.000864
117 0.000861
118 0.000856
119 0.000847
120 0.000836
121 0.000831
122 0.000826
123 0.000823
124 0.000823
125 0.000818
126 0.000805
127 0.000795
128 0.000788
129 0.000782
130 0.000777
131 0.000778
132 0.000789
133 0.000797
134 0.000794
135 0.000801
136 0.000809
137 0.000814
138 0.000824
139 0.000827
140 0.000827
141 0.000821
142 0.000824
143 0.000826
144 0.000824
145 0.000824
146 0.000822
147 0.000814
148 0.000804
149 0.000793
150 0.000781
151 0.000768
152 0.000752
153 0.000739
154 0.000728
155 0.000714
156 0.000704
157 0.000699
158 0.000691
159 0.000681
160 0.000671
161 0.000663
162 0.000658
163 0.000662
164 0.000658
165 0.000657
166 0.000661
167 0.000660
168 0.000665
169 0.000674
170 0.000681
171 0.000681
172 0.000683
173 0.000683
174 0.000670
175 0.000667
176 0.000668
177 0.000668
178 0.000668
179 0.000671
180 0.000672
181 0.000666
182 0.000668
183 0.000664
184 0.000667
185 0.000668
186 0.000670
187 0.000673
188 0.000679
189 0.000683
190 0.000690
191 0.000684
192 0.000683
193 0.000686
194 0.000689
195 0.000683
196 0.000687
197 0.000682
198 0.000678
199 0.000674
200 0.000666
201 0.000664
202 0.000662
203 0.000654
204 0.000638
205 0.000630
206 0.000621
207 0.000610
208 0.000605
209 0.000610
210 0.000616
211 0.000625
212 0.000632
213 0.000643
214 0.000642
215 0.000635
216 0.000638
217 0.000641
218 0.000631
219 0.000622
220 0.000611
221 0.000590
222 0.000561
223 0.000538
224 0.000521
225 0.000506
226 0.000505
227 0.000504
228 0.000497
229 0.000497
230 0.000494
231 0.000494
232 0.000490
233 0.000493
234 0.000496
235 0.000504
236 0.000519
237 0.000533
238 0.000544
239 0.000546
240 0.000543
241 0.000534
242 0.000535
243 0.000526
244 0.000518
245 0.000513
246 0.000499
247 0.000486
248 0.000476
249 0.000474
250 0.000475
251 0.000469
252 0.000462
253 0.000459
254 0.000456
255 0.000450
256 0.000448
257 0.000445
258 0.000438
259 0.000433
260 0.000430
261 0.000428
262 0.000433
263 0.000434
264 0.000430
265 0.000434
266 0.000433
267 0.000431
268 0.000444
269 0.000456
270 0.000464
271 0.000463
272 0.000470
273 0.000480
274 0.000477
275 0.000484
276 0.000487
277 0.000479
278 0.000473
279 0.000462
280 0.000454
281 0.000444
282 0.000443
283 0.000436
284 0.000434
285 0.000430
286 0.000436
287 0.000435
288 0.000437
289 0.000442
290 0.000446
291 0.000442
292 0.000445
293 0.000451
294 0.000456
295 0.000458
296 0.000458
297 0.000453
298 0.000447
299 0.000452
300 0.000450
301 0.000453
302 0.000438
303 0.000425
304 0.000418
305 0.000415
306 0.000410
307 0.000399
308 0.000388
309 0.000374
310 0.000358
311 0.000352
312 0.000352
313 0.000360
314 0.000366
315 0.000373
316 0.000379
317 0.000388
318 0.000392
319 0.000383
320 0.000372
321 0.000370
322 0.000370
323 0.000376
324 0.000376
325 0.000370
326 0.000365
327 0.000353
328 0.000350
329 0.000353
330 0.000350
331 0.000348
332 0.000344
333 0.000335
334 0.000325
335 0.000317
336 0.000311
337 0.000301
338 0.000297
339 0.000293
340 0.000283
341 0.000284
342 0.000284
343 0.000284
344 0.000281
345 0.000284
346 0.000279
347 0.000275
348 0.000272
349 0.000274
350 0.000268
351 0.000263
352 0.000264
353 0.000267
354 0.000267
355 0.000266
356 0.000267
357 0.000267
358 0.000263
359 0.000261
360 0.000261
361 0.000260
362 0.000257
363 0.000250
364 0.000245
365 0.000241
366 0.000242
367 0.000248
368 0.000256
369 0.000264
370 0.000269
371 0.000265
372 0.000263
373 0.000258
374 0.000261
375 0.000261
376 0.000256
377 0.000250
378 0.000243
379 0.000232
380 0.000226
381 0.000217
382 0.000213
383 0.000213
384 0.000216
385 0.000219
386 0.000230
387 0.000239
388 0.000241
389 0.000242
390 0.000241
391 0.000232
392 0.000225
393 0.000221
394 0.000212
395 0.000205
396 0.000200
397 0.000200
398 0.000188
399 0.000185
400 0.000179
401 0.000176
402 0.000165
403 0.000152
404 0.000148
405 0.000142
406 0.000147
407 0.000154
408 0.000156
409 0.000151
410 0.000153
411 0.000158
412 0.000162
413 0.000166
414 0.000168
415 0.000167
416 0.000164
417 0.000162
418 0.000155
419 0.000150
420 0.000146
421 0.000139
422 0.000133
423 0.000133
424 0.000129
425 0.000125
426 0.000126
427 0.000127
428 0.000122
429 0.000123
430 0.000129
431 0.000128
432 0.000133
433 0.000141
434 0.000147
435 0.000154
436 0.000158
437 0.000162
438 0.000163
439 0.000167
440 0.000171
441 0.000177
442 0.000172
443 0.000169
444 0.000162
445 0.000162
446 0.000159
447 0.000156
448 0.000155
449 0.000152
450 0.000156
451 0.000155
452 0.000154
453 0.000156
454 0.000151
455 0.000157
456 0.000162
457 0.000166
458 0.000169
459 0.000172
460 0.000170
461 0.000162
462 0.000157
463 0.000157
464 0.000156
465 0.000155
466 0.000158
467 0.000165
468 0.000174
469 0.000183
470 0.000195
471 0.000197
472 0.000200
473 0.000199
474 0.000208
475 0.000210
476 0.000209
477 0.000204
478 0.000196
479 0.000192
480 0.000194
481 0.000195
482 0.000194
483 0.000198
484 0.000198
485 0.000209
486 0.000224
487 0.000233
488 0.000238
489 0.000248
490 0.000257
491 0.000263
492 0.000276
493 0.000285
494 0.000289
495 0.000299
496 0.000302
497 0.000302
498 0.000299
499 0.000299
500 0.000298
501 0.000299
502 0.000307
503 0.000318
504 0.000331
505 0.000343
506 0.000353
507 0.000364
508 0.000370
509 0.000369
510 0.000368
511 0.000362
512 0.000357
513 0.000358
514 0.000355
515 0.000359
516 0.000354
517 0.000343
518 0.000337
519 0.000335
520 0.000324
521 0.000311
522 0.000299
523 0.000291
524 0.000282
525 0.000278
526 0.000277
527 0.000273
528 0.000271
529 0.000274
530 0.000278
531 0.000286
532 0.000302
533 0.000313
534 0.000317
535 0.000325
536 0.000330
537 0.000337
538 0.000344
539 0.000353
540 0.000349
541 0.000342
542 0.000335
543 0.000334
544 0.000333
545 0.000333
546 0.000332
547 0.000323
548 0.000317
549 0.000311
550 0.000308
551 0.000307
552 0.000310
553 0.000307
554 0.000309
555 0.000318
556 0.000320
557 0.000320
558 0.000322
559 0.000331
560 0.000340
561 0.000346
562 0.000358
563 0.000360
564 0.000363
565 0.000364
566 0.000365
567 0.000360
568 0.000351
569 0.000349
570 0.000347
571 0.000345
572 0.000347
573 0.000344
574 0.000337
575 0.000328
576 0.000320
577 0.000310
578 0.000301
579 0.000299
580 0.000294
581 0.000294
582 0.000291
583 0.000293
584 0.000290
585 0.000294
586 0.000298
587 0.000304
588 0.000309
589 0.000308
590 0.000300
591 0.000297
592 0.000292
593 0.000291
594 0.000292
595 0.000296
596 0.000297
597 0.000296
598 0.000291
599 0.000290
600 0.000289
601 0.000290
602 0.000297
603 0.000306
604 0.000314
605 0.000323
606 0.000330
607 0.000335
608 0.000335
609 0.000332
610 0.000331
611 0.000325
612 0.000317
613 0.000305
614 0.000290
615 0.000275
616 0.000266
617 0.000262
618 0.000261
619 0.000256
620 0.000249
621 0.000236
622 0.000225
623 0.000221
624 0.000219
625 0.000224
626 0.000224
627 0.000220
628 0.000216
629 0.000218
630 0.000221
631 0.000225
632 0.000229
633 0.000229
634 0.000221
635 0.000218
636 0.000212
637 0.000212
638 0.000215
639 0.000219
640 0.000226
641 0.000231
642 0.000235
643 0.000241
644 0.000244
645 0.000246
646 0.000255
647 0.000258
648 0.000259
649 0.000257
650 0.000260
651 0.000261
652 0.000267
653 0.000272
654 0.000275
655 0.000270
656 0.000268
657 0.000261
658 0.000256
659 0.000249
660 0.000245
661 0.000241
662 0.000242
663 0.000239
664 0.000233
665 0.000223
666 0.000219
667 0.000214
668 0.000212
669 0.000210
670 0.000205
671 0.000197
672 0.000192
673 0.000184
674 0.000178
675 0.000176
676 0.000175
677 0.000174
678 0.000169
679 0.000165
680 0.000159
681 0.000154
682 0.000157
683 0.000169
684 0.000181
685 0.000195
686 0.000207
687 0.000216
688 0.000222
689 0.000229
690 0.000234
691 0.000237
692 0.000243
693 0.000244
694 0.000243
695 0.000242
696 0.000242
697 0.000244
698 0.000248
699 0.000251
700 0.000254
701 0.000251
702 0.000249
703 0.000248
704 0.000244
705 0.000250
706 0.000257
707 0.000264
708 0.000271
709 0.000275
710 0.000276
711 0.000275
712 0.000273
713 0.000269
714 0.000261
715 0.000252
716 0.000245
717 0.000238
718 0.000232
719 0.000230
720 0.000224
721 0.000223
722 0.000218
723 0.000216
724 0.000209
725 0.000207
726 0.000204
727 0.000203
728 0.000205
729 0.000207
730 0.000206
731 0.000205
732 0.000202
733 0.000196
734 0.000191
735 0.000189
736 0.000187
737 0.000182
738 0.000176
739 0.000172
740 0.000169
741 0.000169
742 0.000178
743 0.000187
744 0.000197
745 0.000207
746 0.000213
747 0.000214
748 0.000220
749 0.000227
750 0.000233
751 0.000237
752 0.000239
753 0.000238
754 0.000235
755 0.000231
756 0.000230
757 0.000224
758 0.000218
759 0.000210
760 0.000196
761 0.000184
762 0.000173
763 0.000166
764 0.000162
765 0.000162
766 0.000160
767 0.000156
768 0.000151
769 0.000148
770 0.000143
771 0.000139
772 0.000138
773 0.000139
774 0.000141
775 0.000148
776 0.000151
777 0.000153
778 0.000150
779 0.000147
780 0.000139
781 0.000136
782 0.000132
783 0.000126
784 0.000122
785 0.000119
786 0.000117
787 0.000114
788 0.000112
789 0.000112
790 0.000113
791 0.000109
792 0.000104
793 0.000100
794 0.000092
795 0.000086
796 0.000083
797 0.000077
798 0.000075
799 0.000076
800 0.000079
801 0.000081
802 0.000081
803 0.000080
804 0.000083
805 0.000088
806 0.000092
807 0.000095
808 0.000098
809 0.000102
