# i correlation
1 0.001742
2 0.001672
3 0.001619
4 0.001560
5 0.001498
6 0.001451
7 0.001408
8 0.001367
9 0.001335
10 0.001316
11 0.001309
12 0.001295
13 0.001285
14 0.001274
15 0.001257
16 0.001229
17 0.001211
18 0.001205
19 0.001202
20 0.001190
21 0.001183
22 0.001180
23 0.001175
24 0.001179
25 0.001185
26 0.001183
27 0.001176
28 0.001174
29 0.001169
30 0.001164
31 0.001160
32 0.001157
33 0.001159
34 0.001163
35 0.001155
36 0.001161
37 0.001167
38 0.001164
39 0.001160
40 0.001147
41 0.001129
42 0.001113
43 0.001098
44 0.001078
45 0.001065
46 0.001053
47 0.001049
48 0.001050
49 0.001048
50 0.001045
51 0.001047
52 0.001049
53 0.001042
54 0.001035
55 0.001032
56 0.001023
57 0.001007
58 0.001005
59 0.000994
60 0.000988
61 0.000992
62 0.000991
63 0.000988
64 0.000988
65 0.000980
66 0.000978
67 0.000973
68 0.000955
69 0.000933
70 0.000920
71 0.000900
72 0.000877
73 0.000862
74 0.000849
75 0.000834
76 0.000828
77 0.000825
78 0.000817
79 0.000808
80 0.000804
81 0.000805
82 0.000803
83 0.000795
84 0.000792
85 0.000793
86 0.000798
87 0.000807
88 0.000824
89 0.000840
90 0.000850
91 0.000868
92 0.000886
93 0.000881
94 0.000880
95 0.000878
96 0.000873
97 0.000866
98 0.000857
99 0.000845
100 0.000841
101 0.000835
102 0.000832
103 0.000833
104 0.000820
105 0.000807
106 0.000797
107 0.000790
108 0.000773
109 0.000767
110 0.000774
111 0.000775
112 0.000773
113 0.000774
114 0.000776
115 0.000773
116 0.000775
117 0.000770
118 0.000764
119 0.000760
120 0.000753
121 0.000747
122 0.000746
123 0.000739
124 0.000726
125 0.000730
126 0.000734
127 0.000730
128 0.000731
129 0.000730
130 0.000728
131 0.000721
132 0.000709
133 0.000705
134 0.000703
135 0.000701
136 0.000697
137 0.000695
138 0.000691
139 0.000689
140 0.000695
141 0.000701
142 0.000697
143 0.000687
144 0.000677
145 0.000669
146 0.000658
147 0.000649
148 0.000646
149 0.000644
150 0.000645
151 0.000645
152 0.000644
153 0.000643
154 0.000640
155 0.000639
156 0.000634
157 0.000620
158 0.000619
159 0.000619
160 0.000613
161 0.000601
162 0.000595
163 0.000586
164 0.000582
165 0.000577
166 0.000570
167 0.000565
168 0.000567
169 0.000565
170 0.000562
171 0.000559
172 0.000551
173 0.000552
174 0.000557
175 0.000553
176 0.000552
177 0.000554
178 0.000558
179 0.000568
180 0.000581
181 0.000589
182 0.000595
183 0.000601
184 0.000611
185 0.000606
186 0.000608
187 0.000606
188 0.000602
189 0.000585
190 0.000569
191 0.000561
192 0.000557
193 0.000556
194 0.000556
195 0.000557
196 0.000548
197 0.000537
198 0.000535
199 0.000531
200 0.000524
201 0.000518
202 0.000516
203 0.000516
204 0.000516
205 0.000523
206 0.000528
207 0.000545
208 0.000552
209 0.000550
210 0.000547
211 0.000538
212 0.000532
213 0.000525
214 0.000511
215 0.000493
216 0.000483
217 0.000476
218 0.000464
219 0.000451
220 0.000445
221 0.000433
222 0.000425
223 0.000419
224 0.000417
225 0.000415
226 0.000417
227 0.000415
228 0.000413
229 0.000416
230 0.000421
231 0.000430
232 0.000433
233 0.000433
234 0.000432
235 0.000437
236 0.000440
237 0.000441
238 0.000447
239 0.000452
240 0.000450
241 0.000450
242 0.000454
243 0.000457
244 0.000466
245 0.000466
246 0.000469
247 0.000474
248 0.000474
249 0.000474
250 0.000483
251 0.000480
252 0.000473
253 0.000468
254 0.000462
255 0.000452
256 0.000444
257 0.000430
258 0.000423
259 0.000411
260 0.000399
261 0.000400
262 0.000401
263 0.000404
264 0.000404
265 0.000405
266 0.000404
267 0.000397
268 0.000400
269 0.000404
270 0.000402
271 0.000402
272 0.000406
273 0.000405
274 0.000406
275 0.000408
276 0.000416
277 0.000421
278 0.000426
279 0.000420
280 0.000414
281 0.000410
282 0.000402
283 0.000395
284 0.000391
285 0.000386
286 0.000380
287 0.000379
288 0.000375
289 0.000377
290 0.000382
291 0.000393
292 0.000396
293 0.000398
294 0.000400
295 0.000404
296 0.000412
297 0.000420
298 0.000426
299 0.000436
300 0.000440
301 0.000445
302 0.000452
303 0.000454
304 0.000458
305 0.000464
306 0.000468
307 0.000465
308 0.000461
309 0.000460
310 0.000457
311 0.000453
312 0.000448
313 0.000435
314 0.000426
315 0.000409
316 0.000396
317 0.000389
318 0.000378
319 0.000376
320 0.000381
321 0.000390
322 0.000397
323 0.000403
324 0.000409
325 0.000411
326 0.000410
327 0.000413
328 0.000410
329 0.000407
330 0.000405
331 0.000397
332 0.000397
333 0.000404
334 0.000412
335 0.000417
336 0.000427
337 0.000431
338 0.000443
339 0.000453
340 0.000455
341 0.000451
342 0.000453
343 0.000449
344 0.000441
345 0.000440
346 0.000440
347 0.000437
348 0.000428
349 0.000417
350 0.000407
351 0.000394
352 0.000378
353 0.000376
354 0.000378
355 0.000378
356 0.000376
357 0.000384
358 0.000398
359 0.000409
360 0.000421
361 0.000435
362 0.000437
363 0.000435
364 0.000440
365 0.000435
366 0.000428
367 0.000421
368 0.000409
369 0.000393
370 0.000380
371 0.000367
372 0.000365
373 0.000369
374 0.000370
375 0.000374
376 0.000375
377 0.000376
378 0.000371
379 0.000368
380 0.000361
381 0.000355
382 0.000344
383 0.000333
384 0.000325
385 0.000315
386 0.000309
387 0.000311
388 0.000318
389 0.000322
390 0.000326
391 0.000339
392 0.000350
393 0.000365
394 0.000382
395 0.000397
396 0.000402
397 0.000405
398 0.000414
399 0.000419
400 0.000421
401 0.000426
402 0.000433
403 0.000440
404 0.000442
405 0.000441
406 0.000437
407 0.000433
408 0.000425
409 0.000417
410 0.000410
411 0.000402
412 0.000399
413 0.000399
414 0.000399
415 0.000399
416 0.000397
417 0.000395
418 0.000393
419 0.000391
420 0.000381
421 0.000368
422 0.000356
423 0.000345
424 0.000342
425 0.000339
426 0.000337
427 0.000341
428 0.000341
429 0.000339
430 0.000346
431 0.000356
432 0.000364
433 0.000371
434 0.000380
435 0.000383
436 0.000381
437 0.000395
438 0.000408
439 0.000416
440 0.000425
441 0.000431
442 0.000437
443 0.000439
444 0.000440
445 0.000441
446 0.000436
447 0.000430
448 0.000423
449 0.000422
450 0.000422
451 0.000423
452 0.000426
453 0.000427
454 0.000425
455 0.000429
456 0.000440
457 0.000451
458 0.000456
459 0.000461
460 0.000465
461 0.000465
462 0.000467
463 0.000460
464 0.000455
465 0.000452
466 0.000450
467 0.000442
468 0.000441
469 0.000436
470 0.000430
471 0.000436
472 0.000433
473 0.000428
474 0.000420
475 0.000418
476 0.000415
477 0.000408
478 0.000402
479 0.000402
480 0.000404
481 0.000408
482 0.000407
483 0.000405
484 0.000405
485 0.000410
486 0.000414
487 0.000415
488 0.000417
489 0.000419
490 0.000418
491 0.000419
492 0.000422
493 0.000425
494 0.000431
495 0.000437
496 0.000442
497 0.000443
498 0.000449
499 0.000454
500 0.000459
501 0.000462
502 0.000459
503 0.000458
504 0.000461
505 0.000465
506 0.000465
507 0.000468
508 0.000468
509 0.000467
510 0.000461
511 0.000452
512 0.000447
513 0.000440
514 0.000432
515 0.000425
516 0.000419
517 0.000410
518 0.000406
519 0.000403
520 0.000400
521 0.000394
522 0.000389
523 0.000383
524 0.000380
525 0.000373
526 0.000374
527 0.000371
528 0.000367
529 0.000377
530 0.000383
531 0.000380
532 0.000386
533 0.000392
534 0.000395
535 0.000395
536 0.000389
537 0.000384
538 0.000376
539 0.000363
540 0.000356
541 0.000355
542 0.000350
543 0.000349
544 0.000349
545 0.000352
546 0.000355
547 0.000358
548 0.000361
549 0.000364
550 0.000364
551 0.000365
552 0.000365
553 0.000367
554 0.000368
555 0.000369
556 0.000366
557 0.000364
558 0.000363
559 0.000360
560 0.000362
561 0.000360
562 0.000362
563 0.000363
564 0.000356
565 0.000350
566 0.000344
567 0.000341
568 0.000341
569 0.000341
570 0.000335
571 0.000336
572 0.000340
573 0.000341
574 0.000342
575 0.000342
576 0.000339
577 0.000336
578 0.000332
579 0.000325
580 0.000321
581 0.000318
582 0.000320
583 0.000322
584 0.000321
585 0.000319
586 0.000319
587 0.000321
588 0.000321
589 0.000318
590 0.000317
591 0.000317
592 0.000311
593 0.000311
594 0.000305
595 0.000303
596 0.000304
597 0.000313
598 0.000320
599 0.000328
600 0.000337
601 0.000351
602 0.000359
603 0.000362
604 0.000361
605 0.000360
606 0.000356
607 0.000352
608 0.000350
609 0.000342
610 0.000337
611 0.000341
612 0.000346
613 0.000349
614 0.000345
615 0.000343
616 0.000340
617 0.000334
618 0.000325
619 0.000316
620 0.000309
621 0.000304
622 0.000301
623 0.000297
624 0.000297
625 0.000299
626 0.000304
627 0.000307
628 0.000299
629 0.000297
630 0.000295
631 0.000292
632 0.000289
633 0.000290
634 0.000286
635 0.000285
636 0.000284
637 0.000284
638 0.000284
639 0.000282
640 0.000279
641 0.000274
642 0.000270
643 0.000264
644 0.000261
645 0.000262
646 0.000264
647 0.000259
648 0.000254
649 0.000251
650 0.000247
651 0.000241
652 0.000236
653 0.000228
654 0.000220
655 0.000210
656 0.000201
657 0.000197
658 0.000190
659 0.000186
660 0.000183
661 0.000177
662 0.000166
663 0.000160
664 0.000158
665 0.000155
666 0.000151
667 0.000149
668 0.000151
669 0.000154
670 0.000154
671 0.000159
672 0.000163
673 0.000162
674 0.000162
675 0.000159
676 0.000155
677 0.000147
678 0.000142
679 0.000135
680 0.000130
681 0.000122
682 0.000116
683 0.000112
684 0.000110
685 0.000107
686 0.000104
687 0.000100
688 0.000101
689 0.000099
690 0.000090
691 0.000085
692 0.000081
693 0.000082
694 0.000081
695 0.000075
696 0.000075
697 0.000075
698 0.000077
699 0.000078
700 0.000084
701 0.000087
702 0.000087
703 0.000093
704 0.000096
705 0.000095
706 0.000096
707 0.000095
708 0.000093
709 0.000090
710 0.000087
711 0.000087
712 0.000088
713 0.000093
714 0.000093
715 0.000094
716 0.000096
717 0.000098
718 0.000102
719 0.000103
720 0.000102
721 0.000103
722 0.000103
723 0.000102
724 0.000102
725 0.000101
726 0.000097
727 0.000096
728 0.000093
729 0.000088
730 0.000085
731 0.000084
732 0.000085
733 0.000085
734 0.000088
735 0.000093
736 0.000104
737 0.000116
738 0.000127
739 0.000138
740 0.000146
741 0.000156
742 0.000163
743 0.000169
744 0.000168
745 0.000164
746 0.000160
747 0.000154
748 0.000150
749 0.000150
750 0.000148
751 0.000146
752 0.000145
753 0.000148
754 0.000144
755 0.000142
756 0.000141
757 0.000137
758 0.000132
759 0.000131
760 0.000132
761 0.000134
762 0.000133
763 0.000131
764 0.000133
765 0.000129
766 0.000126
767 0.000126
768 0.000123
769 0.000117
770 0.000111
771 0.000110
772 0.000108
773 0.000107
774 0.000108
775 0.000110
776 0.000108
777 0.000110
778 0.000112
779 0.000111
780 0.000112
781 0.000108
782 0.000106
783 0.000103
784 0.000100
785 0.000097
786 0.000091
787 0.000085
788 0.000082
789 0.000079
790 0.000079
791 0.000082
792 0.000083
793 0.000084
794 0.000084
795 0.000087
796 0.000089
797 0.000090
798 0.000100
799 0.000108
800 0.000115
801 0.000123
802 0.000128
803 0.000131
804 0.000133
805 0.000139
806 0.000138
807 0.000139
808 0.000139
809 0.000140
