# i correlation
1 0.001836
2 0.001764
3 0.001688
4 0.001622
5 0.001567
6 0.001523
7 0.001485
8 0.001453
9 0.001431
10 0.001413
11 0.001397
12 0.001381
13 0.001363
14 0.001343
15 0.001331
16 0.001322
17 0.001313
18 0.001306
19 0.001305
20 0.001304
21 0.001300
22 0.001290
23 0.001291
24 0.001289
25 0.001286
26 0.001286
27 0.001279
28 0.001271
29 0.001253
30 0.001237
31 0.001211
32 0.001201
33 0.001192
34 0.001184
35 0.001178
36 0.001179
37 0.001174
38 0.001172
39 0.001172
40 0.001169
41 0.001168
42 0.001170
43 0.001156
44 0.001139
45 0.001119
46 0.001100
47 0.001078
48 0.001061
49 0.001037
50 0.001015
51 0.001003
52 0.000992
53 0.000992
54 0.000982
55 0.000986
56 0.000995
57 0.001002
58 0.001009
59 0.001012
60 0.001012
61 0.001012
62 0.001011
63 0.001013
64 0.001007
65 0.000992
66 0.000987
67 0.000989
68 0.000986
69 0.000981
70 0.000973
71 0.000970
72 0.000956
73 0.000939
74 0.000924
75 0.000914
76 0.000910
77 0.000912
78 0.000921
79 0.000931
80 0.000935
81 0.000941
82 0.000944
83 0.000943
84 0.000945
85 0.000946
86 0.000946
87 0.000949
88 0.000953
89 0.000961
90 0.000972
91 0.000982
92 0.000985
93 0.000987
94 0.000981
95 0.000984
96 0.000981
97 0.000987
98 0.000987
99 0.000986
100 0.000988
101 0.000994
102 0.000988
103 0.000978
104 0.000968
105 0.000958
106 0.000953
107 0.000943
108 0.000935
109 0.000934
110 0.000924
111 0.000919
112 0.000923
113 0.000927
114 0.000929
115 0.000931
116 0.000941
117 0.000946
118 0.000958
119 0.000971
120 0.000994
121 0.001012
122 0.001025
123 0.001033
124 0.001032
125 0.001030
126 0.001022
127 0.001018
128 0.001006
129 0.001005
130 0.001004
131 0.001003
132 0.000993
133 0.000989
134 0.000990
135 0.000984
136 0.000977
137 0.000966
138 0.000956
139 0.000946
140 0.000936
141 0.000927
142 0.000928
143 0.000923
144 0.000918
145 0.000912
146 0.000915
147 0.000914
148 0.000923
149 0.000928
150 0.000924
151 0.000913
152 0.000904
153 0.000893
154 0.000886
155 0.000877
156 0.000876
157 0.000873
158 0.000874
159 0.000876
160 0.000877
161 0.000875
162 0.000874
163 0.000871
164 0.000872
165 0.000864
166 0.000853
167 0.000837
168 0.000830
169 0.000826
170 0.000816
171 0.000801
172 0.000788
173 0.000776
174 0.000761
175 0.000751
176 0.000743
177 0.000739
178 0.000732
179 0.000718
180 0.000719
181 0.000715
182 0.000719
183 0.000718
184 0.000720
185 0.000718
186 0.000717
187 0.000724
188 0.000732
189 0.000736
190 0.000734
191 0.000723
192 0.000711
193 0.000698
194 0.000685
195 0.000673
196 0.000666
197 0.000659
198 0.000661
199 0.000656
200 0.000654
201 0.000651
202 0.000646
203 0.000640
204 0.000641
205 0.000638
206 0.000634
207 0.000625
208 0.000614
209 0.000603
210 0.000594
211 0.000587
212 0.000580
213 0.000586
214 0.000588
215 0.000604
216 0.000619
217 0.000631
218 0.000642
219 0.000645
220 0.000650
221 0.000651
222 0.000647
223 0.000641
224 0.000643
225 0.000652
226 0.000670
227 0.000688
228 0.000705
229 0.000716
230 0.000723
231 0.000725
232 0.000725
233 0.000724
234 0.000711
235 0.000697
236 0.000684
237 0.000669
238 0.000650
239 0.000640
240 0.000632
241 0.000626
242 0.000620
243 0.000629
244 0.000636
245 0.000643
246 0.000651
247 0.000663
248 0.000674
249 0.000685
250 0.000688
251 0.000692
252 0.000690
253 0.000695
254 0.000700
255 0.000709
256 0.000722
257 0.000744
258 0.000762
259 0.000784
260 0.000799
261 0.000809
262 0.000815
263 0.000818
264 0.000824
265 0.000829
266 0.000834
267 0.000836
268 0.000836
269 0.000841
270 0.000849
271 0.000856
272 0.000863
273 0.000866
274 0.000865
275 0.000868
276 0.000862
277 0.000865
278 0.000858
279 0.000853
280 0.000838
281 0.000828
282 0.000821
283 0.000810
284 0.000801
285 0.000801
286 0.000796
287 0.000795
288 0.000789
289 0.000790
290 0.000796
291 0.000789
292 0.000782
293 0.000772
294 0.000758
295 0.000747
296 0.000737
297 0.000726
298 0.000725
299 0.000722
300 0.000719
301 0.000712
302 0.000705
303 0.000699
304 0.000694
305 0.000694
306 0.000693
307 0.000695
308 0.000696
309 0.000688
310 0.000678
311 0.000674
312 0.000669
313 0.000667
314 0.000667
315 0.000668
316 0.000669
317 0.000677
318 0.000680
319 0.000679
320 0.000679
321 0.000677
322 0.000670
323 0.000662
324 0.000653
325 0.000647
326 0.000643
327 0.000645
328 0.000652
329 0.000653
330 0.000653
331 0.000647
332 0.000642
333 0.000637
334 0.000632
335 0.000622
336 0.000616
337 0.000608
338 0.000612
339 0.000609
340 0.000614
341 0.000614
342 0.000610
343 0.000604
344 0.000594
345 0.000585
346 0.000589
347 0.000589
348 0.000599
349 0.000619
350 0.000641
351 0.000667
352 0.000687
353 0.000703
354 0.000704
355 0.000703
356 0.000704
357 0.000703
358 0.000699
359 0.000695
360 0.000692
361 0.000696
362 0.000696
363 0.000695
364 0.000698
365 0.000694
366 0.000684
367 0.000676
368 0.000672
369 0.000674
370 0.000678
371 0.000675
372 0.000674
373 0.000674
374 0.000677
375 0.000684
376 0.000698
377 0.000703
378 0.000707
379 0.000712
380 0.000717
381 0.000727
382 0.000730
383 0.000724
384 0.000722
385 0.000722
386 0.000732
387 0.000739
388 0.000747
389 0.000749
390 0.000749
391 0.000750
392 0.000742
393 0.000747
394 0.000740
395 0.000738
396 0.000739
397 0.000741
398 0.000740
399 0.000744
400 0.000745
401 0.000740
402 0.000737
403 0.000728
404 0.000720
405 0.000716
406 0.000711
407 0.000704
408 0.000696
409 0.000695
410 0.000691
411 0.000686
412 0.000686
413 0.000691
414 0.000696
415 0.000694
416 0.000696
417 0.000698
418 0.000698
419 0.000699
420 0.000705
421 0.000710
422 0.000708
423 0.000706
424 0.000696
425 0.000686
426 0.000671
427 0.000653
428 0.000642
429 0.000638
430 0.000633
431 0.000635
432 0.000637
433 0.000640
434 0.000639
435 0.000630
436 0.000618
437 0.000608
438 0.000595
439 0.000586
440 0.000572
441 0.000571
442 0.000571
443 0.000574
444 0.000574
445 0.000567
446 0.000570
447 0.000569
448 0.000570
449 0.000573
450 0.000576
451 0.000576
452 0.000584
453 0.000594
454 0.000600
455 0.000607
456 0.000605
457 0.000604
458 0.000599
459 0.000600
460 0.000593
461 0.000581
462 0.000573
463 0.000562
464 0.000549
465 0.000539
466 0.000526
467 0.000510
468 0.000492
469 0.000478
470 0.000471
471 0.000465
472 0.000462
473 0.000467
474 0.000472
475 0.000478
476 0.000487
477 0.000499
478 0.000505
479 0.000504
480 0.000506
481 0.000509
482 0.000508
483 0.000507
484 0.000501
485 0.000494
486 0.000485
487 0.000476
488 0.000470
489 0.000464
490 0.000462
491 0.000465
492 0.000468
493 0.000464
494 0.000463
495 0.000461
496 0.000459
497 0.000456
498 0.000453
499 0.000452
500 0.000451
501 0.000448
502 0.000447
503 0.000443
504 0.000438
505 0.000431
506 0.000431
507 0.000431
508 0.000424
509 0.000419
510 0.000420
511 0.000423
512 0.000420
513 0.000418
514 0.000412
515 0.000409
516 0.000410
517 0.000411
518 0.000417
519 0.000421
520 0.000429
521 0.000437
522 0.000446
523 0.000455
524 0.000458
525 0.000458
526 0.000460
527 0.000456
528 0.000448
529 0.000438
530 0.000431
531 0.000425
532 0.000421
533 0.000431
534 0.000447
535 0.000460
536 0.000470
537 0.000478
538 0.000487
539 0.000499
540 0.000506
541 0.000511
542 0.000515
543 0.000519
544 0.000521
545 0.000527
546 0.000527
547 0.000530
548 0.000535
549 0.000541
550 0.000541
551 0.000539
552 0.000540
553 0.000535
554 0.000532
555 0.000527
556 0.000518
557 0.000508
558 0.000499
559 0.000494
560 0.000481
561 0.000467
562 0.000461
563 0.000452
564 0.000447
565 0.000442
566 0.000441
567 0.000432
568 0.000432
569 0.000432
570 0.000429
571 0.000426
572 0.000423
573 0.000413
574 0.000408
575 0.000410
576 0.000409
577 0.000414
578 0.000420
579 0.000425
580 0.000431
581 0.000435
582 0.000443
583 0.000442
584 0.000443
585 0.000441
586 0.000437
587 0.000431
588 0.000421
589 0.000417
590 0.000409
591 0.000401
592 0.000391
593 0.000381
594 0.000371
595 0.000365
596 0.000362
597 0.000362
598 0.000356
599 0.000347
600 0.000338
601 0.000333
602 0.000328
603 0.000329
604 0.000330
605 0.000332
606 0.000335
607 0.000334
608 0.000340
609 0.000339
610 0.000341
611 0.000345
612 0.000351
613 0.000351
614 0.000351
615 0.000351
616 0.000349
617 0.000349
618 0.000346
619 0.000349
620 0.000350
621 0.000351
622 0.000355
623 0.000357
624 0.000355
625 0.000352
626 0.000346
627 0.000335
628 0.000325
629 0.000318
630 0.000315
631 0.000310
632 0.000306
633 0.000304
634 0.000302
635 0.000300
636 0.000302
637 0.000297
638 0.000298
639 0.000301
640 0.000308
641 0.000320
642 0.000335
643 0.000344
644 0.000347
645 0.000347
646 0.000352
647 0.000360
648 0.000367
649 0.000371
650 0.000375
651 0.000380
652 0.000380
653 0.000381
654 0.000383
655 0.000383
656 0.000382
657 0.000382
658 0.000381
659 0.000385
660 0.000386
661 0.000384
662 0.000379
663 0.000377
664 0.000379
665 0.000379
666 0.000386
667 0.000386
668 0.000389
669 0.000388
670 0.000387
671 0.000387
672 0.000388
673 0.000382
674 0.000377
675 0.000378
676 0.000373
677 0.000370
678 0.000370
679 0.000372
680 0.000375
681 0.000386
682 0.000391
683 0.000399
684 0.000401
685 0.000401
686 0.000398
687 0.000396
688 0.000392
689 0.000390
690 0.000386
691 0.000386
692 0.000386
693 0.000383
694 0.000374
695 0.000365
696 0.000356
697 0.000344
698 0.000337
699 0.000332
700 0.000326
701 0.000325
702 0.000325
703 0.000331
704 0.000334
705 0.000337
706 0.000338
707 0.000334
708 0.000339
709 0.000343
710 0.000342
711 0.000341
712 0.000341
713 0.000337
714 0.000333
715 0.000328
716 0.000321
717 0.000314
718 0.000307
719 0.000297
720 0.000289
721 0.000281
722 0.000273
723 0.000265
724 0.000260
725 0.000251
726 0.000244
727 0.000239
728 0.000237
729 0.000235
730 0.000234
731 0.000236
732 0.000237
733 0.000235
734 0.000239
735 0.000235
736 0.000230
737 0.000231
738 0.000227
739 0.000230
740 0.000231
741 0.000228
742 0.000228
743 0.000223
744 0.000220
745 0.000218
746 0.000217
747 0.000211
748 0.000204
749 0.000199
750 0.000198
751 0.000199
752 0.000199
753 0.000198
754 0.000197
755 0.000195
756 0.000193
757 0.000194
758 0.000187
759 0.000182
760 0.000174
761 0.000166
762 0.000156
763 0.000151
764 0.000148
765 0.000142
766 0.000140
767 0.000142
768 0.000141
769 0.000144
770 0.000148
771 0.000149
772 0.000155
773 0.000164
774 0.000170
775 0.000170
776 0.000172
777 0.000168
778 0.000165
779 0.000159
780 0.000151
781 0.000143
782 0.000141
783 0.000137
784 0.000136
785 0.000133
786 0.000127
787 0.000126
788 0.000119
789 0.000112
790 0.000106
791 0.000099
792 0.000094
793 0.000098
794 0.000099
795 0.000103
796 0.000104
797 0.000107
798 0.000109
799 0.000114
800 0.000116
801 0.000119
802 0.000123
803 0.000123
804 0.000121
805 0.000121
806 0.000122
807 0.000122
808 0.000124
809 0.000126
