# i correlation
1 0.001692
2 0.001613
3 0.001540
4 0.001478
5 0.001426
6 0.001368
7 0.001328
8 0.001297
9 0.001267
10 0.001246
11 0.001232
12 0.001220
13 0.001221
14 0.001218
15 0.001212
16 0.001202
17 0.001199
18 0.001196
19 0.001187
20 0.001175
21 0.001159
22 0.001148
23 0.001132
24 0.001132
25 0.001113
26 0.001086
27 0.001062
28 0.001044
29 0.001025
30 0.001009
31 0.000991
32 0.000994
33 0.000995
34 0.000997
35 0.001015
36 0.001036
37 0.001058
38 0.001075
39 0.001075
40 0.001067
41 0.001063
42 0.001063
43 0.001064
44 0.001057
45 0.001051
46 0.001041
47 0.001028
48 0.001015
49 0.001003
50 0.001000
51 0.000990
52 0.000982
53 0.000975
54 0.000964
55 0.000960
56 0.000958
57 0.000961
58 0.000953
59 0.000953
60 0.000954
61 0.000958
62 0.000959
63 0.000952
64 0.000931
65 0.000922
66 0.000908
67 0.000902
68 0.000890
69 0.000871
70 0.000866
71 0.000853
72 0.000848
73 0.000848
74 0.000852
75 0.000862
76 0.000867
77 0.000861
78 0.000863
79 0.000853
80 0.000842
81 0.000838
82 0.000818
83 0.000803
84 0.000785
85 0.000778
86 0.000768
87 0.000769
88 0.000764
89 0.000760
90 0.000750
91 0.000741
92 0.000729
93 0.000722
94 0.000723
95 0.000725
96 0.000727
97 0.000713
98 0.000714
99 0.000716
100 0.000715
101 0.000710
102 0.000697
103 0.000691
104 0.000672
105 0.000667
106 0.000660
107 0.000654
108 0.000648
109 0.000639
110 0.000632
111 0.000635
112 0.000641
113 0.000650
114 0.000656
115 0.000655
116 0.000657
117 0.000655
118 0.000658
119 0.000658
120 0.000663
121 0.000662
122 0.000660
123 0.000656
124 0.000653
125 0.000659
126 0.000658
127 0.000655
128 0.000652
129 0.000640
130 0.000633
131 0.000627
132 0.000623
133 0.000614
134 0.000607
135 0.000617
136 0.000626
137 0.000636
138 0.000642
139 0.000636
140 0.000626
141 0.000610
142 0.000597
143 0.000586
144 0.000578
145 0.000565
146 0.000558
147 0.000545
148 0.000547
149 0.000563
150 0.000573
151 0.000582
152 0.000593
153 0.000597
154 0.000602
155 0.000597
156 0.000594
157 0.000594
158 0.000584
159 0.000572
160 0.000563
161 0.000564
162 0.000564
163 0.000571
164 0.000573
165 0.000571
166 0.000575
167 0.000571
168 0.000576
169 0.000581
170 0.000580
171 0.000582
172 0.000584
173 0.000598
174 0.000611
175 0.000618
176 0.000627
177 0.000629
178 0.000630
179 0.000625
180 0.000615
181 0.000619
182 0.000618
183 0.000609
184 0.000595
185 0.000589
186 0.000584
187 0.000579
188 0.000572
189 0.000565
190 0.000563
191 0.000552
192 0.000548
193 0.000547
194 0.000550
195 0.000542
196 0.000538
197 0.000532
198 0.000533
199 0.000538
200 0.000534
201 0.000538
202 0.000543
203 0.000551
204 0.000542
205 0.000536
206 0.000534
207 0.000533
208 0.000530
209 0.000526
210 0.000520
211 0.000523
212 0.000524
213 0.000529
214 0.000538
215 0.000546
216 0.000557
217 0.000565
218 0.000576
219 0.000585
220 0.000589
221 0.000593
222 0.000589
223 0.000590
224 0.000593
225 0.000590
226 0.000594
227 0.000587
228 0.000576
229 0.000567
230 0.000563
231 0.000568
232 0.000559
233 0.000553
234 0.000545
235 0.000546
236 0.000540
237 0.000539
238 0.000541
239 0.000547
240 0.000553
241 0.000559
242 0.000559
243 0.000555
244 0.000556
245 0.000556
246 0.000554
247 0.000543
248 0.000532
249 0.000523
250 0.000517
251 0.000513
252 0.000508
253 0.000508
254 0.000506
255 0.000513
256 0.000515
257 0.000520
258 0.000524
259 0.000533
260 0.000535
261 0.000534
262 0.000533
263 0.000530
264 0.000529
265 0.000516
266 0.000500
267 0.000477
268 0.000467
269 0.000465
270 0.000459
271 0.000450
272 0.000440
273 0.000439
274 0.000437
275 0.000428
276 0.000425
277 0.000427
278 0.000434
279 0.000439
280 0.000442
281 0.000458
282 0.000469
283 0.000469
284 0.000474
285 0.000470
286 0.000472
287 0.000472
288 0.000483
289 0.000492
290 0.000498
291 0.000500
292 0.000511
293 0.000523
294 0.000540
295 0.000544
296 0.000548
297 0.000551
298 0.000561
299 0.000571
300 0.000562
301 0.000556
302 0.000555
303 0.000550
304 0.000544
305 0.000532
306 0.000527
307 0.000530
308 0.000531
309 0.000526
310 0.000517
311 0.000507
312 0.000502
313 0.000487
314 0.000475
315 0.000458
316 0.000447
317 0.000433
318 0.000423
319 0.000417
320 0.000424
321 0.000418
322 0.000423
323 0.000420
324 0.000420
325 0.000416
326 0.000415
327 0.000412
328 0.000400
329 0.000394
330 0.000384
331 0.000385
332 0.000381
333 0.000373
334 0.000377
335 0.000379
336 0.000392
337 0.000403
338 0.000413
339 0.000422
340 0.000441
341 0.000451
342 0.000452
343 0.000451
344 0.000452
345 0.000446
346 0.000439
347 0.000433
348 0.000420
349 0.000414
350 0.000408
351 0.000411
352 0.000405
353 0.000398
354 0.000397
355 0.000394
356 0.000389
357 0.000386
358 0.000385
359 0.000389
360 0.000392
361 0.000394
362 0.000393
363 0.000386
364 0.000382
365 0.000371
366 0.000363
367 0.000358
368 0.000354
369 0.000364
370 0.000369
371 0.000368
372 0.000367
373 0.000365
374 0.000357
375 0.000356
376 0.000354
377 0.000356
378 0.000348
379 0.000346
380 0.000346
381 0.000339
382 0.000336
383 0.000334
384 0.000339
385 0.000344
386 0.000349
387 0.000356
388 0.000365
389 0.000376
390 0.000380
391 0.000379
392 0.000375
393 0.000377
394 0.000379
395 0.000384
396 0.000391
397 0.000398
398 0.000403
399 0.000407
400 0.000406
401 0.000412
402 0.000410
403 0.000402
404 0.000400
405 0.000397
406 0.000394
407 0.000396
408 0.000398
409 0.000401
410 0.000405
411 0.000405
412 0.000411
413 0.000414
414 0.000419
415 0.000424
416 0.000429
417 0.000431
418 0.000432
419 0.000429
420 0.000422
421 0.000420
422 0.000413
423 0.000408
424 0.000400
425 0.000400
426 0.000398
427 0.000396
428 0.000392
429 0.000387
430 0.000387
431 0.000386
432 0.000391
433 0.000388
434 0.000396
435 0.000396
436 0.000401
437 0.000397
438 0.000391
439 0.000391
440 0.000383
441 0.000370
442 0.000361
443 0.000355
444 0.000346
445 0.000347
446 0.000345
447 0.000353
448 0.000357
449 0.000361
450 0.000368
451 0.000363
452 0.000359
453 0.000349
454 0.000342
455 0.000338
456 0.000332
457 0.000330
458 0.000336
459 0.000339
460 0.000347
461 0.000350
462 0.000353
463 0.000358
464 0.000363
465 0.000361
466 0.000355
467 0.000349
468 0.000347
469 0.000350
470 0.000343
471 0.000353
472 0.000364
473 0.000373
474 0.000379
475 0.000382
476 0.000388
477 0.000396
478 0.000401
479 0.000399
480 0.000393
481 0.000388
482 0.000383
483 0.000385
484 0.000388
485 0.000390
486 0.000389
487 0.000382
488 0.000373
489 0.000370
490 0.000362
491 0.000354
492 0.000340
493 0.000334
494 0.000328
495 0.000324
496 0.000323
497 0.000325
498 0.000321
499 0.000315
500 0.000308
501 0.000309
502 0.000308
503 0.000306
504 0.000300
505 0.000288
506 0.000281
507 0.000274
508 0.000269
509 0.000265
510 0.000266
511 0.000266
512 0.000269
513 0.000274
514 0.000278
515 0.000286
516 0.000296
517 0.000299
518 0.000300
519 0.000302
520 0.000300
521 0.000305
522 0.000309
523 0.000316
524 0.000317
525 0.000319
526 0.000325
527 0.000321
528 0.000320
529 0.000317
530 0.000318
531 0.000314
532 0.000305
533 0.000305
534 0.000312
535 0.000312
536 0.000304
537 0.000298
538 0.000297
539 0.000307
540 0.000315
541 0.000314
542 0.000314
543 0.000314
544 0.000315
545 0.000316
546 0.000317
547 0.000314
548 0.000315
549 0.000313
550 0.000315
551 0.000313
552 0.000311
553 0.000315
554 0.000314
555 0.000312
556 0.000306
557 0.000298
558 0.000294
559 0.000295
560 0.000287
561 0.000285
562 0.000289
563 0.000295
564 0.000298
565 0.000294
566 0.000290
567 0.000291
568 0.000285
569 0.000278
570 0.000271
571 0.000265
572 0.000258
573 0.000244
574 0.000227
575 0.000218
576 0.000210
577 0.000203
578 0.000198
579 0.000192
580 0.000186
581 0.000181
582 0.000181
583 0.000180
584 0.000185
585 0.000196
586 0.000210
587 0.000220
588 0.000222
589 0.000225
590 0.000228
591 0.000230
592 0.000228
593 0.000221
594 0.000215
595 0.000205
596 0.000203
597 0.000208
598 0.000213
599 0.000218
600 0.000227
601 0.000240
602 0.000247
603 0.000253
604 0.000264
605 0.000273
606 0.000280
607 0.000281
608 0.000281
609 0.000282
610 0.000277
611 0.000270
612 0.000271
613 0.000261
614 0.000256
615 0.000251
616 0.000243
617 0.000233
618 0.000224
619 0.000215
620 0.000206
621 0.000204
622 0.000205
623 0.000206
624 0.000213
625 0.000224
626 0.000231
627 0.000232
628 0.000242
629 0.000250
630 0.000250
631 0.000248
632 0.000244
633 0.000248
634 0.000249
635 0.000252
636 0.000253
637 0.000250
638 0.000246
639 0.000245
640 0.000245
641 0.000247
642 0.000253
643 0.000259
644 0.000260
645 0.000258
646 0.000258
647 0.000254
648 0.000256
649 0.000253
650 0.000255
651 0.000255
652 0.000257
653 0.000261
654 0.000262
655 0.000255
656 0.000243
657 0.000231
658 0.000226
659 0.000221
660 0.000219
661 0.000217
662 0.000215
663 0.000208
664 0.000202
665 0.000202
666 0.000203
667 0.000206
668 0.000206
669 0.000201
670 0.000197
671 0.000192
672 0.000187
673 0.000177
674 0.000167
675 0.000156
676 0.000145
677 0.000136
678 0.000135
679 0.000135
680 0.000140
681 0.000141
682 0.000142
683 0.000143
684 0.000146
685 0.000151
686 0.000152
687 0.000158
688 0.000166
689 0.000169
690 0.000173
691 0.000173
692 0.000173
693 0.000171
694 0.000167
695 0.000164
696 0.000160
697 0.000162
698 0.000165
699 0.000166
700 0.000170
701 0.000167
702 0.000165
703 0.000167
704 0.000170
705 0.000175
706 0.000177
707 0.000176
708 0.000175
709 0.000174
710 0.000166
711 0.000163
712 0.000160
713 0.000158
714 0.000152
715 0.000148
716 0.000144
717 0.000140
718 0.000137
719 0.000130
720 0.000128
721 0.000126
722 0.000124
723 0.000120
724 0.000125
725 0.000125
726 0.000125
727 0.000126
728 0.000128
729 0.000126
730 0.000126
731 0.000125
732 0.000121
733 0.000120
734 0.000112
735 0.000105
736 0.000099
737 0.000099
738 0.000101
739 0.000102
740 0.000103
741 0.000106
742 0.000109
743 0.000112
744 0.000113
745 0.000110
746 0.000108
747 0.000106
748 0.000104
749 0.000104
750 0.000101
751 0.000096
752 0.000087
753 0.000080
754 0.000076
755 0.000072
756 0.000072
757 0.000073
758 0.000071
759 0.000068
760 0.000067
761 0.000066
762 0.000066
763 0.000068
764 0.000068
765 0.000074
766 0.000076
767 0.000079
768 0.000083
769 0.000082
770 0.000080
771 0.000075
772 0.000073
773 0.000074
774 0.000072
775 0.000073
776 0.000072
777 0.000071
778 0.000069
779 0.000072
780 0.000076
781 0.000083
782 0.000087
783 0.000096
784 0.000102
785 0.000112
786 0.000117
787 0.000123
788 0.000127
789 0.000130
790 0.000136
791 0.000136
792 0.000135
793 0.000132
794 0.000128
795 0.000118
796 0.000110
797 0.000103
798 0.000096
799 0.000090
800 0.000084
801 0.000081
802 0.000078
803 0.000077
804 0.000076
805 0.000081
806 0.000084
807 0.000091
808 0.000096
809 0.000104
