# i correlation
1 0.001808
2 0.001727
3 0.001654
4 0.001600
5 0.001552
6 0.001511
7 0.001482
8 0.001467
9 0.001452
10 0.001449
11 0.001438
12 0.001422
13 0.001409
14 0.001389
15 0.001373
16 0.001351
17 0.001329
18 0.001297
19 0.001266
20 0.001243
21 0.001236
22 0.001221
23 0.001204
24 0.001193
25 0.001177
26 0.001165
27 0.001150
28 0.001130
29 0.001126
30 0.001117
31 0.001120
32 0.001123
33 0.001122
34 0.001096
35 0.001080
36 0.001062
37 0.001049
38 0.001032
39 0.001017
40 0.001011
41 0.001013
42 0.001006
43 0.001015
44 0.001027
45 0.001032
46 0.001050
47 0.001062
48 0.001068
49 0.001052
50 0.001040
51 0.001025
52 0.001010
53 0.000999
54 0.000997
55 0.000996
56 0.000998
57 0.000991
58 0.000983
59 0.000976
60 0.000971
61 0.000968
62 0.000967
63 0.000962
64 0.000966
65 0.000959
66 0.000957
67 0.000955
68 0.000954
69 0.000943
70 0.000946
71 0.000935
72 0.000935
73 0.000939
74 0.000939
75 0.000941
76 0.000945
77 0.000961
78 0.000963
79 0.000965
80 0.000955
81 0.000943
82 0.000928
83 0.000911
84 0.000890
85 0.000869
86 0.000846
87 0.000838
88 0.000837
89 0.000835
90 0.000828
91 0.000821
92 0.000819
93 0.000821
94 0.000813
95 0.000809
96 0.000799
97 0.000794
98 0.000786
99 0.000789
100 0.000789
101 0.000780
102 0.000778
103 0.000783
104 0.000793
105 0.000802
106 0.000806
107 0.000801
108 0.000800
109 0.000797
110 0.000810
111 0.000809
112 0.000808
113 0.000806
114 0.000805
115 0.000796
116 0.000793
117 0.000799
118 0.000798
119 0.000794
120 0.000798
121 0.000800
122 0.000797
123 0.000794
124 0.000786
125 0.000782
126 0.000776
127 0.000773
128 0.000767
129 0.000765
130 0.000750
131 0.000739
132 0.000729
133 0.000717
134 0.000714
135 0.000700
136 0.000692
137 0.000696
138 0.000698
139 0.000694
140 0.000680
141 0.000675
142 0.000670
143 0.000669
144 0.000668
145 0.000676
146 0.000677
147 0.000679
148 0.000678
149 0.000685
150 0.000694
151 0.000700
152 0.000707
153 0.000711
154 0.000720
155 0.000722
156 0.000718
157 0.000702
158 0.000695
159 0.000690
160 0.000691
161 0.000687
162 0.000680
163 0.000674
164 0.000676
165 0.000672
166 0.000666
167 0.000666
168 0.000653
169 0.000642
170 0.000637
171 0.000629
172 0.000627
173 0.000616
174 0.000610
175 0.000597
176 0.000581
177 0.000569
178 0.000555
179 0.000539
180 0.000538
181 0.000536
182 0.000539
183 0.000532
184 0.000525
185 0.000525
186 0.000518
187 0.000515
188 0.000512
189 0.000505
190 0.000498
191 0.000488
192 0.000478
193 0.000473
194 0.000458
195 0.000446
196 0.000440
197 0.000430
198 0.000421
199 0.000413
200 0.000405
201 0.000400
202 0.000391
203 0.000383
204 0.000379
205 0.000379
206 0.000375
207 0.000376
208 0.000371
209 0.000365
210 0.000362
211 0.000359
212 0.000354
213 0.000346
214 0.000334
215 0.000332
216 0.000333
217 0.000334
218 0.000340
219 0.000337
220 0.000338
221 0.000337
222 0.000337
223 0.000333
224 0.000324
225 0.000314
226 0.000307
227 0.000304
228 0.000308
229 0.000310
230 0.000304
231 0.000313
232 0.000316
233 0.000332
234 0.000343
235 0.000356
236 0.000362
237 0.000377
238 0.000381
239 0.000383
240 0.000377
241 0.000371
242 0.000369
243 0.000360
244 0.000361
245 0.000356
246 0.000345
247 0.000339
248 0.000342
249 0.000348
250 0.000343
251 0.000343
252 0.000346
253 0.000343
254 0.000341
255 0.000341
256 0.000336
257 0.000333
258 0.000323
259 0.000318
260 0.000316
261 0.000302
262 0.000294
263 0.000297
264 0.000307
265 0.000320
266 0.000334
267 0.000339
268 0.000338
269 0.000340
270 0.000346
271 0.000349
272 0.000349
273 0.000355
274 0.000361
275 0.000363
276 0.000355
277 0.000345
278 0.000327
279 0.000318
280 0.000311
281 0.000319
282 0.000326
283 0.000329
284 0.000337
285 0.000345
286 0.000351
287 0.000354
288 0.000353
289 0.000350
290 0.000329
291 0.000308
292 0.000301
293 0.000296
294 0.000288
295 0.000286
296 0.000285
297 0.000288
298 0.000298
299 0.000304
300 0.000307
301 0.000312
302 0.000311
303 0.000313
304 0.000300
305 0.000293
306 0.000292
307 0.000293
308 0.000294
309 0.000295
310 0.000301
311 0.000310
312 0.000306
313 0.000304
314 0.000302
315 0.000295
316 0.000290
317 0.000284
318 0.000280
319 0.000288
320 0.000290
321 0.000295
322 0.000295
323 0.000286
324 0.000285
325 0.000281
326 0.000277
327 0.000281
328 0.000279
329 0.000275
330 0.000275
331 0.000270
332 0.000269
333 0.000267
334 0.000269
335 0.000274
336 0.000274
337 0.000270
338 0.000257
339 0.000249
340 0.000245
341 0.000246
342 0.000243
343 0.000236
344 0.000241
345 0.000245
346 0.000244
347 0.000247
348 0.000249
349 0.000256
350 0.000259
351 0.000258
352 0.000258
353 0.000261
354 0.000271
355 0.000268
356 0.000266
357 0.000272
358 0.000273
359 0.000283
360 0.000287
361 0.000289
362 0.000292
363 0.000292
364 0.000286
365 0.000288
366 0.000292
367 0.000288
368 0.000274
369 0.000260
370 0.000250
371 0.000246
372 0.000234
373 0.000226
374 0.000225
375 0.000225
376 0.000226
377 0.000225
378 0.000226
379 0.000215
380 0.000209
381 0.000206
382 0.000198
383 0.000192
384 0.000189
385 0.000185
386 0.000186
387 0.000192
388 0.000199
389 0.000206
390 0.000210
391 0.000209
392 0.000211
393 0.000212
394 0.000214
395 0.000213
396 0.000202
397 0.000200
398 0.000210
399 0.000207
400 0.000210
401 0.000212
402 0.000228
403 0.000241
404 0.000257
405 0.000271
406 0.000286
407 0.000295
408 0.000310
409 0.000317
410 0.000312
411 0.000315
412 0.000313
413 0.000307
414 0.000303
415 0.000300
416 0.000292
417 0.000288
418 0.000291
419 0.000305
420 0.000316
421 0.000331
422 0.000337
423 0.000339
424 0.000340
425 0.000336
426 0.000333
427 0.000324
428 0.000320
429 0.000317
430 0.000319
431 0.000317
432 0.000312
433 0.000308
434 0.000307
435 0.000306
436 0.000304
437 0.000307
438 0.000309
439 0.000313
440 0.000309
441 0.000315
442 0.000310
443 0.000299
444 0.000285
445 0.000270
446 0.000257
447 0.000242
448 0.000232
449 0.000221
450 0.000210
451 0.000199
452 0.000203
453 0.000206
454 0.000215
455 0.000216
456 0.000224
457 0.000220
458 0.000215
459 0.000212
460 0.000198
461 0.000182
462 0.000177
463 0.000171
464 0.000173
465 0.000169
466 0.000167
467 0.000171
468 0.000169
469 0.000172
470 0.000182
471 0.000187
472 0.000191
473 0.000189
474 0.000188
475 0.000191
476 0.000195
477 0.000193
478 0.000192
479 0.000196
480 0.000199
481 0.000206
482 0.000210
483 0.000220
484 0.000225
485 0.000242
486 0.000254
487 0.000265
488 0.000276
489 0.000277
490 0.000271
491 0.000274
492 0.000268
493 0.000265
494 0.000262
495 0.000256
496 0.000253
497 0.000251
498 0.000253
499 0.000257
500 0.000265
501 0.000265
502 0.000261
503 0.000265
504 0.000270
505 0.000272
506 0.000262
507 0.000253
508 0.000252
509 0.000253
510 0.000257
511 0.000265
512 0.000281
513 0.000291
514 0.000303
515 0.000317
516 0.000321
517 0.000324
518 0.000328
519 0.000328
520 0.000327
521 0.000326
522 0.000326
523 0.000323
524 0.000319
525 0.000311
526 0.000312
527 0.000308
528 0.000298
529 0.000296
530 0.000291
531 0.000294
532 0.000300
533 0.000300
534 0.000301
535 0.000300
536 0.000306
537 0.000304
538 0.000295
539 0.000286
540 0.000282
541 0.000284
542 0.000284
543 0.000278
544 0.000273
545 0.000272
546 0.000277
547 0.000285
548 0.000293
549 0.000297
550 0.000288
551 0.000282
552 0.000280
553 0.000277
554 0.000271
555 0.000268
556 0.000263
557 0.000260
558 0.000265
559 0.000275
560 0.000284
561 0.000289
562 0.000302
563 0.000307
564 0.000312
565 0.000310
566 0.000308
567 0.000305
568 0.000308
569 0.000308
570 0.000312
571 0.000307
572 0.000307
573 0.000311
574 0.000315
575 0.000318
576 0.000320
577 0.000317
578 0.000317
579 0.000315
580 0.000315
581 0.000308
582 0.000303
583 0.000298
584 0.000294
585 0.000292
586 0.000289
587 0.000285
588 0.000275
589 0.000270
590 0.000259
591 0.000255
592 0.000254
593 0.000264
594 0.000273
595 0.000276
596 0.000280
597 0.000278
598 0.000272
599 0.000269
600 0.000259
601 0.000251
602 0.000243
603 0.000241
604 0.000240
605 0.000240
606 0.000241
607 0.000234
608 0.000234
609 0.000234
610 0.000232
611 0.000224
612 0.000209
613 0.000195
614 0.000186
615 0.000179
616 0.000177
617 0.000176
618 0.000178
619 0.000178
620 0.000179
621 0.000177
622 0.000176
623 0.000170
624 0.000172
625 0.000174
626 0.000182
627 0.000181
628 0.000178
629 0.000177
630 0.000185
631 0.000185
632 0.000185
633 0.000183
634 0.000183
635 0.000182
636 0.000182
637 0.000184
638 0.000182
639 0.000184
640 0.000188
641 0.000200
642 0.000216
643 0.000230
644 0.000236
645 0.000238
646 0.000245
647 0.000249
648 0.000250
649 0.000252
650 0.000253
651 0.000254
652 0.000254
653 0.000255
654 0.000256
655 0.000264
656 0.000265
657 0.000274
658 0.000279
659 0.000291
660 0.000297
661 0.000305
662 0.000308
663 0.000318
664 0.000323
665 0.000329
666 0.000332
667 0.000333
668 0.000329
669 0.000324
670 0.000316
671 0.000318
672 0.000328
673 0.000339
674 0.000354
675 0.000366
676 0.000377
677 0.000384
678 0.000389
679 0.000392
680 0.000389
681 0.000386
682 0.000384
683 0.000381
684 0.000378
685 0.000374
686 0.000375
687 0.000376
688 0.000374
689 0.000368
690 0.000363
691 0.000357
692 0.000351
693 0.000350
694 0.000350
695 0.000345
696 0.000346
697 0.000345
698 0.000343
699 0.000336
700 0.000326
701 0.000319
702 0.000306
703 0.000300
704 0.000298
705 0.000299
706 0.000299
707 0.000302
708 0.000306
709 0.000310
710 0.000310
711 0.000309
712 0.000306
713 0.000304
714 0.000305
715 0.000304
716 0.000302
717 0.000289
718 0.000278
719 0.000276
720 0.000276
721 0.000278
722 0.000287
723 0.000298
724 0.000301
725 0.000305
726 0.000302
727 0.000302
728 0.000305
729 0.000307
730 0.000313
731 0.000316
732 0.000313
733 0.000307
734 0.000301
735 0.000293
736 0.000285
737 0.000278
738 0.000273
739 0.000269
740 0.000269
741 0.000266
742 0.000264
743 0.000258
744 0.000251
745 0.000247
746 0.000237
747 0.000228
748 0.000220
749 0.000212
750 0.000201
751 0.000191
752 0.000188
753 0.000186
754 0.000190
755 0.000196
756 0.000202
757 0.000204
758 0.000203
759 0.000202
760 0.000201
761 0.000195
762 0.000187
763 0.000182
764 0.000176
765 0.000174
766 0.000167
767 0.000161
768 0.000158
769 0.000157
770 0.000161
771 0.000167
772 0.000167
773 0.000166
774 0.000159
775 0.000153
776 0.000143
777 0.000136
778 0.000137
779 0.000136
780 0.000138
781 0.000141
782 0.000141
783 0.000142
784 0.000144
785 0.000144
786 0.000150
787 0.000153
788 0.000158
789 0.000166
790 0.000166
791 0.000166
792 0.000168
793 0.000166
794 0.000161
795 0.000153
796 0.000152
797 0.000149
798 0.000151
799 0.000153
800 0.000154
801 0.000156
802 0.000156
803 0.000156
804 0.000161
805 0.000157
806 0.000156
807 0.000153
808 0.000149
809 0.000145
