# i correlation
1 0.001856
2 0.001768
3 0.001684
4 0.001612
5 0.001551
6 0.001498
7 0.001454
8 0.001414
9 0.001386
10 0.001357
11 0.001335
12 0.001322
13 0.001316
14 0.001308
15 0.001302
16 0.001297
17 0.001291
18 0.001277
19 0.001268
20 0.001257
21 0.001246
22 0.001229
23 0.001209
24 0.001187
25 0.001161
26 0.001144
27 0.001127
28 0.001110
29 0.001105
30 0.001095
31 0.001091
32 0.001091
33 0.001080
34 0.001070
35 0.001058
36 0.001048
37 0.001037
38 0.001033
39 0.001030
40 0.001021
41 0.001007
42 0.000997
43 0.000988
44 0.000977
45 0.000976
46 0.000972
47 0.000981
48 0.000996
49 0.001010
50 0.001025
51 0.001036
52 0.001050
53 0.001051
54 0.001056
55 0.001051
56 0.001036
57 0.001018
58 0.000998
59 0.000983
60 0.000967
61 0.000963
62 0.000960
63 0.000952
64 0.000942
65 0.000931
66 0.000937
67 0.000936
68 0.000937
69 0.000940
70 0.000942
71 0.000942
72 0.000936
73 0.000929
74 0.000915
75 0.000909
76 0.000907
77 0.000898
78 0.000885
79 0.000885
80 0.000893
81 0.000887
82 0.000893
83 0.000899
84 0.000893
85 0.000886
86 0.000872
87 0.000858
88 0.000847
89 0.000837
90 0.000826
91 0.000822
92 0.000817
93 0.000816
94 0.000811
95 0.000806
96 0.000803
97 0.000806
98 0.000808
99 0.000809
100 0.000814
101 0.000808
102 0.000814
103 0.000811
104 0.000815
105 0.000803
106 0.000799
107 0.000793
108 0.000781
109 0.000778
110 0.000758
111 0.000749
112 0.000741
113 0.000735
114 0.000728
115 0.000718
116 0.000713
117 0.000713
118 0.000716
119 0.000718
120 0.000719
121 0.000724
122 0.000728
123 0.000736
124 0.000745
125 0.000746
126 0.000743
127 0.000742
128 0.000736
129 0.000726
130 0.000720
131 0.000711
132 0.000706
133 0.000700
134 0.000693
135 0.000688
136 0.000684
137 0.000673
138 0.000666
139 0.000654
140 0.000649
141 0.000656
142 0.000655
143 0.000658
144 0.000657
145 0.000659
146 0.000662
147 0.000661
148 0.000663
149 0.000664
150 0.000664
151 0.000660
152 0.000657
153 0.000659
154 0.000663
155 0.000667
156 0.000665
157 0.000662
158 0.000658
159 0.000656
160 0.000651
161 0.000651
162 0.000650
163 0.000644
164 0.000644
165 0.000653
166 0.000671
167 0.000687
168 0.000695
169 0.000692
170 0.000692
171 0.000685
172 0.000688
173 0.000693
174 0.000697
175 0.000704
176 0.000694
177 0.000690
178 0.000677
179 0.000670
180 0.000669
181 0.000670
182 0.000668
183 0.000662
184 0.000654
185 0.000644
186 0.000643
187 0.000646
188 0.000652
189 0.000659
190 0.000667
191 0.000664
192 0.000662
193 0.000662
194 0.000658
195 0.000653
196 0.000650
197 0.000652
198 0.000660
199 0.000662
200 0.000658
201 0.000655
202 0.000653
203 0.000643
204 0.000636
205 0.000622
206 0.000610
207 0.000598
208 0.000587
209 0.000584
210 0.000586
211 0.000581
212 0.000573
213 0.000565
214 0.000560
215 0.000557
216 0.000555
217 0.000559
218 0.000558
219 0.000550
220 0.000538
221 0.000531
222 0.000518
223 0.000507
224 0.000503
225 0.000504
226 0.000513
227 0.000524
228 0.000538
229 0.000552
230 0.000567
231 0.000582
232 0.000591
233 0.000600
234 0.000605
235 0.000606
236 0.000610
237 0.000614
238 0.000615
239 0.000608
240 0.000594
241 0.000593
242 0.000594
243 0.000596
244 0.000598
245 0.000600
246 0.000609
247 0.000631
248 0.000648
249 0.000666
250 0.000678
251 0.000689
252 0.000701
253 0.000712
254 0.000712
255 0.000708
256 0.000696
257 0.000694
258 0.000686
259 0.000676
260 0.000666
261 0.000662
262 0.000652
263 0.000641
264 0.000630
265 0.000629
266 0.000637
267 0.000639
268 0.000651
269 0.000657
270 0.000655
271 0.000652
272 0.000645
273 0.000641
274 0.000626
275 0.000606
276 0.000580
277 0.000559
278 0.000542
279 0.000528
280 0.000517
281 0.000517
282 0.000517
283 0.000515
284 0.000521
285 0.000529
286 0.000541
287 0.000546
288 0.000547
289 0.000548
290 0.000554
291 0.000549
292 0.000544
293 0.000532
294 0.000524
295 0.000516
296 0.000500
297 0.000492
298 0.000488
299 0.000489
300 0.000495
301 0.000504
302 0.000509
303 0.000518
304 0.000527
305 0.000533
306 0.000534
307 0.000535
308 0.000532
309 0.000524
310 0.000514
311 0.000506
312 0.000492
313 0.000484
314 0.000472
315 0.000463
316 0.000458
317 0.000450
318 0.000450
319 0.000448
320 0.000448
321 0.000451
322 0.000455
323 0.000462
324 0.000463
325 0.000457
326 0.000447
327 0.000440
328 0.000437
329 0.000432
330 0.000425
331 0.000411
332 0.000393
333 0.000378
334 0.000377
335 0.000373
336 0.000373
337 0.000373
338 0.000370
339 0.000373
340 0.000387
341 0.000398
342 0.000408
343 0.000414
344 0.000416
345 0.000419
346 0.000412
347 0.000409
348 0.000411
349 0.000410
350 0.000408
351 0.000416
352 0.000415
353 0.000417
354 0.000417
355 0.000423
356 0.000424
357 0.000421
358 0.000410
359 0.000398
360 0.000393
361 0.000393
362 0.000386
363 0.000384
364 0.000375
365 0.000371
366 0.000366
367 0.000360
368 0.000359
369 0.000364
370 0.000374
371 0.000377
372 0.000381
373 0.000380
374 0.000383
375 0.000391
376 0.000388
377 0.000392
378 0.000394
379 0.000389
380 0.000387
381 0.000374
382 0.000367
383 0.000364
384 0.000365
385 0.000362
386 0.000358
387 0.000355
388 0.000345
389 0.000337
390 0.000337
391 0.000339
392 0.000342
393 0.000340
394 0.000343
395 0.000343
396 0.000343
397 0.000336
398 0.000334
399 0.000335
400 0.000329
401 0.000325
402 0.000327
403 0.000338
404 0.000351
405 0.000362
406 0.000373
407 0.000381
408 0.000387
409 0.000392
410 0.000392
411 0.000387
412 0.000378
413 0.000370
414 0.000369
415 0.000370
416 0.000371
417 0.000375
418 0.000374
419 0.000378
420 0.000375
421 0.000374
422 0.000377
423 0.000375
424 0.000373
425 0.000373
426 0.000373
427 0.000381
428 0.000391
429 0.000392
430 0.000394
431 0.000397
432 0.000400
433 0.000391
434 0.000388
435 0.000392
436 0.000403
437 0.000412
438 0.000419
439 0.000426
440 0.000428
441 0.000435
442 0.000433
443 0.000429
444 0.000426
445 0.000428
446 0.000430
447 0.000430
448 0.000434
449 0.000436
450 0.000427
451 0.000419
452 0.000410
453 0.000407
454 0.000408
455 0.000406
456 0.000400
457 0.000399
458 0.000394
459 0.000386
460 0.000384
461 0.000377
462 0.000372
463 0.000367
464 0.000361
465 0.000354
466 0.000343
467 0.000338
468 0.000332
469 0.000325
470 0.000325
471 0.000325
472 0.000322
473 0.000317
474 0.000310
475 0.000311
476 0.000306
477 0.000303
478 0.000296
479 0.000293
480 0.000291
481 0.000291
482 0.000295
483 0.000295
484 0.000303
485 0.000302
486 0.000306
487 0.000309
488 0.000310
489 0.000305
490 0.000304
491 0.000302
492 0.000296
493 0.000292
494 0.000293
495 0.000292
496 0.000295
497 0.000296
498 0.000305
499 0.000313
500 0.000314
501 0.000316
502 0.000314
503 0.000322
504 0.000325
505 0.000329
506 0.000327
507 0.000331
508 0.000334
509 0.000336
510 0.000338
511 0.000341
512 0.000338
513 0.000325
514 0.000313
515 0.000310
516 0.000310
517 0.000305
518 0.000305
519 0.000306
520 0.000306
521 0.000312
522 0.000317
523 0.000315
524 0.000309
525 0.000302
526 0.000287
527 0.000270
528 0.000252
529 0.000229
530 0.000213
531 0.000195
532 0.000185
533 0.000178
534 0.000175
535 0.000172
536 0.000174
537 0.000177
538 0.000179
539 0.000182
540 0.000179
541 0.000175
542 0.000171
543 0.000171
544 0.000167
545 0.000169
546 0.000171
547 0.000169
548 0.000163
549 0.000157
550 0.000154
551 0.000152
552 0.000152
553 0.000157
554 0.000162
555 0.000167
556 0.000163
557 0.000164
558 0.000169
559 0.000179
560 0.000189
561 0.000193
562 0.000198
563 0.000198
564 0.000198
565 0.000196
566 0.000197
567 0.000200
568 0.000199
569 0.000193
570 0.000186
571 0.000184
572 0.000186
573 0.000195
574 0.000199
575 0.000201
576 0.000205
577 0.000211
578 0.000214
579 0.000218
580 0.000218
581 0.000217
582 0.000213
583 0.000199
584 0.000193
585 0.000182
586 0.000171
587 0.000164
588 0.000160
589 0.000160
590 0.000155
591 0.000154
592 0.000153
593 0.000147
594 0.000148
595 0.000146
596 0.000146
597 0.000147
598 0.000152
599 0.000146
600 0.000138
601 0.000130
602 0.000128
603 0.000131
604 0.000134
605 0.000140
606 0.000144
607 0.000150
608 0.000159
609 0.000169
610 0.000169
611 0.000169
612 0.000170
613 0.000178
614 0.000183
615 0.000181
616 0.000178
617 0.000167
618 0.000164
619 0.000156
620 0.000151
621 0.000150
622 0.000152
623 0.000147
624 0.000139
625 0.000132
626 0.000127
627 0.000125
628 0.000127
629 0.000135
630 0.000141
631 0.000149
632 0.000151
633 0.000146
634 0.000147
635 0.000147
636 0.000150
637 0.000155
638 0.000157
639 0.000164
640 0.000166
641 0.000165
642 0.000162
643 0.000164
644 0.000167
645 0.000175
646 0.000180
647 0.000182
648 0.000182
649 0.000180
650 0.000181
651 0.000180
652 0.000182
653 0.000186
654 0.000185
655 0.000178
656 0.000177
657 0.000181
658 0.000185
659 0.000190
660 0.000199
661 0.000204
662 0.000204
663 0.000202
664 0.000204
665 0.000205
666 0.000207
667 0.000205
668 0.000202
669 0.000202
670 0.000203
671 0.000203
672 0.000202
673 0.000201
674 0.000202
675 0.000205
676 0.000208
677 0.000213
678 0.000219
679 0.000223
680 0.000223
681 0.000221
682 0.000219
683 0.000222
684 0.000226
685 0.000232
686 0.000234
687 0.000231
688 0.000227
689 0.000228
690 0.000229
691 0.000235
692 0.000237
693 0.000243
694 0.000243
695 0.000238
696 0.000237
697 0.000235
698 0.000241
699 0.000241
700 0.000243
701 0.000247
702 0.000250
703 0.000250
704 0.000248
705 0.000248
706 0.000249
707 0.000252
708 0.000253
709 0.000263
710 0.000265
711 0.000269
712 0.000273
713 0.000272
714 0.000275
715 0.000274
716 0.000272
717 0.000269
718 0.000262
719 0.000250
720 0.000244
721 0.000233
722 0.000228
723 0.000225
724 0.000218
725 0.000213
726 0.000213
727 0.000210
728 0.000206
729 0.000206
730 0.000204
731 0.000195
732 0.000190
733 0.000189
734 0.000189
735 0.000193
736 0.000198
737 0.000202
738 0.000203
739 0.000209
740 0.000211
741 0.000213
742 0.000211
743 0.000206
744 0.000199
745 0.000194
746 0.000191
747 0.000191
748 0.000196
749 0.000200
750 0.000204
751 0.000203
752 0.000204
753 0.000203
754 0.000201
755 0.000202
756 0.000206
757 0.000211
758 0.000212
759 0.000217
760 0.000216
761 0.000218
762 0.000214
763 0.000209
764 0.000207
765 0.000203
766 0.000205
767 0.000204
768 0.000203
769 0.000206
770 0.000201
771 0.000192
772 0.000186
773 0.000176
774 0.000165
775 0.000153
776 0.000144
777 0.000138
778 0.000136
779 0.000136
780 0.000141
781 0.000144
782 0.000146
783 0.000147
784 0.000142
785 0.000133
786 0.000125
787 0.000118
788 0.000111
789 0.000110
790 0.000108
791 0.000105
792 0.000101
793 0.000104
794 0.000102
795 0.000103
796 0.000105
797 0.000109
798 0.000112
799 0.000113
800 0.000117
801 0.000116
802 0.000117
803 0.000110
804 0.000099
805 0.000093
806 0.000094
807 0.000089
808 0.000085
809 0.000082
