# i correlation
1 0.001487
2 0.001412
3 0.001352
4 0.001302
5 0.001259
6 0.001220
7 0.001183
8 0.001156
9 0.001128
10 0.001105
11 0.001083
12 0.001067
13 0.001052
14 0.001039
15 0.001033
16 0.001030
17 0.001022
18 0.001013
19 0.001015
20 0.001015
21 0.001008
22 0.000990
23 0.000976
24 0.000959
25 0.000940
26 0.000923
27 0.000916
28 0.000914
29 0.000905
30 0.000897
31 0.000891
32 0.000889
33 0.000885
34 0.000882
35 0.000877
36 0.000870
37 0.000865
38 0.000860
39 0.000852
40 0.000842
41 0.000836
42 0.000828
43 0.000816
44 0.000797
45 0.000785
46 0.000776
47 0.000770
48 0.000760
49 0.000753
50 0.000745
51 0.000748
52 0.000751
53 0.000763
54 0.000768
55 0.000775
56 0.000769
57 0.000773
58 0.000778
59 0.000776
60 0.000767
61 0.000770
62 0.000765
63 0.000764
64 0.000757
65 0.000755
66 0.000757
67 0.000762
68 0.000758
69 0.000752
70 0.000743
71 0.000733
72 0.000721
73 0.000704
74 0.000690
75 0.000686
76 0.000688
77 0.000684
78 0.000678
79 0.000671
80 0.000667
81 0.000668
82 0.000666
83 0.000659
84 0.000645
85 0.000631
86 0.000625
87 0.000625
88 0.000627
89 0.000622
90 0.000616
91 0.000621
92 0.000620
93 0.000625
94 0.000622
95 0.000620
96 0.000618
97 0.000615
98 0.000612
99 0.000608
100 0.000610
101 0.000613
102 0.000617
103 0.000617
104 0.000613
105 0.000610
106 0.000617
107 0.000618
108 0.000617
109 0.000616
110 0.000621
111 0.000619
112 0.000622
113 0.000616
114 0.000604
115 0.000598
116 0.000591
117 0.000584
118 0.000581
119 0.000568
120 0.000557
121 0.000555
122 0.000563
123 0.000563
124 0.000566
125 0.000567
126 0.000566
127 0.000557
128 0.000546
129 0.000533
130 0.000532
131 0.000527
132 0.000515
133 0.000506
134 0.000507
135 0.000502
136 0.000498
137 0.000498
138 0.000497
139 0.000492
140 0.000489
141 0.000482
142 0.000484
143 0.000495
144 0.000501
145 0.000501
146 0.000503
147 0.000508
148 0.000512
149 0.000522
150 0.000528
151 0.000520
152 0.000514
153 0.000510
154 0.000506
155 0.000496
156 0.000493
157 0.000493
158 0.000506
159 0.000517
160 0.000528
161 0.000528
162 0.000528
163 0.000534
164 0.000541
165 0.000551
166 0.000550
167 0.000551
168 0.000554
169 0.000550
170 0.000545
171 0.000540
172 0.000539
173 0.000541
174 0.000540
175 0.000536
176 0.000535
177 0.000534
178 0.000525
179 0.000525
180 0.000526
181 0.000525
182 0.000523
183 0.000523
184 0.000519
185 0.000522
186 0.000524
187 0.000527
188 0.000527
189 0.000529
190 0.000524
191 0.000519
192 0.000517
193 0.000519
194 0.000513
195 0.000514
196 0.000511
197 0.000512
198 0.000508
199 0.000505
200 0.000503
201 0.000506
202 0.000501
203 0.000494
204 0.000486
205 0.000478
206 0.000473
207 0.000461
208 0.000447
209 0.000432
210 0.000415
211 0.000401
212 0.000393
213 0.000382
214 0.000372
215 0.000372
216 0.000373
217 0.000377
218 0.000392
219 0.000401
220 0.000405
221 0.000405
222 0.000396
223 0.000397
224 0.000393
225 0.000394
226 0.000392
227 0.000384
228 0.000385
229 0.000383
230 0.000378
231 0.000378
232 0.000371
233 0.000360
234 0.000350
235 0.000341
236 0.000342
237 0.000336
238 0.000337
239 0.000338
240 0.000343
241 0.000335
242 0.000320
243 0.000306
244 0.000301
245 0.000291
246 0.000286
247 0.000284
248 0.000281
249 0.000280
250 0.000282
251 0.000282
252 0.000293
253 0.000304
254 0.000309
255 0.000316
256 0.000328
257 0.000327
258 0.000329
259 0.000333
260 0.000349
261 0.000356
262 0.000358
263 0.000354
264 0.000354
265 0.000355
266 0.000358
267 0.000360
268 0.000362
269 0.000360
270 0.000359
271 0.000358
272 0.000355
273 0.000353
274 0.000355
275 0.000358
276 0.000369
277 0.000376
278 0.000380
279 0.000373
280 0.000373
281 0.000367
282 0.000361
283 0.000359
284 0.000363
285 0.000361
286 0.000361
287 0.000365
288 0.000366
289 0.000362
290 0.000363
291 0.000363
292 0.000362
293 0.000367
294 0.000370
295 0.000371
296 0.000375
297 0.000379
298 0.000381
299 0.000381
300 0.000376
301 0.000369
302 0.000359
303 0.000362
304 0.000362
305 0.000359
306 0.000352
307 0.000350
308 0.000348
309 0.000348
310 0.000335
311 0.000337
312 0.000337
313 0.000339
314 0.000342
315 0.000340
316 0.000345
317 0.000348
318 0.000348
319 0.000361
320 0.000359
321 0.000361
322 0.000350
323 0.000348
324 0.000344
325 0.000344
326 0.000339
327 0.000335
328 0.000333
329 0.000335
330 0.000336
331 0.000342
332 0.000349
333 0.000352
334 0.000351
335 0.000347
336 0.000352
337 0.000355
338 0.000361
339 0.000363
340 0.000365
341 0.000368
342 0.000368
343 0.000364
344 0.000358
345 0.000352
346 0.000349
347 0.000349
348 0.000345
349 0.000341
350 0.000333
351 0.000327
352 0.000321
353 0.000313
354 0.000309
355 0.000307
356 0.000309
357 0.000310
358 0.000310
359 0.000316
360 0.000323
361 0.000329
362 0.000340
363 0.000341
364 0.000338
365 0.000330
366 0.000333
367 0.000325
368 0.000315
369 0.000305
370 0.000299
371 0.000291
372 0.000291
373 0.000287
374 0.000290
375 0.000293
376 0.000297
377 0.000305
378 0.000320
379 0.000336
380 0.000348
381 0.000353
382 0.000357
383 0.000354
384 0.000353
385 0.000353
386 0.000354
387 0.000357
388 0.000351
389 0.000346
390 0.000340
391 0.000339
392 0.000335
393 0.000336
394 0.000340
395 0.000336
396 0.000336
397 0.000336
398 0.000334
399 0.000332
400 0.000335
401 0.000333
402 0.000331
403 0.000327
404 0.000318
405 0.000312
406 0.000304
407 0.000296
408 0.000292
409 0.000287
410 0.000285
411 0.000279
412 0.000275
413 0.000271
414 0.000271
415 0.000268
416 0.000269
417 0.000267
418 0.000260
419 0.000253
420 0.000246
421 0.000246
422 0.000231
423 0.000218
424 0.000217
425 0.000220
426 0.000225
427 0.000232
428 0.000238
429 0.000246
430 0.000251
431 0.000251
432 0.000247
433 0.000247
434 0.000241
435 0.000238
436 0.000237
437 0.000239
438 0.000241
439 0.000240
440 0.000238
441 0.000232
442 0.000227
443 0.000226
444 0.000224
445 0.000225
446 0.000224
447 0.000225
448 0.000227
449 0.000230
450 0.000235
451 0.000234
452 0.000236
453 0.000240
454 0.000242
455 0.000248
456 0.000258
457 0.000263
458 0.000271
459 0.000278
460 0.000277
461 0.000276
462 0.000275
463 0.000279
464 0.000280
465 0.000277
466 0.000275
467 0.000277
468 0.000277
469 0.000282
470 0.000285
471 0.000287
472 0.000287
473 0.000286
474 0.000280
475 0.000272
476 0.000265
477 0.000254
478 0.000247
479 0.000243
480 0.000231
481 0.000219
482 0.000207
483 0.000196
484 0.000190
485 0.000184
486 0.000182
487 0.000178
488 0.000172
489 0.000162
490 0.000159
491 0.000163
492 0.000173
493 0.000182
494 0.000192
495 0.000197
496 0.000207
497 0.000211
498 0.000217
499 0.000225
500 0.000224
501 0.000216
502 0.000216
503 0.000214
504 0.000214
505 0.000218
506 0.000224
507 0.000220
508 0.000214
509 0.000211
510 0.000204
511 0.000198
512 0.000191
513 0.000184
514 0.000180
515 0.000179
516 0.000179
517 0.000169
518 0.000161
519 0.000155
520 0.000153
521 0.000149
522 0.000152
523 0.000150
524 0.000154
525 0.000156
526 0.000162
527 0.000171
528 0.000175
529 0.000176
530 0.000175
531 0.000175
532 0.000174
533 0.000173
534 0.000179
535 0.000178
536 0.000178
537 0.000188
538 0.000193
539 0.000198
540 0.000204
541 0.000197
542 0.000193
543 0.000197
544 0.000199
545 0.000197
546 0.000190
547 0.000187
548 0.000183
549 0.000177
550 0.000173
551 0.000172
552 0.000176
553 0.000179
554 0.000180
555 0.000181
556 0.000182
557 0.000183
558 0.000183
559 0.000188
560 0.000198
561 0.000209
562 0.000217
563 0.000222
564 0.000227
565 0.000228
566 0.000223
567 0.000222
568 0.000224
569 0.000222
570 0.000221
571 0.000213
572 0.000205
573 0.000200
574 0.000200
575 0.000199
576 0.000196
577 0.000196
578 0.000192
579 0.000191
580 0.000192
581 0.000197
582 0.000196
583 0.000195
584 0.000190
585 0.000187
586 0.000181
587 0.000179
588 0.000174
589 0.000167
590 0.000158
591 0.000152
592 0.000146
593 0.000149
594 0.000149
595 0.000146
596 0.000148
597 0.000157
598 0.000163
599 0.000164
600 0.000160
601 0.000157
602 0.000159
603 0.000157
604 0.000155
605 0.000150
606 0.000149
607 0.000144
608 0.000139
609 0.000134
610 0.000128
611 0.000116
612 0.000108
613 0.000108
614 0.000108
615 0.000109
616 0.000114
617 0.000121
618 0.000127
619 0.000128
620 0.000129
621 0.000131
622 0.000131
623 0.000127
624 0.000116
625 0.000109
626 0.000103
627 0.000099
628 0.000096
629 0.000089
630 0.000085
631 0.000081
632 0.000077
633 0.000075
634 0.000075
635 0.000075
636 0.000077
637 0.000080
638 0.000081
639 0.000082
640 0.000085
641 0.000085
642 0.000085
643 0.000079
644 0.000078
645 0.000077
646 0.000081
647 0.000081
648 0.000077
649 0.000076
650 0.000074
651 0.000070
652 0.000068
653 0.000066
654 0.000061
655 0.000065
656 0.000069
657 0.000071
658 0.000071
659 0.000072
660 0.000070
661 0.000065
662 0.000057
663 0.000052
664 0.000048
665 0.000048
666 0.000043
667 0.000039
668 0.000040
669 0.000037
670 0.000037
671 0.000038
672 0.000035
673 0.000034
674 0.000039
675 0.000041
676 0.000042
677 0.000042
678 0.000044
679 0.000042
680 0.000037
681 0.000033
682 0.000028
683 0.000020
684 0.000014
685 0.000016
686 0.000020
687 0.000025
688 0.000025
689 0.000028
690 0.000030
691 0.000035
692 0.000038
693 0.000036
694 0.000041
695 0.000048
696 0.000053
697 0.000062
698 0.000070
699 0.000076
700 0.000080
701 0.000083
702 0.000087
703 0.000086
704 0.000082
705 0.000078
706 0.000079
707 0.000077
708 0.000076
709 0.000072
710 0.000071
711 0.000066
712 0.000063
713 0.000060
714 0.000059
715 0.000058
716 0.000056
717 0.000059
718 0.000062
719 0.000067
720 0.000069
721 0.000067
722 0.000066
723 0.000071
724 0.000077
725 0.000081
726 0.000082
727 0.000084
728 0.000087
729 0.000089
730 0.000088
731 0.000084
732 0.000080
733 0.000076
734 0.000071
735 0.000067
736 0.000064
737 0.000058
738 0.000052
739 0.000048
740 0.000048
741 0.000046
742 0.000041
743 0.000038
744 0.000040
745 0.000043
746 0.000046
747 0.000049
748 0.000052
749 0.000054
750 0.000051
751 0.000046
752 0.000047
753 0.000046
754 0.000045
755 0.000047
756 0.000050
757 0.000054
758 0.000060
759 0.000067
760 0.000068
761 0.000074
762 0.000078
763 0.000084
764 0.000088
765 0.000091
766 0.000094
767 0.000099
768 0.000104
769 0.000105
770 0.000104
771 0.000103
772 0.000098
773 0.000093
774 0.000086
775 0.000079
776 0.000077
777 0.000074
778 0.000074
779 0.000069
780 0.000068
781 0.000065
782 0.000063
783 0.000062
784 0.000062
785 0.000061
786 0.000060
787 0.000059
788 0.000057
789 0.000057
790 0.000062
791 0.000062
792 0.000062
793 0.000064
794 0.000063
795 0.000061
796 0.000057
797 0.000054
798 0.000049
799 0.000048
800 0.000046
801 0.000043
802 0.000040
803 0.000037
804 0.000036
805 0.000031
806 0.000028
807 0.000024
808 0.000015
809 0.000009
