# i correlation
1 0.002046
2 0.001952
3 0.001873
4 0.001805
5 0.001736
6 0.001672
7 0.001615
8 0.001565
9 0.001524
10 0.001490
11 0.001467
12 0.001448
13 0.001436
14 0.001428
15 0.001428
16 0.001418
17 0.001416
18 0.001412
19 0.001405
20 0.001397
21 0.001384
22 0.001373
23 0.001359
24 0.001351
25 0.001343
26 0.001343
27 0.001342
28 0.001335
29 0.001331
30 0.001319
31 0.001303
32 0.001296
33 0.001286
34 0.001265
35 0.001240
36 0.001217
37 0.001208
38 0.001196
39 0.001185
40 0.001170
41 0.001155
42 0.001141
43 0.001120
44 0.001093
45 0.001071
46 0.001061
47 0.001056
48 0.001050
49 0.001040
50 0.001041
51 0.001042
52 0.001032
53 0.001021
54 0.001012
55 0.001005
56 0.001004
57 0.001008
58 0.001018
59 0.001036
60 0.001049
61 0.001059
62 0.001062
63 0.001065
64 0.001060
65 0.001055
66 0.001057
67 0.001051
68 0.001040
69 0.001039
70 0.001035
71 0.001019
72 0.000999
73 0.000988
74 0.000985
75 0.000983
76 0.000976
77 0.000968
78 0.000967
79 0.000975
80 0.000981
81 0.000988
82 0.001000
83 0.001007
84 0.001012
85 0.001020
86 0.001028
87 0.001038
88 0.001044
89 0.001042
90 0.001039
91 0.001024
92 0.001006
93 0.000991
94 0.000966
95 0.000949
96 0.000928
97 0.000902
98 0.000884
99 0.000871
100 0.000853
101 0.000844
102 0.000847
103 0.000858
104 0.000872
105 0.000882
106 0.000892
107 0.000905
108 0.000912
109 0.000915
110 0.000916
111 0.000913
112 0.000906
113 0.000890
114 0.000874
115 0.000849
116 0.000832
117 0.000820
118 0.000805
119 0.000784
120 0.000772
121 0.000773
122 0.000780
123 0.000784
124 0.000793
125 0.000810
126 0.000810
127 0.000807
128 0.000804
129 0.000814
130 0.000822
131 0.000823
132 0.000820
133 0.000814
134 0.000805
135 0.000795
136 0.000797
137 0.000796
138 0.000790
139 0.000778
140 0.000766
141 0.000759
142 0.000753
143 0.000749
144 0.000744
145 0.000745
146 0.000745
147 0.000738
148 0.000723
149 0.000708
150 0.000698
151 0.000697
152 0.000688
153 0.000677
154 0.000670
155 0.000662
156 0.000661
157 0.000659
158 0.000654
159 0.000646
160 0.000644
161 0.000633
162 0.000634
163 0.000626
164 0.000623
165 0.000619
166 0.000614
167 0.000605
168 0.000601
169 0.000595
170 0.000588
171 0.000580
172 0.000577
173 0.000579
174 0.000572
175 0.000571
176 0.000572
177 0.000574
178 0.000561
179 0.000546
180 0.000526
181 0.000505
182 0.000481
183 0.000467
184 0.000455
185 0.000444
186 0.000439
187 0.000433
188 0.000426
189 0.000426
190 0.000425
191 0.000437
192 0.000448
193 0.000459
194 0.000469
195 0.000466
196 0.000460
197 0.000459
198 0.000458
199 0.000456
200 0.000446
201 0.000441
202 0.000437
203 0.000438
204 0.000440
205 0.000439
206 0.000441
207 0.000436
208 0.000422
209 0.000409
210 0.000400
211 0.000399
212 0.000400
213 0.000407
214 0.000403
215 0.000403
216 0.000411
217 0.000420
218 0.000428
219 0.000442
220 0.000452
221 0.000460
222 0.000465
223 0.000467
224 0.000470
225 0.000472
226 0.000468
227 0.000464
228 0.000467
229 0.000468
230 0.000465
231 0.000455
232 0.000445
233 0.000438
234 0.000439
235 0.000445
236 0.000452
237 0.000449
238 0.000444
239 0.000434
240 0.000423
241 0.000407
242 0.000389
243 0.000374
244 0.000367
245 0.000363
246 0.000366
247 0.000369
248 0.000372
249 0.000371
250 0.000381
251 0.000384
252 0.000392
253 0.000397
254 0.000402
255 0.000413
256 0.000420
257 0.000419
258 0.000410
259 0.000402
260 0.000395
261 0.000398
262 0.000402
263 0.000408
264 0.000414
265 0.000416
266 0.000414
267 0.000419
268 0.000425
269 0.000427
270 0.000425
271 0.000418
272 0.000422
273 0.000422
274 0.000420
275 0.000416
276 0.000419
277 0.000422
278 0.000418
279 0.000417
280 0.000421
281 0.000428
282 0.000436
283 0.000441
284 0.000448
285 0.000448
286 0.000448
287 0.000449
288 0.000442
289 0.000443
290 0.000440
291 0.000439
292 0.000432
293 0.000425
294 0.000418
295 0.000414
296 0.000410
297 0.000411
298 0.000417
299 0.000420
300 0.000422
301 0.000431
302 0.000440
303 0.000447
304 0.000454
305 0.000459
306 0.000470
307 0.000482
308 0.000491
309 0.000501
310 0.000508
311 0.000507
312 0.000496
313 0.000487
314 0.000482
315 0.000483
316 0.000480
317 0.000465
318 0.000455
319 0.000441
320 0.000423
321 0.000410
322 0.000405
323 0.000409
324 0.000416
325 0.000409
326 0.000393
327 0.000381
328 0.000376
329 0.000369
330 0.000360
331 0.000358
332 0.000353
333 0.000347
334 0.000344
335 0.000343
336 0.000348
337 0.000363
338 0.000373
339 0.000385
340 0.000394
341 0.000395
342 0.000403
343 0.000414
344 0.000410
345 0.000397
346 0.000379
347 0.000359
348 0.000340
349 0.000326
350 0.000314
351 0.000305
352 0.000294
353 0.000287
354 0.000282
355 0.000276
356 0.000274
357 0.000273
358 0.000276
359 0.000276
360 0.000280
361 0.000284
362 0.000286
363 0.000285
364 0.000275
365 0.000268
366 0.000271
367 0.000277
368 0.000275
369 0.000278
370 0.000290
371 0.000297
372 0.000295
373 0.000296
374 0.000291
375 0.000286
376 0.000279
377 0.000274
378 0.000266
379 0.000262
380 0.000258
381 0.000256
382 0.000261
383 0.000261
384 0.000262
385 0.000268
386 0.000280
387 0.000283
388 0.000292
389 0.000300
390 0.000315
391 0.000322
392 0.000331
393 0.000339
394 0.000349
395 0.000352
396 0.000346
397 0.000347
398 0.000347
399 0.000340
400 0.000336
401 0.000327
402 0.000318
403 0.000313
404 0.000306
405 0.000298
406 0.000290
407 0.000285
408 0.000283
409 0.000284
410 0.000283
411 0.000286
412 0.000290
413 0.000297
414 0.000307
415 0.000310
416 0.000310
417 0.000309
418 0.000301
419 0.000295
420 0.000295
421 0.000297
422 0.000298
423 0.000303
424 0.000303
425 0.000300
426 0.000298
427 0.000313
428 0.000325
429 0.000339
430 0.000349
431 0.000350
432 0.000353
433 0.000351
434 0.000347
435 0.000343
436 0.000338
437 0.000330
438 0.000323
439 0.000312
440 0.000306
441 0.000306
442 0.000304
443 0.000294
444 0.000287
445 0.000287
446 0.000288
447 0.000288
448 0.000290
449 0.000300
450 0.000303
451 0.000297
452 0.000286
453 0.000283
454 0.000276
455 0.000271
456 0.000262
457 0.000252
458 0.000242
459 0.000231
460 0.000224
461 0.000219
462 0.000212
463 0.000206
464 0.000206
465 0.000204
466 0.000202
467 0.000198
468 0.000195
469 0.000194
470 0.000199
471 0.000198
472 0.000196
473 0.000196
474 0.000205
475 0.000221
476 0.000232
477 0.000239
478 0.000249
479 0.000256
480 0.000263
481 0.000267
482 0.000264
483 0.000260
484 0.000252
485 0.000246
486 0.000232
487 0.000221
488 0.000218
489 0.000210
490 0.000206
491 0.000202
492 0.000198
493 0.000197
494 0.000193
495 0.000193
496 0.000200
497 0.000208
498 0.000214
499 0.000225
500 0.000235
501 0.000242
502 0.000251
503 0.000256
504 0.000262
505 0.000266
506 0.000264
507 0.000263
508 0.000264
509 0.000263
510 0.000262
511 0.000261
512 0.000263
513 0.000261
514 0.000262
515 0.000263
516 0.000270
517 0.000275
518 0.000277
519 0.000276
520 0.000277
521 0.000273
522 0.000275
523 0.000275
524 0.000264
525 0.000251
526 0.000241
527 0.000231
528 0.000228
529 0.000229
530 0.000225
531 0.000227
532 0.000224
533 0.000223
534 0.000227
535 0.000230
536 0.000236
537 0.000249
538 0.000261
539 0.000276
540 0.000283
541 0.000284
542 0.000279
543 0.000280
544 0.000283
545 0.000286
546 0.000288
547 0.000284
548 0.000284
549 0.000287
550 0.000285
551 0.000273
552 0.000267
553 0.000262
554 0.000259
555 0.000246
556 0.000240
557 0.000229
558 0.000223
559 0.000224
560 0.000228
561 0.000236
562 0.000244
563 0.000252
564 0.000257
565 0.000262
566 0.000265
567 0.000269
568 0.000270
569 0.000268
570 0.000261
571 0.000262
572 0.000258
573 0.000260
574 0.000261
575 0.000258
576 0.000254
577 0.000250
578 0.000248
579 0.000250
580 0.000246
581 0.000241
582 0.000237
583 0.000235
584 0.000229
585 0.000216
586 0.000214
587 0.000218
588 0.000216
589 0.000218
590 0.000218
591 0.000222
592 0.000225
593 0.000224
594 0.000218
595 0.000211
596 0.000205
597 0.000197
598 0.000189
599 0.000186
600 0.000184
601 0.000187
602 0.000182
603 0.000171
604 0.000164
605 0.000160
606 0.000160
607 0.000161
608 0.000166
609 0.000170
610 0.000177
611 0.000183
612 0.000181
613 0.000180
614 0.000176
615 0.000173
616 0.000164
617 0.000151
618 0.000140
619 0.000133
620 0.000122
621 0.000112
622 0.000106
623 0.000102
624 0.000097
625 0.000089
626 0.000089
627 0.000094
628 0.000094
629 0.000090
630 0.000084
631 0.000075
632 0.000069
633 0.000069
634 0.000072
635 0.000074
636 0.000070
637 0.000061
638 0.000060
639 0.000063
640 0.000068
641 0.000076
642 0.000083
643 0.000094
644 0.000102
645 0.000108
646 0.000112
647 0.000120
648 0.000128
649 0.000130
650 0.000132
651 0.000133
652 0.000137
653 0.000143
654 0.000139
655 0.000128
656 0.000121
657 0.000112
658 0.000109
659 0.000105
660 0.000100
661 0.000099
662 0.000097
663 0.000094
664 0.000094
665 0.000095
666 0.000097
667 0.000100
668 0.000108
669 0.000111
670 0.000112
671 0.000112
672 0.000110
673 0.000110
674 0.000114
675 0.000122
676 0.000128
677 0.000134
678 0.000137
679 0.000142
680 0.000146
681 0.000147
682 0.000146
683 0.000142
684 0.000139
685 0.000137
686 0.000137
687 0.000127
688 0.000112
689 0.000097
690 0.000087
691 0.000081
692 0.000071
693 0.000064
694 0.000061
695 0.000053
696 0.000047
697 0.000045
698 0.000047
699 0.000047
700 0.000047
701 0.000059
702 0.000066
703 0.000075
704 0.000087
705 0.000099
706 0.000107
707 0.000116
708 0.000123
709 0.000128
710 0.000131
711 0.000129
712 0.000124
713 0.000114
714 0.000105
715 0.000093
716 0.000086
717 0.000078
718 0.000076
719 0.000072
720 0.000063
721 0.000053
722 0.000049
723 0.000046
724 0.000041
725 0.000040
726 0.000040
727 0.000042
728 0.000043
729 0.000050
730 0.000057
731 0.000066
732 0.000069
733 0.000078
734 0.000082
735 0.000084
736 0.000084
737 0.000086
738 0.000085
739 0.000084
740 0.000086
741 0.000085
742 0.000082
743 0.000079
744 0.000079
745 0.000078
746 0.000072
747 0.000065
748 0.000059
749 0.000046
750 0.000029
751 0.000019
752 0.000013
753 0.000006
754 -0.000005
755 -0.000013
756 -0.000013
757 -0.000011
758 -0.000012
759 -0.000017
760 -0.000015
761 -0.000016
762 -0.000024
763 -0.000034
764 -0.000038
765 -0.000043
766 -0.000045
767 -0.000044
768 -0.000041
769 -0.000039
770 -0.000035
771 -0.000030
772 -0.000023
773 -0.000013
774 -0.000008
775 -0.000007
776 -0.000010
777 -0.000011
778 -0.000016
779 -0.000022
780 -0.000026
781 -0.000027
782 -0.000031
783 -0.000033
784 -0.000030
785 -0.000022
786 -0.000012
787 -0.000003
788 0.000005
789 0.000014
790 0.000024
791 0.000029
792 0.000031
793 0.000037
794 0.000042
795 0.000047
796 0.000049
797 0.000048
798 0.000048
799 0.000050
800 0.000052
801 0.000049
802 0.000045
803 0.000045
804 0.000047
805 0.000050
806 0.000052
807 0.000055
808 0.000057
809 0.000057
