# i correlation
1 0.001685
2 0.001609
3 0.001539
4 0.001485
5 0.001428
6 0.001384
7 0.001343
8 0.001320
9 0.001300
10 0.001287
11 0.001275
12 0.001254
13 0.001237
14 0.001210
15 0.001185
16 0.001164
17 0.001142
18 0.001124
19 0.001112
20 0.001105
21 0.001097
22 0.001092
23 0.001079
24 0.001076
25 0.001077
26 0.001078
27 0.001082
28 0.001085
29 0.001092
30 0.001100
31 0.001106
32 0.001113
33 0.001125
34 0.001131
35 0.001133
36 0.001135
37 0.001149
38 0.001157
39 0.001154
40 0.001151
41 0.001150
42 0.001152
43 0.001150
44 0.001143
45 0.001128
46 0.001117
47 0.001105
48 0.001101
49 0.001101
50 0.001105
51 0.001101
52 0.001109
53 0.001114
54 0.001116
55 0.001112
56 0.001107
57 0.001095
58 0.001082
59 0.001069
60 0.001060
61 0.001047
62 0.001036
63 0.001033
64 0.001033
65 0.001033
66 0.001032
67 0.001026
68 0.001022
69 0.001024
70 0.001022
71 0.001018
72 0.001012
73 0.001001
74 0.001003
75 0.000995
76 0.000983
77 0.000978
78 0.000966
79 0.000956
80 0.000947
81 0.000935
82 0.000929
83 0.000924
84 0.000919
85 0.000912
86 0.000906
87 0.000909
88 0.000916
89 0.000915
90 0.000921
91 0.000933
92 0.000941
93 0.000941
94 0.000942
95 0.000932
96 0.000922
97 0.000917
98 0.000914
99 0.000909
100 0.000911
101 0.000912
102 0.000919
103 0.000926
104 0.000936
105 0.000943
106 0.000945
107 0.000948
108 0.000940
109 0.000942
110 0.000939
111 0.000932
112 0.000925
113 0.000926
114 0.000928
115 0.000928
116 0.000925
117 0.000918
118 0.000909
119 0.000892
120 0.000878
121 0.000861
122 0.000846
123 0.000835
124 0.000836
125 0.000833
126 0.000830
127 0.000835
128 0.000831
129 0.000827
130 0.000820
131 0.000812
132 0.000807
133 0.000802
134 0.000804
135 0.000801
136 0.000790
137 0.000789
138 0.000795
139 0.000796
140 0.000807
141 0.000807
142 0.000808
143 0.000810
144 0.000822
145 0.000830
146 0.000846
147 0.000858
148 0.000867
149 0.000874
150 0.000870
151 0.000875
152 0.000880
153 0.000883
154 0.000874
155 0.000868
156 0.000868
157 0.000876
158 0.000875
159 0.000882
160 0.000877
161 0.000868
162 0.000865
163 0.000855
164 0.000842
165 0.000826
166 0.000820
167 0.000806
168 0.000801
169 0.000789
170 0.000790
171 0.000794
172 0.000810
173 0.000810
174 0.000810
175 0.000803
176 0.000795
177 0.000795
178 0.000797
179 0.000792
180 0.000786
181 0.000782
182 0.000785
183 0.000790
184 0.000795
185 0.000797
186 0.000796
187 0.000798
188 0.000797
189 0.000795
190 0.000799
191 0.000793
192 0.000788
193 0.000781
194 0.000783
195 0.000779
196 0.000765
197 0.000756
198 0.000754
199 0.000753
200 0.000754
201 0.000762
202 0.000770
203 0.000775
204 0.000779
205 0.000782
206 0.000783
207 0.000785
208 0.000783
209 0.000790
210 0.000793
211 0.000791
212 0.000803
213 0.000812
214 0.000818
215 0.000823
216 0.000833
217 0.000828
218 0.000815
219 0.000802
220 0.000793
221 0.000783
222 0.000779
223 0.000777
224 0.000779
225 0.000775
226 0.000773
227 0.000773
228 0.000772
229 0.000761
230 0.000747
231 0.000731
232 0.000717
233 0.000701
234 0.000683
235 0.000657
236 0.000646
237 0.000642
238 0.000644
239 0.000638
240 0.000632
241 0.000631
242 0.000627
243 0.000634
244 0.000636
245 0.000634
246 0.000632
247 0.000632
248 0.000629
249 0.000627
250 0.000626
251 0.000632
252 0.000633
253 0.000639
254 0.000651
255 0.000649
256 0.000651
257 0.000649
258 0.000649
259 0.000646
260 0.000646
261 0.000642
262 0.000642
263 0.000644
264 0.000654
265 0.000660
266 0.000672
267 0.000670
268 0.000661
269 0.000652
270 0.000642
271 0.000639
272 0.000636
273 0.000626
274 0.000618
275 0.000613
276 0.000606
277 0.000602
278 0.000603
279 0.000600
280 0.000595
281 0.000592
282 0.000587
283 0.000582
284 0.000578
285 0.000574
286 0.000576
287 0.000569
288 0.000558
289 0.000549
290 0.000539
291 0.000537
292 0.000540
293 0.000542
294 0.000536
295 0.000529
296 0.000525
297 0.000521
298 0.000514
299 0.000508
300 0.000504
301 0.000505
302 0.000502
303 0.000498
304 0.000502
305 0.000493
306 0.000488
307 0.000483
308 0.000485
309 0.000479
310 0.000477
311 0.000471
312 0.000471
313 0.000464
314 0.000459
315 0.000460
316 0.000458
317 0.000461
318 0.000464
319 0.000468
320 0.000470
321 0.000475
322 0.000478
323 0.000475
324 0.000469
325 0.000462
326 0.000450
327 0.000439
328 0.000432
329 0.000435
330 0.000445
331 0.000446
332 0.000443
333 0.000445
334 0.000452
335 0.000452
336 0.000451
337 0.000453
338 0.000457
339 0.000454
340 0.000451
341 0.000455
342 0.000457
343 0.000462
344 0.000466
345 0.000462
346 0.000463
347 0.000463
348 0.000459
349 0.000453
350 0.000449
351 0.000435
352 0.000424
353 0.000409
354 0.000409
355 0.000412
356 0.000414
357 0.000415
358 0.000419
359 0.000419
360 0.000420
361 0.000417
362 0.000417
363 0.000421
364 0.000425
365 0.000424
366 0.000423
367 0.000424
368 0.000429
369 0.000424
370 0.000424
371 0.000424
372 0.000432
373 0.000435
374 0.000431
375 0.000436
376 0.000442
377 0.000443
378 0.000445
379 0.000446
380 0.000442
381 0.000438
382 0.000426
383 0.000411
384 0.000405
385 0.000400
386 0.000397
387 0.000395
388 0.000395
389 0.000398
390 0.000402
391 0.000400
392 0.000398
393 0.000390
394 0.000388
395 0.000384
396 0.000386
397 0.000384
398 0.000384
399 0.000386
400 0.000394
401 0.000397
402 0.000402
403 0.000397
404 0.000400
405 0.000400
406 0.000407
407 0.000415
408 0.000417
409 0.000423
410 0.000429
411 0.000436
412 0.000439
413 0.000445
414 0.000436
415 0.000426
416 0.000418
417 0.000413
418 0.000409
419 0.000410
420 0.000409
421 0.000412
422 0.000411
423 0.000414
424 0.000414
425 0.000411
426 0.000407
427 0.000401
428 0.000399
429 0.000401
430 0.000401
431 0.000409
432 0.000419
433 0.000425
434 0.000429
435 0.000431
436 0.000430
437 0.000432
438 0.000442
439 0.000447
440 0.000452
441 0.000453
442 0.000451
443 0.000444
444 0.000443
445 0.000438
446 0.000436
447 0.000424
448 0.000423
449 0.000417
450 0.000420
451 0.000418
452 0.000415
453 0.000412
454 0.000416
455 0.000414
456 0.000414
457 0.000414
458 0.000405
459 0.000396
460 0.000384
461 0.000379
462 0.000371
463 0.000368
464 0.000372
465 0.000374
466 0.000376
467 0.000376
468 0.000379
469 0.000383
470 0.000394
471 0.000396
472 0.000395
473 0.000394
474 0.000392
475 0.000384
476 0.000386
477 0.000379
478 0.000379
479 0.000379
480 0.000377
481 0.000384
482 0.000396
483 0.000406
484 0.000415
485 0.000411
486 0.000407
487 0.000404
488 0.000402
489 0.000395
490 0.000391
491 0.000389
492 0.000395
493 0.000398
494 0.000410
495 0.000418
496 0.000425
497 0.000424
498 0.000422
499 0.000418
500 0.000411
501 0.000402
502 0.000400
503 0.000398
504 0.000392
505 0.000388
506 0.000389
507 0.000395
508 0.000397
509 0.000398
510 0.000403
511 0.000412
512 0.000419
513 0.000422
514 0.000421
515 0.000417
516 0.000420
517 0.000419
518 0.000417
519 0.000413
520 0.000406
521 0.000401
522 0.000401
523 0.000402
524 0.000401
525 0.000400
526 0.000397
527 0.000398
528 0.000400
529 0.000402
530 0.000396
531 0.000393
532 0.000389
533 0.000377
534 0.000366
535 0.000356
536 0.000353
537 0.000350
538 0.000352
539 0.000350
540 0.000350
541 0.000345
542 0.000342
543 0.000333
544 0.000328
545 0.000325
546 0.000322
547 0.000324
548 0.000330
549 0.000338
550 0.000348
551 0.000354
552 0.000353
553 0.000359
554 0.000356
555 0.000353
556 0.000352
557 0.000351
558 0.000359
559 0.000361
560 0.000364
561 0.000367
562 0.000374
563 0.000381
564 0.000391
565 0.000394
566 0.000402
567 0.000401
568 0.000404
569 0.000403
570 0.000398
571 0.000397
572 0.000397
573 0.000396
574 0.000391
575 0.000388
576 0.000380
577 0.000368
578 0.000357
579 0.000351
580 0.000346
581 0.000344
582 0.000345
583 0.000348
584 0.000349
585 0.000350
586 0.000348
587 0.000346
588 0.000344
589 0.000338
590 0.000327
591 0.000320
592 0.000312
593 0.000309
594 0.000308
595 0.000312
596 0.000316
597 0.000322
598 0.000320
599 0.000317
600 0.000310
601 0.000309
602 0.000309
603 0.000314
604 0.000314
605 0.000316
606 0.000321
607 0.000323
608 0.000326
609 0.000327
610 0.000329
611 0.000334
612 0.000338
613 0.000341
614 0.000347
615 0.000351
616 0.000363
617 0.000361
618 0.000359
619 0.000355
620 0.000351
621 0.000345
622 0.000345
623 0.000346
624 0.000343
625 0.000339
626 0.000339
627 0.000340
628 0.000337
629 0.000337
630 0.000333
631 0.000323
632 0.000313
633 0.000307
634 0.000299
635 0.000296
636 0.000297
637 0.000290
638 0.000291
639 0.000290
640 0.000290
641 0.000291
642 0.000292
643 0.000293
644 0.000294
645 0.000294
646 0.000294
647 0.000295
648 0.000294
649 0.000293
650 0.000292
651 0.000298
652 0.000299
653 0.000301
654 0.000302
655 0.000303
656 0.000307
657 0.000306
658 0.000305
659 0.000300
660 0.000301
661 0.000299
662 0.000296
663 0.000294
664 0.000293
665 0.000294
666 0.000297
667 0.000296
668 0.000296
669 0.000293
670 0.000290
671 0.000286
672 0.000282
673 0.000281
674 0.000280
675 0.000279
676 0.000279
677 0.000280
678 0.000285
679 0.000285
680 0.000285
681 0.000281
682 0.000277
683 0.000267
684 0.000264
685 0.000265
686 0.000264
687 0.000263
688 0.000265
689 0.000265
690 0.000266
691 0.000263
692 0.000252
693 0.000242
694 0.000232
695 0.000226
696 0.000221
697 0.000224
698 0.000227
699 0.000230
700 0.000234
701 0.000238
702 0.000240
703 0.000236
704 0.000234
705 0.000227
706 0.000225
707 0.000223
708 0.000221
709 0.000217
710 0.000219
711 0.000215
712 0.000213
713 0.000208
714 0.000200
715 0.000192
716 0.000186
717 0.000186
718 0.000184
719 0.000182
720 0.000186
721 0.000195
722 0.000204
723 0.000214
724 0.000222
725 0.000227
726 0.000231
727 0.000232
728 0.000231
729 0.000227
730 0.000228
731 0.000228
732 0.000226
733 0.000220
734 0.000219
735 0.000217
736 0.000217
737 0.000213
738 0.000210
739 0.000203
740 0.000202
741 0.000196
742 0.000192
743 0.000192
744 0.000191
745 0.000190
746 0.000182
747 0.000172
748 0.000159
749 0.000151
750 0.000145
751 0.000140
752 0.000135
753 0.000132
754 0.000136
755 0.000140
756 0.000150
757 0.000157
758 0.000164
759 0.000168
760 0.000174
761 0.000176
762 0.000181
763 0.000185
764 0.000181
765 0.000179
766 0.000176
767 0.000177
768 0.000178
769 0.000181
770 0.000185
771 0.000189
772 0.000192
773 0.000195
774 0.000198
775 0.000202
776 0.000206
777 0.000208
778 0.000211
779 0.000215
780 0.000218
781 0.000216
782 0.000215
783 0.000209
784 0.000203
785 0.000197
786 0.000191
787 0.000185
788 0.000180
789 0.000175
790 0.000167
791 0.000159
792 0.000153
793 0.000147
794 0.000142
795 0.000145
796 0.000148
797 0.000149
798 0.000152
799 0.000150
800 0.000150
801 0.000150
802 0.000147
803 0.000141
804 0.000137
805 0.000133
806 0.000127
807 0.000119
808 0.000113
809 0.000110
