# i correlation
1 0.002026
2 0.001945
3 0.001881
4 0.001825
5 0.001771
6 0.001718
7 0.001674
8 0.001632
9 0.001595
10 0.001563
11 0.001533
12 0.001510
13 0.001484
14 0.001463
15 0.001447
16 0.001437
17 0.001422
18 0.001405
19 0.001393
20 0.001375
21 0.001352
22 0.001336
23 0.001332
24 0.001333
25 0.001333
26 0.001327
27 0.001321
28 0.001323
29 0.001323
30 0.001318
31 0.001311
32 0.001306
33 0.001312
34 0.001313
35 0.001316
36 0.001320
37 0.001318
38 0.001322
39 0.001324
40 0.001322
41 0.001315
42 0.001310
43 0.001298
44 0.001289
45 0.001282
46 0.001269
47 0.001260
48 0.001242
49 0.001228
50 0.001220
51 0.001214
52 0.001223
53 0.001217
54 0.001211
55 0.001202
56 0.001187
57 0.001166
58 0.001155
59 0.001148
60 0.001138
61 0.001132
62 0.001128
63 0.001119
64 0.001116
65 0.001117
66 0.001115
67 0.001115
68 0.001120
69 0.001123
70 0.001120
71 0.001122
72 0.001124
73 0.001118
74 0.001103
75 0.001092
76 0.001084
77 0.001079
78 0.001075
79 0.001078
80 0.001080
81 0.001079
82 0.001068
83 0.001073
84 0.001068
85 0.001067
86 0.001063
87 0.001064
88 0.001066
89 0.001068
90 0.001057
91 0.001050
92 0.001046
93 0.001040
94 0.001036
95 0.001030
96 0.001023
97 0.001024
98 0.001019
99 0.001021
100 0.001014
101 0.001009
102 0.000999
103 0.000987
104 0.000993
105 0.001002
106 0.001002
107 0.000999
108 0.001003
109 0.001012
110 0.001015
111 0.001014
112 0.001021
113 0.001027
114 0.001041
115 0.001049
116 0.001057
117 0.001058
118 0.001056
119 0.001062
120 0.001065
121 0.001071
122 0.001074
123 0.001075
124 0.001077
125 0.001079
126 0.001073
127 0.001069
128 0.001068
129 0.001056
130 0.001052
131 0.001050
132 0.001042
133 0.001034
134 0.001027
135 0.001014
136 0.000993
137 0.000979
138 0.000969
139 0.000965
140 0.000958
141 0.000957
142 0.000957
143 0.000951
144 0.000952
145 0.000949
146 0.000942
147 0.000941
148 0.000944
149 0.000949
150 0.000952
151 0.000949
152 0.000944
153 0.000938
154 0.000928
155 0.000910
156 0.000911
157 0.000909
158 0.000906
159 0.000909
160 0.000910
161 0.000918
162 0.000919
163 0.000913
164 0.000914
165 0.000912
166 0.000915
167 0.000918
168 0.000923
169 0.000929
170 0.000925
171 0.000913
172 0.000907
173 0.000900
174 0.000886
175 0.000877
176 0.000871
177 0.000866
178 0.000854
179 0.000835
180 0.000829
181 0.000827
182 0.000815
183 0.000803
184 0.000803
185 0.000807
186 0.000815
187 0.000819
188 0.000825
189 0.000824
190 0.000818
191 0.000804
192 0.000796
193 0.000798
194 0.000805
195 0.000807
196 0.000809
197 0.000802
198 0.000787
199 0.000779
200 0.000778
201 0.000771
202 0.000769
203 0.000770
204 0.000775
205 0.000776
206 0.000772
207 0.000767
208 0.000764
209 0.000760
210 0.000759
211 0.000762
212 0.000758
213 0.000764
214 0.000779
215 0.000792
216 0.000797
217 0.000797
218 0.000798
219 0.000805
220 0.000823
221 0.000829
222 0.000825
223 0.000827
224 0.000827
225 0.000818
226 0.000804
227 0.000794
228 0.000780
229 0.000769
230 0.000760
231 0.000756
232 0.000753
233 0.000755
234 0.000749
235 0.000741
236 0.000732
237 0.000721
238 0.000722
239 0.000731
240 0.000729
241 0.000727
242 0.000724
243 0.000724
244 0.000720
245 0.000712
246 0.000704
247 0.000698
248 0.000693
249 0.000699
250 0.000702
251 0.000705
252 0.000706
253 0.000712
254 0.000717
255 0.000721
256 0.000731
257 0.000732
258 0.000737
259 0.000736
260 0.000730
261 0.000732
262 0.000724
263 0.000718
264 0.000709
265 0.000703
266 0.000700
267 0.000698
268 0.000697
269 0.000698
270 0.000687
271 0.000678
272 0.000666
273 0.000666
274 0.000665
275 0.000665
276 0.000668
277 0.000671
278 0.000666
279 0.000661
280 0.000655
281 0.000648
282 0.000637
283 0.000625
284 0.000610
285 0.000605
286 0.000608
287 0.000612
288 0.000609
289 0.000605
290 0.000593
291 0.000584
292 0.000570
293 0.000567
294 0.000562
295 0.000551
296 0.000540
297 0.000526
298 0.000513
299 0.000501
300 0.000486
301 0.000480
302 0.000468
303 0.000465
304 0.000461
305 0.000455
306 0.000454
307 0.000447
308 0.000452
309 0.000457
310 0.000457
311 0.000459
312 0.000466
313 0.000473
314 0.000479
315 0.000493
316 0.000499
317 0.000501
318 0.000505
319 0.000505
320 0.000512
321 0.000514
322 0.000519
323 0.000518
324 0.000515
325 0.000512
326 0.000508
327 0.000506
328 0.000506
329 0.000507
330 0.000506
331 0.000498
332 0.000500
333 0.000498
334 0.000497
335 0.000499
336 0.000502
337 0.000516
338 0.000532
339 0.000545
340 0.000553
341 0.000558
342 0.000568
343 0.000574
344 0.000578
345 0.000581
346 0.000583
347 0.000579
348 0.000575
349 0.000564
350 0.000560
351 0.000552
352 0.000545
353 0.000545
354 0.000546
355 0.000549
356 0.000550
357 0.000550
358 0.000555
359 0.000555
360 0.000555
361 0.000561
362 0.000565
363 0.000571
364 0.000564
365 0.000560
366 0.000560
367 0.000554
368 0.000545
369 0.000538
370 0.000533
371 0.000527
372 0.000529
373 0.000530
374 0.000535
375 0.000536
376 0.000542
377 0.000550
378 0.000552
379 0.000549
380 0.000556
381 0.000564
382 0.000573
383 0.000580
384 0.000590
385 0.000595
386 0.000597
387 0.000597
388 0.000602
389 0.000600
390 0.000603
391 0.000600
392 0.000606
393 0.000607
394 0.000598
395 0.000593
396 0.000583
397 0.000567
398 0.000550
399 0.000537
400 0.000532
401 0.000532
402 0.000530
403 0.000529
404 0.000524
405 0.000524
406 0.000508
407 0.000489
408 0.000486
409 0.000479
410 0.000480
411 0.000476
412 0.000465
413 0.000455
414 0.000450
415 0.000447
416 0.000436
417 0.000424
418 0.000413
419 0.000413
420 0.000416
421 0.000415
422 0.000407
423 0.000390
424 0.000378
425 0.000369
426 0.000360
427 0.000355
428 0.000355
429 0.000352
430 0.000349
431 0.000345
432 0.000336
433 0.000331
434 0.000334
435 0.000342
436 0.000347
437 0.000353
438 0.000362
439 0.000374
440 0.000384
441 0.000388
442 0.000389
443 0.000391
444 0.000398
445 0.000398
446 0.000397
447 0.000397
448 0.000393
449 0.000389
450 0.000385
451 0.000381
452 0.000375
453 0.000373
454 0.000370
455 0.000374
456 0.000376
457 0.000376
458 0.000378
459 0.000378
460 0.000383
461 0.000382
462 0.000380
463 0.000386
464 0.000383
465 0.000384
466 0.000380
467 0.000377
468 0.000371
469 0.000367
470 0.000362
471 0.000359
472 0.000357
473 0.000364
474 0.000376
475 0.000385
476 0.000391
477 0.000393
478 0.000391
479 0.000383
480 0.000378
481 0.000375
482 0.000379
483 0.000383
484 0.000387
485 0.000390
486 0.000387
487 0.000383
488 0.000385
489 0.000393
490 0.000395
491 0.000401
492 0.000401
493 0.000403
494 0.000410
495 0.000404
496 0.000397
497 0.000393
498 0.000389
499 0.000374
500 0.000365
501 0.000357
502 0.000356
503 0.000355
504 0.000352
505 0.000352
506 0.000344
507 0.000350
508 0.000360
509 0.000369
510 0.000378
511 0.000377
512 0.000379
513 0.000379
514 0.000381
515 0.000383
516 0.000374
517 0.000363
518 0.000356
519 0.000351
520 0.000348
521 0.000339
522 0.000336
523 0.000324
524 0.000319
525 0.000312
526 0.000306
527 0.000302
528 0.000300
529 0.000299
530 0.000307
531 0.000305
532 0.000306
533 0.000305
534 0.000309
535 0.000314
536 0.000321
537 0.000321
538 0.000322
539 0.000319
540 0.000312
541 0.000308
542 0.000305
543 0.000305
544 0.000309
545 0.000309
546 0.000309
547 0.000312
548 0.000315
549 0.000321
550 0.000330
551 0.000331
552 0.000334
553 0.000340
554 0.000348
555 0.000351
556 0.000344
557 0.000337
558 0.000332
559 0.000329
560 0.000322
561 0.000319
562 0.000323
563 0.000323
564 0.000324
565 0.000320
566 0.000319
567 0.000316
568 0.000311
569 0.000309
570 0.000310
571 0.000308
572 0.000302
573 0.000299
574 0.000300
575 0.000292
576 0.000290
577 0.000292
578 0.000296
579 0.000296
580 0.000295
581 0.000301
582 0.000306
583 0.000316
584 0.000317
585 0.000313
586 0.000309
587 0.000306
588 0.000307
589 0.000306
590 0.000306
591 0.000304
592 0.000301
593 0.000299
594 0.000296
595 0.000297
596 0.000293
597 0.000292
598 0.000295
599 0.000300
600 0.000298
601 0.000297
602 0.000297
603 0.000298
604 0.000300
605 0.000305
606 0.000308
607 0.000311
608 0.000309
609 0.000306
610 0.000301
611 0.000298
612 0.000292
613 0.000290
614 0.000289
615 0.000293
616 0.000300
617 0.000305
618 0.000305
619 0.000315
620 0.000317
621 0.000319
622 0.000319
623 0.000324
624 0.000335
625 0.000341
626 0.000347
627 0.000345
628 0.000341
629 0.000342
630 0.000338
631 0.000335
632 0.000332
633 0.000327
634 0.000323
635 0.000319
636 0.000312
637 0.000302
638 0.000299
639 0.000295
640 0.000286
641 0.000283
642 0.000279
643 0.000272
644 0.000264
645 0.000254
646 0.000244
647 0.000231
648 0.000215
649 0.000203
650 0.000192
651 0.000183
652 0.000178
653 0.000176
654 0.000176
655 0.000180
656 0.000175
657 0.000180
658 0.000186
659 0.000198
660 0.000208
661 0.000218
662 0.000224
663 0.000229
664 0.000239
665 0.000237
666 0.000244
667 0.000248
668 0.000248
669 0.000249
670 0.000250
671 0.000263
672 0.000266
673 0.000260
674 0.000248
675 0.000240
676 0.000230
677 0.000215
678 0.000212
679 0.000209
680 0.000202
681 0.000197
682 0.000197
683 0.000197
684 0.000193
685 0.000182
686 0.000165
687 0.000148
688 0.000133
689 0.000119
690 0.000106
691 0.000098
692 0.000090
693 0.000081
694 0.000080
695 0.000080
696 0.000085
697 0.000093
698 0.000102
699 0.000114
700 0.000121
701 0.000127
702 0.000133
703 0.000137
704 0.000146
705 0.000151
706 0.000153
707 0.000158
708 0.000166
709 0.000172
710 0.000169
711 0.000172
712 0.000176
713 0.000178
714 0.000177
715 0.000172
716 0.000167
717 0.000163
718 0.000165
719 0.000164
720 0.000163
721 0.000162
722 0.000159
723 0.000162
724 0.000160
725 0.000162
726 0.000157
727 0.000151
728 0.000145
729 0.000136
730 0.000135
731 0.000132
732 0.000132
733 0.000132
734 0.000133
735 0.000134
736 0.000136
737 0.000137
738 0.000142
739 0.000142
740 0.000147
741 0.000143
742 0.000137
743 0.000142
744 0.000146
745 0.000139
746 0.000133
747 0.000136
748 0.000140
749 0.000145
750 0.000150
751 0.000159
752 0.000164
753 0.000164
754 0.000165
755 0.000164
756 0.000166
757 0.000163
758 0.000158
759 0.000151
760 0.000146
761 0.000137
762 0.000127
763 0.000124
764 0.000122
765 0.000118
766 0.000116
767 0.000113
768 0.000108
769 0.000106
770 0.000101
771 0.000098
772 0.000094
773 0.000095
774 0.000094
775 0.000091
776 0.000097
777 0.000103
778 0.000108
779 0.000113
780 0.000120
781 0.000121
782 0.000121
783 0.000126
784 0.000124
785 0.000127
786 0.000126
787 0.000126
788 0.000127
789 0.000126
790 0.000127
791 0.000130
792 0.000136
793 0.000138
794 0.000137
795 0.000133
796 0.000127
797 0.000124
798 0.000117
799 0.000111
800 0.000103
801 0.000097
802 0.000091
803 0.000094
804 0.000091
805 0.000091
806 0.000094
807 0.000094
808 0.000094
809 0.000091
