# i correlation
1 0.001842
2 0.001759
3 0.001684
4 0.001615
5 0.001556
6 0.001506
7 0.001463
8 0.001419
9 0.001384
10 0.001347
11 0.001312
12 0.001279
13 0.001251
14 0.001237
15 0.001224
16 0.001211
17 0.001203
18 0.001195
19 0.001178
20 0.001165
21 0.001150
22 0.001138
23 0.001128
24 0.001133
25 0.001129
26 0.001133
27 0.001122
28 0.001107
29 0.001098
30 0.001094
31 0.001092
32 0.001096
33 0.001107
34 0.001094
35 0.001082
36 0.001068
37 0.001057
38 0.001049
39 0.001035
40 0.001026
41 0.001015
42 0.001009
43 0.001009
44 0.001005
45 0.000995
46 0.000990
47 0.000981
48 0.000974
49 0.000971
50 0.000971
51 0.000974
52 0.000979
53 0.000980
54 0.000975
55 0.000973
56 0.000970
57 0.000969
58 0.000956
59 0.000947
60 0.000935
61 0.000926
62 0.000922
63 0.000910
64 0.000911
65 0.000903
66 0.000897
67 0.000888
68 0.000873
69 0.000861
70 0.000841
71 0.000831
72 0.000815
73 0.000806
74 0.000803
75 0.000805
76 0.000814
77 0.000807
78 0.000790
79 0.000774
80 0.000760
81 0.000744
82 0.000732
83 0.000717
84 0.000713
85 0.000700
86 0.000687
87 0.000667
88 0.000659
89 0.000651
90 0.000644
91 0.000645
92 0.000645
93 0.000644
94 0.000650
95 0.000649
96 0.000639
97 0.000633
98 0.000620
99 0.000607
100 0.000592
101 0.000578
102 0.000569
103 0.000551
104 0.000540
105 0.000530
106 0.000523
107 0.000523
108 0.000529
109 0.000538
110 0.000548
111 0.000555
112 0.000554
113 0.000548
114 0.000544
115 0.000543
116 0.000550
117 0.000555
118 0.000561
119 0.000566
120 0.000567
121 0.000574
122 0.000572
123 0.000576
124 0.000575
125 0.000571
126 0.000571
127 0.000570
128 0.000571
129 0.000568
130 0.000560
131 0.000555
132 0.000551
133 0.000537
134 0.000527
135 0.000521
136 0.000513
137 0.000506
138 0.000503
139 0.000495
140 0.000499
141 0.000507
142 0.000508
143 0.000518
144 0.000524
145 0.000522
146 0.000524
147 0.000516
148 0.000506
149 0.000504
150 0.000511
151 0.000516
152 0.000515
153 0.000517
154 0.000523
155 0.000532
156 0.000534
157 0.000539
158 0.000552
159 0.000557
160 0.000558
161 0.000558
162 0.000558
163 0.000549
164 0.000542
165 0.000532
166 0.000514
167 0.000502
168 0.000494
169 0.000489
170 0.000489
171 0.000488
172 0.000488
173 0.000497
174 0.000502
175 0.000514
176 0.000538
177 0.000546
178 0.000550
179 0.000554
180 0.000552
181 0.000546
182 0.000543
183 0.000537
184 0.000539
185 0.000539
186 0.000540
187 0.000544
188 0.000545
189 0.000536
190 0.000537
191 0.000538
192 0.000535
193 0.000528
194 0.000533
195 0.000541
196 0.000546
197 0.000553
198 0.000548
199 0.000538
200 0.000533
201 0.000523
202 0.000517
203 0.000508
204 0.000494
205 0.000492
206 0.000484
207 0.000481
208 0.000478
209 0.000476
210 0.000472
211 0.000468
212 0.000470
213 0.000460
214 0.000452
215 0.000450
216 0.000451
217 0.000450
218 0.000448
219 0.000443
220 0.000439
221 0.000435
222 0.000430
223 0.000418
224 0.000403
225 0.000396
226 0.000386
227 0.000377
228 0.000364
229 0.000356
230 0.000345
231 0.000331
232 0.000324
233 0.000327
234 0.000338
235 0.000348
236 0.000357
237 0.000363
238 0.000376
239 0.000392
240 0.000406
241 0.000411
242 0.000420
243 0.000424
244 0.000427
245 0.000424
246 0.000414
247 0.000406
248 0.000406
249 0.000403
250 0.000394
251 0.000387
252 0.000392
253 0.000397
254 0.000397
255 0.000389
256 0.000380
257 0.000367
258 0.000354
259 0.000347
260 0.000346
261 0.000341
262 0.000339
263 0.000329
264 0.000322
265 0.000313
266 0.000317
267 0.000328
268 0.000334
269 0.000342
270 0.000347
271 0.000353
272 0.000364
273 0.000377
274 0.000387
275 0.000381
276 0.000375
277 0.000368
278 0.000370
279 0.000369
280 0.000367
281 0.000372
282 0.000373
283 0.000365
284 0.000357
285 0.000358
286 0.000369
287 0.000379
288 0.000379
289 0.000377
290 0.000367
291 0.000359
292 0.000360
293 0.000358
294 0.000355
295 0.000355
296 0.000354
297 0.000350
298 0.000344
299 0.000339
300 0.000335
301 0.000336
302 0.000346
303 0.000349
304 0.000356
305 0.000370
306 0.000379
307 0.000383
308 0.000375
309 0.000369
310 0.000369
311 0.000375
312 0.000381
313 0.000393
314 0.000398
315 0.000401
316 0.000411
317 0.000418
318 0.000429
319 0.000444
320 0.000456
321 0.000457
322 0.000459
323 0.000449
324 0.000441
325 0.000431
326 0.000421
327 0.000410
328 0.000404
329 0.000405
330 0.000407
331 0.000405
332 0.000403
333 0.000401
334 0.000405
335 0.000409
336 0.000412
337 0.000418
338 0.000430
339 0.000424
340 0.000421
341 0.000412
342 0.000401
343 0.000405
344 0.000405
345 0.000406
346 0.000402
347 0.000394
348 0.000388
349 0.000383
350 0.000375
351 0.000377
352 0.000384
353 0.000393
354 0.000400
355 0.000411
356 0.000413
357 0.000417
358 0.000424
359 0.000425
360 0.000428
361 0.000430
362 0.000438
363 0.000448
364 0.000458
365 0.000462
366 0.000468
367 0.000467
368 0.000470
369 0.000467
370 0.000463
371 0.000459
372 0.000457
373 0.000459
374 0.000447
375 0.000440
376 0.000441
377 0.000438
378 0.000439
379 0.000431
380 0.000421
381 0.000418
382 0.000415
383 0.000412
384 0.000416
385 0.000417
386 0.000416
387 0.000411
388 0.000405
389 0.000409
390 0.000410
391 0.000411
392 0.000406
393 0.000402
394 0.000399
395 0.000394
396 0.000393
397 0.000394
398 0.000391
399 0.000389
400 0.000383
401 0.000376
402 0.000376
403 0.000374
404 0.000366
405 0.000358
406 0.000346
407 0.000338
408 0.000319
409 0.000301
410 0.000289
411 0.000278
412 0.000274
413 0.000275
414 0.000273
415 0.000274
416 0.000277
417 0.000280
418 0.000283
419 0.000286
420 0.000279
421 0.000272
422 0.000266
423 0.000261
424 0.000257
425 0.000249
426 0.000234
427 0.000221
428 0.000211
429 0.000210
430 0.000211
431 0.000208
432 0.000206
433 0.000205
434 0.000195
435 0.000190
436 0.000182
437 0.000181
438 0.000174
439 0.000173
440 0.000173
441 0.000162
442 0.000153
443 0.000145
444 0.000133
445 0.000126
446 0.000114
447 0.000106
448 0.000104
449 0.000102
450 0.000101
451 0.000101
452 0.000096
453 0.000095
454 0.000099
455 0.000099
456 0.000099
457 0.000110
458 0.000111
459 0.000108
460 0.000108
461 0.000104
462 0.000100
463 0.000095
464 0.000087
465 0.000081
466 0.000078
467 0.000071
468 0.000060
469 0.000059
470 0.000061
471 0.000059
472 0.000062
473 0.000067
474 0.000073
475 0.000078
476 0.000075
477 0.000073
478 0.000078
479 0.000081
480 0.000081
481 0.000087
482 0.000091
483 0.000105
484 0.000121
485 0.000125
486 0.000128
487 0.000136
488 0.000137
489 0.000140
490 0.000143
491 0.000144
492 0.000150
493 0.000154
494 0.000156
495 0.000159
496 0.000159
497 0.000162
498 0.000159
499 0.000157
500 0.000151
501 0.000146
502 0.000139
503 0.000129
504 0.000118
505 0.000101
506 0.000089
507 0.000085
508 0.000078
509 0.000075
510 0.000072
511 0.000068
512 0.000067
513 0.000071
514 0.000076
515 0.000072
516 0.000072
517 0.000077
518 0.000075
519 0.000077
520 0.000074
521 0.000079
522 0.000082
523 0.000088
524 0.000095
525 0.000096
526 0.000098
527 0.000101
528 0.000111
529 0.000112
530 0.000117
531 0.000129
532 0.000124
533 0.000122
534 0.000123
535 0.000126
536 0.000125
537 0.000120
538 0.000111
539 0.000107
540 0.000106
541 0.000107
542 0.000108
543 0.000109
544 0.000101
545 0.000096
546 0.000097
547 0.000098
548 0.000106
549 0.000116
550 0.000127
551 0.000129
552 0.000135
553 0.000137
554 0.000146
555 0.000156
556 0.000167
557 0.000179
558 0.000188
559 0.000199
560 0.000208
561 0.000219
562 0.000213
563 0.000211
564 0.000211
565 0.000203
566 0.000192
567 0.000181
568 0.000172
569 0.000163
570 0.000153
571 0.000142
572 0.000135
573 0.000131
574 0.000132
575 0.000129
576 0.000129
577 0.000126
578 0.000131
579 0.000134
580 0.000139
581 0.000151
582 0.000154
583 0.000160
584 0.000158
585 0.000152
586 0.000142
587 0.000129
588 0.000119
589 0.000110
590 0.000100
591 0.000092
592 0.000087
593 0.000080
594 0.000075
595 0.000065
596 0.000052
597 0.000046
598 0.000044
599 0.000043
600 0.000046
601 0.000051
602 0.000053
603 0.000056
604 0.000063
605 0.000070
606 0.000073
607 0.000082
608 0.000084
609 0.000083
610 0.000085
611 0.000082
612 0.000078
613 0.000074
614 0.000069
615 0.000071
616 0.000076
617 0.000086
618 0.000091
619 0.000097
620 0.000096
621 0.000092
622 0.000088
623 0.000083
624 0.000088
625 0.000099
626 0.000104
627 0.000107
628 0.000106
629 0.000105
630 0.000108
631 0.000104
632 0.000104
633 0.000108
634 0.000114
635 0.000120
636 0.000125
637 0.000129
638 0.000131
639 0.000131
640 0.000128
641 0.000123
642 0.000115
643 0.000106
644 0.000096
645 0.000095
646 0.000091
647 0.000089
648 0.000083
649 0.000076
650 0.000073
651 0.000070
652 0.000066
653 0.000056
654 0.000050
655 0.000042
656 0.000040
657 0.000041
658 0.000043
659 0.000040
660 0.000041
661 0.000034
662 0.000026
663 0.000023
664 0.000017
665 0.000013
666 0.000008
667 0.000006
668 0.000001
669 0.000001
670 -0.000000
671 0.000004
672 0.000012
673 0.000020
674 0.000030
675 0.000040
676 0.000049
677 0.000056
678 0.000066
679 0.000076
680 0.000080
681 0.000088
682 0.000099
683 0.000111
684 0.000116
685 0.000119
686 0.000120
687 0.000116
688 0.000107
689 0.000099
690 0.000095
691 0.000097
692 0.000099
693 0.000104
694 0.000103
695 0.000100
696 0.000098
697 0.000093
698 0.000088
699 0.000083
700 0.000080
701 0.000078
702 0.000079
703 0.000075
704 0.000072
705 0.000068
706 0.000063
707 0.000062
708 0.000060
709 0.000062
710 0.000064
711 0.000068
712 0.000073
713 0.000074
714 0.000071
715 0.000065
716 0.000059
717 0.000051
718 0.000046
719 0.000049
720 0.000046
721 0.000044
722 0.000046
723 0.000041
724 0.000038
725 0.000030
726 0.000030
727 0.000028
728 0.000028
729 0.000028
730 0.000024
731 0.000027
732 0.000030
733 0.000034
734 0.000037
735 0.000041
736 0.000057
737 0.000073
738 0.000088
739 0.000097
740 0.000107
741 0.000109
742 0.000110
743 0.000115
744 0.000117
745 0.000116
746 0.000117
747 0.000120
748 0.000125
749 0.000125
750 0.000120
751 0.000119
752 0.000118
753 0.000117
754 0.000113
755 0.000114
756 0.000114
757 0.000119
758 0.000122
759 0.000128
760 0.000131
761 0.000131
762 0.000132
763 0.000128
764 0.000130
765 0.000130
766 0.000126
767 0.000119
768 0.000110
769 0.000104
770 0.000100
771 0.000095
772 0.000086
773 0.000083
774 0.000079
775 0.000080
776 0.000083
777 0.000086
778 0.000085
779 0.000088
780 0.000091
781 0.000094
782 0.000089
783 0.000089
784 0.000084
785 0.000078
786 0.000078
787 0.000075
788 0.000077
789 0.000075
790 0.000078
791 0.000084
792 0.000089
793 0.000094
794 0.000098
795 0.000106
796 0.000107
797 0.000117
798 0.000121
799 0.000121
800 0.000119
801 0.000122
802 0.000123
803 0.000127
804 0.000129
805 0.000130
806 0.000128
807 0.000128
808 0.000129
809 0.000131
