# i correlation
1 0.001834
2 0.001755
3 0.001693
4 0.001631
5 0.001589
6 0.001556
7 0.001533
8 0.001517
9 0.001511
10 0.001506
11 0.001488
12 0.001473
13 0.001450
14 0.001422
15 0.001405
16 0.001391
17 0.001377
18 0.001359
19 0.001347
20 0.001346
21 0.001338
22 0.001328
23 0.001329
24 0.001327
25 0.001336
26 0.001338
27 0.001331
28 0.001322
29 0.001306
30 0.001286
31 0.001272
32 0.001264
33 0.001261
34 0.001261
35 0.001255
36 0.001260
37 0.001269
38 0.001273
39 0.001266
40 0.001260
41 0.001253
42 0.001254
43 0.001256
44 0.001255
45 0.001262
46 0.001265
47 0.001262
48 0.001255
49 0.001239
50 0.001227
51 0.001213
52 0.001202
53 0.001191
54 0.001179
55 0.001162
56 0.001152
57 0.001147
58 0.001140
59 0.001128
60 0.001125
61 0.001117
62 0.001109
63 0.001107
64 0.001094
65 0.001084
66 0.001076
67 0.001066
68 0.001066
69 0.001061
70 0.001053
71 0.001043
72 0.001036
73 0.001033
74 0.001016
75 0.001009
76 0.001005
77 0.001008
78 0.001011
79 0.001009
80 0.001005
81 0.001000
82 0.000995
83 0.000981
84 0.000975
85 0.000979
86 0.000979
87 0.000988
88 0.001002
89 0.001021
90 0.001026
91 0.001027
92 0.001021
93 0.001011
94 0.001000
95 0.000991
96 0.000983
97 0.000977
98 0.000978
99 0.000972
100 0.000963
101 0.000959
102 0.000953
103 0.000949
104 0.000946
105 0.000950
106 0.000947
107 0.000940
108 0.000921
109 0.000906
110 0.000895
111 0.000880
112 0.000870
113 0.000867
114 0.000869
115 0.000878
116 0.000875
117 0.000873
118 0.000873
119 0.000864
120 0.000853
121 0.000842
122 0.000830
123 0.000823
124 0.000821
125 0.000827
126 0.000831
127 0.000843
128 0.000852
129 0.000854
130 0.000857
131 0.000858
132 0.000857
133 0.000861
134 0.000871
135 0.000882
136 0.000893
137 0.000905
138 0.000910
139 0.000914
140 0.000915
141 0.000914
142 0.000917
143 0.000923
144 0.000922
145 0.000924
146 0.000916
147 0.000911
148 0.000905
149 0.000896
150 0.000887
151 0.000870
152 0.000858
153 0.000846
154 0.000830
155 0.000815
156 0.000795
157 0.000779
158 0.000772
159 0.000766
160 0.000758
161 0.000759
162 0.000768
163 0.000778
164 0.000779
165 0.000774
166 0.000770
167 0.000765
168 0.000763
169 0.000757
170 0.000756
171 0.000757
172 0.000755
173 0.000762
174 0.000765
175 0.000774
176 0.000787
177 0.000792
178 0.000801
179 0.000801
180 0.000796
181 0.000800
182 0.000804
183 0.000813
184 0.000820
185 0.000820
186 0.000821
187 0.000830
188 0.000829
189 0.000822
190 0.000823
191 0.000822
192 0.000818
193 0.000816
194 0.000808
195 0.000805
196 0.000811
197 0.000814
198 0.000814
199 0.000808
200 0.000803
201 0.000793
202 0.000787
203 0.000786
204 0.000781
205 0.000774
206 0.000768
207 0.000760
208 0.000754
209 0.000749
210 0.000743
211 0.000738
212 0.000736
213 0.000735
214 0.000730
215 0.000724
216 0.000725
217 0.000716
218 0.000713
219 0.000715
220 0.000717
221 0.000728
222 0.000735
223 0.000748
224 0.000760
225 0.000767
226 0.000774
227 0.000772
228 0.000777
229 0.000784
230 0.000792
231 0.000799
232 0.000802
233 0.000805
234 0.000815
235 0.000818
236 0.000821
237 0.000818
238 0.000817
239 0.000817
240 0.000811
241 0.000813
242 0.000806
243 0.000799
244 0.000804
245 0.000795
246 0.000788
247 0.000780
248 0.000772
249 0.000769
250 0.000768
251 0.000772
252 0.000775
253 0.000770
254 0.000764
255 0.000751
256 0.000741
257 0.000731
258 0.000711
259 0.000693
260 0.000683
261 0.000677
262 0.000671
263 0.000657
264 0.000646
265 0.000641
266 0.000640
267 0.000639
268 0.000643
269 0.000649
270 0.000652
271 0.000656
272 0.000662
273 0.000664
274 0.000658
275 0.000657
276 0.000659
277 0.000667
278 0.000670
279 0.000674
280 0.000680
281 0.000689
282 0.000698
283 0.000694
284 0.000682
285 0.000667
286 0.000649
287 0.000623
288 0.000609
289 0.000604
290 0.000598
291 0.000599
292 0.000598
293 0.000592
294 0.000579
295 0.000567
296 0.000556
297 0.000544
298 0.000541
299 0.000541
300 0.000533
301 0.000534
302 0.000538
303 0.000534
304 0.000527
305 0.000527
306 0.000526
307 0.000522
308 0.000520
309 0.000511
310 0.000510
311 0.000511
312 0.000511
313 0.000503
314 0.000504
315 0.000504
316 0.000499
317 0.000509
318 0.000516
319 0.000521
320 0.000527
321 0.000534
322 0.000544
323 0.000551
324 0.000553
325 0.000551
326 0.000559
327 0.000561
328 0.000558
329 0.000562
330 0.000561
331 0.000564
332 0.000562
333 0.000563
334 0.000563
335 0.000565
336 0.000565
337 0.000558
338 0.000556
339 0.000563
340 0.000564
341 0.000562
342 0.000562
343 0.000561
344 0.000557
345 0.000557
346 0.000564
347 0.000559
348 0.000560
349 0.000568
350 0.000573
351 0.000574
352 0.000568
353 0.000555
354 0.000545
355 0.000528
356 0.000514
357 0.000498
358 0.000489
359 0.000489
360 0.000490
361 0.000492
362 0.000497
363 0.000503
364 0.000509
365 0.000510
366 0.000515
367 0.000513
368 0.000510
369 0.000514
370 0.000509
371 0.000515
372 0.000526
373 0.000533
374 0.000540
375 0.000544
376 0.000543
377 0.000538
378 0.000533
379 0.000531
380 0.000535
381 0.000533
382 0.000526
383 0.000522
384 0.000517
385 0.000508
386 0.000502
387 0.000500
388 0.000499
389 0.000501
390 0.000496
391 0.000490
392 0.000486
393 0.000479
394 0.000477
395 0.000470
396 0.000467
397 0.000469
398 0.000465
399 0.000473
400 0.000478
401 0.000482
402 0.000477
403 0.000467
404 0.000456
405 0.000442
406 0.000437
407 0.000429
408 0.000423
409 0.000426
410 0.000427
411 0.000434
412 0.000441
413 0.000442
414 0.000445
415 0.000452
416 0.000452
417 0.000454
418 0.000455
419 0.000455
420 0.000462
421 0.000465
422 0.000467
423 0.000464
424 0.000461
425 0.000461
426 0.000464
427 0.000473
428 0.000476
429 0.000477
430 0.000475
431 0.000474
432 0.000470
433 0.000462
434 0.000444
435 0.000430
436 0.000417
437 0.000410
438 0.000404
439 0.000402
440 0.000404
441 0.000400
442 0.000390
443 0.000377
444 0.000368
445 0.000362
446 0.000351
447 0.000345
448 0.000349
449 0.000355
450 0.000352
451 0.000351
452 0.000350
453 0.000347
454 0.000349
455 0.000347
456 0.000345
457 0.000346
458 0.000346
459 0.000351
460 0.000358
461 0.000359
462 0.000361
463 0.000359
464 0.000363
465 0.000373
466 0.000378
467 0.000389
468 0.000394
469 0.000406
470 0.000408
471 0.000406
472 0.000406
473 0.000401
474 0.000403
475 0.000402
476 0.000399
477 0.000394
478 0.000397
479 0.000401
480 0.000395
481 0.000388
482 0.000381
483 0.000369
484 0.000352
485 0.000348
486 0.000349
487 0.000345
488 0.000349
489 0.000349
490 0.000354
491 0.000361
492 0.000360
493 0.000354
494 0.000349
495 0.000344
496 0.000337
497 0.000330
498 0.000324
499 0.000320
500 0.000314
501 0.000316
502 0.000316
503 0.000317
504 0.000316
505 0.000315
506 0.000313
507 0.000303
508 0.000294
509 0.000287
510 0.000282
511 0.000281
512 0.000285
513 0.000286
514 0.000290
515 0.000297
516 0.000304
517 0.000314
518 0.000322
519 0.000323
520 0.000319
521 0.000317
522 0.000319
523 0.000311
524 0.000304
525 0.000296
526 0.000293
527 0.000297
528 0.000302
529 0.000304
530 0.000304
531 0.000299
532 0.000290
533 0.000283
534 0.000271
535 0.000260
536 0.000252
537 0.000250
538 0.000251
539 0.000251
540 0.000252
541 0.000251
542 0.000255
543 0.000253
544 0.000252
545 0.000247
546 0.000248
547 0.000254
548 0.000261
549 0.000264
550 0.000271
551 0.000278
552 0.000278
553 0.000268
554 0.000265
555 0.000259
556 0.000259
557 0.000259
558 0.000264
559 0.000268
560 0.000277
561 0.000282
562 0.000285
563 0.000297
564 0.000310
565 0.000314
566 0.000311
567 0.000311
568 0.000310
569 0.000308
570 0.000306
571 0.000302
572 0.000302
573 0.000305
574 0.000316
575 0.000332
576 0.000343
577 0.000350
578 0.000356
579 0.000357
580 0.000357
581 0.000354
582 0.000346
583 0.000343
584 0.000349
585 0.000356
586 0.000359
587 0.000360
588 0.000361
589 0.000358
590 0.000354
591 0.000347
592 0.000346
593 0.000347
594 0.000349
595 0.000349
596 0.000350
597 0.000347
598 0.000344
599 0.000342
600 0.000340
601 0.000338
602 0.000340
603 0.000346
604 0.000357
605 0.000359
606 0.000363
607 0.000367
608 0.000369
609 0.000369
610 0.000372
611 0.000371
612 0.000368
613 0.000368
614 0.000360
615 0.000353
616 0.000350
617 0.000349
618 0.000349
619 0.000348
620 0.000346
621 0.000344
622 0.000342
623 0.000337
624 0.000328
625 0.000320
626 0.000312
627 0.000306
628 0.000306
629 0.000304
630 0.000302
631 0.000301
632 0.000304
633 0.000305
634 0.000299
635 0.000296
636 0.000293
637 0.000289
638 0.000286
639 0.000278
640 0.000270
641 0.000271
642 0.000265
643 0.000258
644 0.000253
645 0.000254
646 0.000255
647 0.000255
648 0.000255
649 0.000254
650 0.000253
651 0.000250
652 0.000247
653 0.000252
654 0.000259
655 0.000264
656 0.000274
657 0.000278
658 0.000273
659 0.000260
660 0.000244
661 0.000235
662 0.000226
663 0.000220
664 0.000220
665 0.000223
666 0.000228
667 0.000230
668 0.000226
669 0.000220
670 0.000213
671 0.000209
672 0.000204
673 0.000200
674 0.000196
675 0.000190
676 0.000181
677 0.000169
678 0.000164
679 0.000161
680 0.000154
681 0.000152
682 0.000149
683 0.000145
684 0.000138
685 0.000131
686 0.000120
687 0.000104
688 0.000092
689 0.000080
690 0.000074
691 0.000079
692 0.000085
693 0.000090
694 0.000093
695 0.000098
696 0.000092
697 0.000084
698 0.000079
699 0.000077
700 0.000078
701 0.000077
702 0.000076
703 0.000074
704 0.000072
705 0.000067
706 0.000064
707 0.000056
708 0.000051
709 0.000052
710 0.000055
711 0.000059
712 0.000062
713 0.000062
714 0.000062
715 0.000060
716 0.000058
717 0.000055
718 0.000054
719 0.000051
720 0.000050
721 0.000049
722 0.000049
723 0.000051
724 0.000048
725 0.000049
726 0.000054
727 0.000052
728 0.000050
729 0.000051
730 0.000048
731 0.000044
732 0.000042
733 0.000042
734 0.000038
735 0.000036
736 0.000029
737 0.000024
738 0.000024
739 0.000023
740 0.000020
741 0.000021
742 0.000024
743 0.000027
744 0.000030
745 0.000027
746 0.000026
747 0.000027
748 0.000026
749 0.000025
750 0.000023
751 0.000024
752 0.000018
753 0.000017
754 0.000017
755 0.000016
756 0.000020
757 0.000019
758 0.000020
759 0.000019
760 0.000017
761 0.000012
762 0.000010
763 0.000010
764 0.000004
765 -0.000005
766 -0.000008
767 -0.000008
768 -0.000008
769 -0.000012
770 -0.000013
771 -0.000008
772 0.000001
773 0.000005
774 0.000007
775 0.000009
776 0.000009
777 0.000009
778 0.000008
779 0.000006
780 0.000005
781 0.000004
782 0.000005
783 0.000008
784 0.000009
785 0.000004
786 0.000000
787 -0.000003
788 -0.000008
789 -0.000009
790 -0.000010
791 -0.000010
792 -0.000011
793 -0.000012
794 -0.000013
795 -0.000014
796 -0.000013
797 -0.000012
798 -0.000008
799 -0.000001
800 0.000006
801 0.000013
802 0.000017
803 0.000018
804 0.000019
805 0.000016
806 0.000009
807 0.000003
808 -0.000001
809 -0.000002
