# i correlation
1 0.001720
2 0.001640
3 0.001573
4 0.001519
5 0.001481
6 0.001447
7 0.001412
8 0.001382
9 0.001354
10 0.001331
11 0.001315
12 0.001299
13 0.001283
14 0.001271
15 0.001252
16 0.001237
17 0.001224
18 0.001214
19 0.001205
20 0.001200
21 0.001195
22 0.001179
23 0.001167
24 0.001155
25 0.001149
26 0.001141
27 0.001139
28 0.001141
29 0.001138
30 0.001137
31 0.001126
32 0.001112
33 0.001106
34 0.001099
35 0.001096
36 0.001089
37 0.001079
38 0.001068
39 0.001058
40 0.001050
41 0.001038
42 0.001026
43 0.001012
44 0.001000
45 0.000999
46 0.001005
47 0.001015
48 0.001028
49 0.001038
50 0.001048
51 0.001054
52 0.001058
53 0.001063
54 0.001074
55 0.001072
56 0.001063
57 0.001060
58 0.001070
59 0.001071
60 0.001066
61 0.001049
62 0.001027
63 0.001013
64 0.000998
65 0.000985
66 0.000975
67 0.000968
68 0.000956
69 0.000950
70 0.000950
71 0.000952
72 0.000946
73 0.000939
74 0.000933
75 0.000922
76 0.000912
77 0.000912
78 0.000908
79 0.000905
80 0.000906
81 0.000903
82 0.000900
83 0.000899
84 0.000894
85 0.000888
86 0.000890
87 0.000892
88 0.000899
89 0.000897
90 0.000899
91 0.000895
92 0.000894
93 0.000886
94 0.000881
95 0.000880
96 0.000877
97 0.000875
98 0.000868
99 0.000863
100 0.000865
101 0.000877
102 0.000890
103 0.000900
104 0.000904
105 0.000911
106 0.000923
107 0.000930
108 0.000940
109 0.000937
110 0.000936
111 0.000937
112 0.000937
113 0.000936
114 0.000934
115 0.000928
116 0.000922
117 0.000926
118 0.000925
119 0.000925
120 0.000930
121 0.000933
122 0.000927
123 0.000913
124 0.000898
125 0.000888
126 0.000890
127 0.000886
128 0.000885
129 0.000882
130 0.000865
131 0.000861
132 0.000852
133 0.000835
134 0.000819
135 0.000809
136 0.000806
137 0.000807
138 0.000807
139 0.000799
140 0.000795
141 0.000803
142 0.000813
143 0.000807
144 0.000799
145 0.000782
146 0.000774
147 0.000771
148 0.000767
149 0.000764
150 0.000766
151 0.000755
152 0.000746
153 0.000735
154 0.000727
155 0.000720
156 0.000715
157 0.000715
158 0.000711
159 0.000710
160 0.000711
161 0.000711
162 0.000713
163 0.000718
164 0.000718
165 0.000722
166 0.000730
167 0.000730
168 0.000728
169 0.000726
170 0.000719
171 0.000715
172 0.000707
173 0.000696
174 0.000695
175 0.000702
176 0.000711
177 0.000727
178 0.000746
179 0.000762
180 0.000778
181 0.000786
182 0.000794
183 0.000791
184 0.000786
185 0.000785
186 0.000782
187 0.000786
188 0.000784
189 0.000784
190 0.000783
191 0.000779
192 0.000774
193 0.000772
194 0.000766
195 0.000762
196 0.000765
197 0.000760
198 0.000751
199 0.000742
200 0.000733
201 0.000728
202 0.000729
203 0.000728
204 0.000722
205 0.000718
206 0.000712
207 0.000715
208 0.000720
209 0.000723
210 0.000725
211 0.000719
212 0.000711
213 0.000701
214 0.000694
215 0.000693
216 0.000687
217 0.000681
218 0.000671
219 0.000659
220 0.000643
221 0.000626
222 0.000613
223 0.000609
224 0.000612
225 0.000613
226 0.000611
227 0.000608
228 0.000615
229 0.000622
230 0.000631
231 0.000641
232 0.000647
233 0.000655
234 0.000663
235 0.000668
236 0.000673
237 0.000684
238 0.000699
239 0.000703
240 0.000706
241 0.000699
242 0.000692
243 0.000687
244 0.000682
245 0.000688
246 0.000687
247 0.000685
248 0.000682
249 0.000683
250 0.000678
251 0.000665
252 0.000655
253 0.000636
254 0.000621
255 0.000612
256 0.000601
257 0.000587
258 0.000580
259 0.000572
260 0.000563
261 0.000561
262 0.000552
263 0.000553
264 0.000561
265 0.000561
266 0.000564
267 0.000567
268 0.000571
269 0.000572
270 0.000575
271 0.000573
272 0.000565
273 0.000562
274 0.000555
275 0.000549
276 0.000534
277 0.000526
278 0.000521
279 0.000514
280 0.000511
281 0.000500
282 0.000494
283 0.000491
284 0.000492
285 0.000497
286 0.000507
287 0.000512
288 0.000521
289 0.000529
290 0.000533
291 0.000537
292 0.000543
293 0.000544
294 0.000550
295 0.000561
296 0.000570
297 0.000586
298 0.000600
299 0.000612
300 0.000623
301 0.000626
302 0.000629
303 0.000635
304 0.000645
305 0.000648
306 0.000650
307 0.000649
308 0.000647
309 0.000643
310 0.000638
311 0.000630
312 0.000616
313 0.000610
314 0.000605
315 0.000600
316 0.000596
317 0.000588
318 0.000584
319 0.000589
320 0.000593
321 0.000598
322 0.000608
323 0.000614
324 0.000620
325 0.000627
326 0.000621
327 0.000619
328 0.000624
329 0.000625
330 0.000620
331 0.000613
332 0.000606
333 0.000596
334 0.000590
335 0.000583
336 0.000580
337 0.000575
338 0.000568
339 0.000558
340 0.000545
341 0.000537
342 0.000529
343 0.000518
344 0.000515
345 0.000516
346 0.000523
347 0.000520
348 0.000523
349 0.000522
350 0.000518
351 0.000515
352 0.000512
353 0.000517
354 0.000519
355 0.000520
356 0.000523
357 0.000534
358 0.000542
359 0.000555
360 0.000565
361 0.000567
362 0.000571
363 0.000570
364 0.000570
365 0.000571
366 0.000568
367 0.000565
368 0.000560
369 0.000560
370 0.000550
371 0.000538
372 0.000527
373 0.000522
374 0.000520
375 0.000521
376 0.000529
377 0.000537
378 0.000540
379 0.000540
380 0.000541
381 0.000547
382 0.000549
383 0.000550
384 0.000548
385 0.000538
386 0.000525
387 0.000518
388 0.000513
389 0.000513
390 0.000515
391 0.000509
392 0.000509
393 0.000509
394 0.000509
395 0.000510
396 0.000516
397 0.000517
398 0.000512
399 0.000512
400 0.000513
401 0.000507
402 0.000503
403 0.000496
404 0.000491
405 0.000488
406 0.000486
407 0.000487
408 0.000487
409 0.000486
410 0.000483
411 0.000491
412 0.000500
413 0.000504
414 0.000504
415 0.000510
416 0.000516
417 0.000527
418 0.000533
419 0.000538
420 0.000540
421 0.000534
422 0.000525
423 0.000515
424 0.000503
425 0.000494
426 0.000488
427 0.000489
428 0.000493
429 0.000496
430 0.000504
431 0.000511
432 0.000511
433 0.000506
434 0.000500
435 0.000492
436 0.000491
437 0.000490
438 0.000486
439 0.000482
440 0.000478
441 0.000475
442 0.000476
443 0.000473
444 0.000464
445 0.000456
446 0.000452
447 0.000444
448 0.000446
449 0.000446
450 0.000443
451 0.000440
452 0.000435
453 0.000427
454 0.000420
455 0.000410
456 0.000403
457 0.000394
458 0.000378
459 0.000368
460 0.000363
461 0.000358
462 0.000354
463 0.000354
464 0.000351
465 0.000352
466 0.000361
467 0.000363
468 0.000360
469 0.000356
470 0.000362
471 0.000365
472 0.000368
473 0.000364
474 0.000360
475 0.000353
476 0.000346
477 0.000348
478 0.000351
479 0.000359
480 0.000365
481 0.000364
482 0.000367
483 0.000363
484 0.000362
485 0.000364
486 0.000371
487 0.000376
488 0.000377
489 0.000371
490 0.000370
491 0.000372
492 0.000368
493 0.000365
494 0.000362
495 0.000360
496 0.000360
497 0.000359
498 0.000349
499 0.000347
500 0.000346
501 0.000351
502 0.000357
503 0.000361
504 0.000360
505 0.000358
506 0.000357
507 0.000362
508 0.000365
509 0.000364
510 0.000367
511 0.000368
512 0.000368
513 0.000371
514 0.000370
515 0.000369
516 0.000364
517 0.000355
518 0.000346
519 0.000339
520 0.000339
521 0.000334
522 0.000330
523 0.000333
524 0.000331
525 0.000334
526 0.000334
527 0.000330
528 0.000330
529 0.000326
530 0.000319
531 0.000315
532 0.000313
533 0.000312
534 0.000316
535 0.000316
536 0.000319
537 0.000325
538 0.000330
539 0.000336
540 0.000348
541 0.000359
542 0.000361
543 0.000361
544 0.000365
545 0.000367
546 0.000366
547 0.000364
548 0.000357
549 0.000353
550 0.000350
551 0.000345
552 0.000337
553 0.000333
554 0.000329
555 0.000326
556 0.000324
557 0.000320
558 0.000318
559 0.000315
560 0.000311
561 0.000312
562 0.000314
563 0.000316
564 0.000315
565 0.000318
566 0.000317
567 0.000317
568 0.000317
569 0.000316
570 0.000318
571 0.000321
572 0.000320
573 0.000317
574 0.000324
575 0.000325
576 0.000320
577 0.000318
578 0.000314
579 0.000308
580 0.000303
581 0.000291
582 0.000281
583 0.000281
584 0.000280
585 0.000277
586 0.000274
587 0.000275
588 0.000275
589 0.000271
590 0.000262
591 0.000257
592 0.000259
593 0.000263
594 0.000268
595 0.000273
596 0.000275
597 0.000275
598 0.000278
599 0.000282
600 0.000287
601 0.000294
602 0.000297
603 0.000300
604 0.000297
605 0.000293
606 0.000290
607 0.000291
608 0.000294
609 0.000295
610 0.000288
611 0.000283
612 0.000280
613 0.000279
614 0.000280
615 0.000279
616 0.000280
617 0.000278
618 0.000273
619 0.000269
620 0.000265
621 0.000266
622 0.000266
623 0.000265
624 0.000259
625 0.000253
626 0.000251
627 0.000251
628 0.000257
629 0.000263
630 0.000265
631 0.000265
632 0.000263
633 0.000262
634 0.000264
635 0.000266
636 0.000259
637 0.000253
638 0.000245
639 0.000238
640 0.000227
641 0.000220
642 0.000214
643 0.000213
644 0.000211
645 0.000209
646 0.000206
647 0.000202
648 0.000201
649 0.000204
650 0.000198
651 0.000198
652 0.000194
653 0.000185
654 0.000181
655 0.000182
656 0.000185
657 0.000189
658 0.000188
659 0.000189
660 0.000190
661 0.000191
662 0.000198
663 0.000202
664 0.000201
665 0.000198
666 0.000199
667 0.000201
668 0.000202
669 0.000202
670 0.000201
671 0.000198
672 0.000193
673 0.000192
674 0.000185
675 0.000181
676 0.000184
677 0.000181
678 0.000178
679 0.000180
680 0.000185
681 0.000192
682 0.000199
683 0.000202
684 0.000203
685 0.000200
686 0.000196
687 0.000196
688 0.000192
689 0.000193
690 0.000196
691 0.000198
692 0.000195
693 0.000191
694 0.000191
695 0.000191
696 0.000186
697 0.000184
698 0.000180
699 0.000171
700 0.000163
701 0.000157
702 0.000147
703 0.000146
704 0.000143
705 0.000143
706 0.000145
707 0.000147
708 0.000146
709 0.000149
710 0.000149
711 0.000148
712 0.000147
713 0.000144
714 0.000143
715 0.000148
716 0.000152
717 0.000155
718 0.000158
719 0.000161
720 0.000167
721 0.000173
722 0.000176
723 0.000174
724 0.000167
725 0.000165
726 0.000164
727 0.000162
728 0.000157
729 0.000152
730 0.000149
731 0.000149
732 0.000147
733 0.000146
734 0.000150
735 0.000151
736 0.000153
737 0.000155
738 0.000154
739 0.000152
740 0.000150
741 0.000146
742 0.000143
743 0.000145
744 0.000145
745 0.000148
746 0.000149
747 0.000142
748 0.000134
749 0.000127
750 0.000124
751 0.000121
752 0.000116
753 0.000113
754 0.000111
755 0.000104
756 0.000095
757 0.000089
758 0.000082
759 0.000073
760 0.000065
761 0.000059
762 0.000049
763 0.000044
764 0.000039
765 0.000040
766 0.000042
767 0.000043
768 0.000045
769 0.000043
770 0.000042
771 0.000041
772 0.000041
773 0.000043
774 0.000044
775 0.000041
776 0.000040
777 0.000042
778 0.000045
779 0.000049
780 0.000052
781 0.000057
782 0.000059
783 0.000055
784 0.000057
785 0.000060
786 0.000060
787 0.000059
788 0.000057
789 0.000053
790 0.000051
791 0.000049
792 0.000049
793 0.000049
794 0.000047
795 0.000047
796 0.000049
797 0.000052
798 0.000055
799 0.000056
800 0.000055
801 0.000053
802 0.000050
803 0.000048
804 0.000048
805 0.000048
806 0.000046
807 0.000041
808 0.000042
809 0.000046
