# i correlation
1 0.001948
2 0.001861
3 0.001791
4 0.001727
5 0.001679
6 0.001630
7 0.001588
8 0.001548
9 0.001511
10 0.001478
11 0.001453
12 0.001430
13 0.001406
14 0.001381
15 0.001351
16 0.001329
17 0.001322
18 0.001306
19 0.001290
20 0.001279
21 0.001277
22 0.001282
23 0.001273
24 0.001269
25 0.001261
26 0.001248
27 0.001231
28 0.001232
29 0.001225
30 0.001226
31 0.001231
32 0.001225
33 0.001214
34 0.001211
35 0.001213
36 0.001221
37 0.001218
38 0.001213
39 0.001214
40 0.001211
41 0.001206
42 0.001189
43 0.001177
44 0.001169
45 0.001168
46 0.001171
47 0.001170
48 0.001165
49 0.001167
50 0.001171
51 0.001166
52 0.001160
53 0.001156
54 0.001144
55 0.001137
56 0.001136
57 0.001127
58 0.001126
59 0.001129
60 0.001136
61 0.001135
62 0.001132
63 0.001127
64 0.001126
65 0.001117
66 0.001107
67 0.001096
68 0.001080
69 0.001061
70 0.001049
71 0.001046
72 0.001037
73 0.001029
74 0.001016
75 0.001007
76 0.000994
77 0.000984
78 0.000976
79 0.000959
80 0.000942
81 0.000944
82 0.000943
83 0.000931
84 0.000924
85 0.000912
86 0.000906
87 0.000895
88 0.000888
89 0.000891
90 0.000888
91 0.000875
92 0.000871
93 0.000871
94 0.000874
95 0.000887
96 0.000895
97 0.000907
98 0.000916
99 0.000926
100 0.000925
101 0.000921
102 0.000920
103 0.000919
104 0.000918
105 0.000926
106 0.000934
107 0.000942
108 0.000937
109 0.000921
110 0.000910
111 0.000896
112 0.000888
113 0.000878
114 0.000869
115 0.000860
116 0.000843
117 0.000829
118 0.000811
119 0.000796
120 0.000787
121 0.000777
122 0.000780
123 0.000781
124 0.000780
125 0.000780
126 0.000779
127 0.000780
128 0.000783
129 0.000787
130 0.000784
131 0.000777
132 0.000762
133 0.000756
134 0.000750
135 0.000742
136 0.000731
137 0.000726
138 0.000726
139 0.000723
140 0.000717
141 0.000705
142 0.000692
143 0.000683
144 0.000675
145 0.000678
146 0.000686
147 0.000693
148 0.000703
149 0.000699
150 0.000704
151 0.000710
152 0.000710
153 0.000716
154 0.000718
155 0.000716
156 0.000712
157 0.000705
158 0.000699
159 0.000693
160 0.000701
161 0.000707
162 0.000701
163 0.000699
164 0.000688
165 0.000683
166 0.000680
167 0.000683
168 0.000691
169 0.000692
170 0.000688
171 0.000681
172 0.000677
173 0.000680
174 0.000687
175 0.000695
176 0.000704
177 0.000714
178 0.000720
179 0.000731
180 0.000735
181 0.000737
182 0.000735
183 0.000730
184 0.000723
185 0.000716
186 0.000721
187 0.000718
188 0.000725
189 0.000736
190 0.000745
191 0.000752
192 0.000752
193 0.000745
194 0.000730
195 0.000715
196 0.000692
197 0.000677
198 0.000661
199 0.000646
200 0.000636
201 0.000628
202 0.000617
203 0.000612
204 0.000615
205 0.000619
206 0.000619
207 0.000626
208 0.000622
209 0.000622
210 0.000631
211 0.000646
212 0.000659
213 0.000665
214 0.000683
215 0.000691
216 0.000694
217 0.000692
218 0.000690
219 0.000687
220 0.000683
221 0.000690
222 0.000702
223 0.000707
224 0.000722
225 0.000730
226 0.000740
227 0.000746
228 0.000752
229 0.000761
230 0.000757
231 0.000748
232 0.000741
233 0.000735
234 0.000720
235 0.000713
236 0.000712
237 0.000703
238 0.000696
239 0.000692
240 0.000677
241 0.000660
242 0.000653
243 0.000643
244 0.000642
245 0.000636
246 0.000633
247 0.000632
248 0.000628
249 0.000620
250 0.000620
251 0.000612
252 0.000605
253 0.000601
254 0.000592
255 0.000587
256 0.000581
257 0.000572
258 0.000562
259 0.000550
260 0.000547
261 0.000549
262 0.000544
263 0.000545
264 0.000546
265 0.000545
266 0.000541
267 0.000549
268 0.000555
269 0.000551
270 0.000549
271 0.000545
272 0.000547
273 0.000553
274 0.000564
275 0.000575
276 0.000580
277 0.000577
278 0.000581
279 0.000589
280 0.000589
281 0.000586
282 0.000583
283 0.000578
284 0.000577
285 0.000588
286 0.000601
287 0.000609
288 0.000615
289 0.000622
290 0.000626
291 0.000629
292 0.000633
293 0.000632
294 0.000624
295 0.000617
296 0.000623
297 0.000628
298 0.000633
299 0.000640
300 0.000638
301 0.000639
302 0.000638
303 0.000645
304 0.000658
305 0.000656
306 0.000649
307 0.000635
308 0.000628
309 0.000621
310 0.000613
311 0.000604
312 0.000591
313 0.000577
314 0.000571
315 0.000570
316 0.000565
317 0.000562
318 0.000554
319 0.000551
320 0.000552
321 0.000560
322 0.000567
323 0.000579
324 0.000580
325 0.000577
326 0.000577
327 0.000580
328 0.000591
329 0.000601
330 0.000606
331 0.000600
332 0.000597
333 0.000589
334 0.000583
335 0.000576
336 0.000570
337 0.000565
338 0.000563
339 0.000564
340 0.000566
341 0.000571
342 0.000577
343 0.000579
344 0.000583
345 0.000593
346 0.000596
347 0.000593
348 0.000578
349 0.000568
350 0.000565
351 0.000567
352 0.000569
353 0.000570
354 0.000572
355 0.000570
356 0.000566
357 0.000563
358 0.000561
359 0.000554
360 0.000549
361 0.000547
362 0.000547
363 0.000549
364 0.000558
365 0.000559
366 0.000556
367 0.000555
368 0.000560
369 0.000570
370 0.000576
371 0.000571
372 0.000570
373 0.000556
374 0.000546
375 0.000546
376 0.000545
377 0.000543
378 0.000537
379 0.000539
380 0.000543
381 0.000550
382 0.000558
383 0.000563
384 0.000559
385 0.000557
386 0.000553
387 0.000545
388 0.000537
389 0.000526
390 0.000517
391 0.000506
392 0.000504
393 0.000509
394 0.000514
395 0.000518
396 0.000517
397 0.000512
398 0.000511
399 0.000500
400 0.000497
401 0.000499
402 0.000497
403 0.000499
404 0.000506
405 0.000513
406 0.000516
407 0.000515
408 0.000509
409 0.000505
410 0.000499
411 0.000497
412 0.000493
413 0.000495
414 0.000502
415 0.000501
416 0.000508
417 0.000509
418 0.000510
419 0.000507
420 0.000502
421 0.000509
422 0.000507
423 0.000494
424 0.000484
425 0.000476
426 0.000472
427 0.000471
428 0.000479
429 0.000488
430 0.000490
431 0.000497
432 0.000502
433 0.000504
434 0.000509
435 0.000512
436 0.000516
437 0.000516
438 0.000515
439 0.000515
440 0.000512
441 0.000507
442 0.000508
443 0.000511
444 0.000507
445 0.000497
446 0.000493
447 0.000490
448 0.000486
449 0.000477
450 0.000472
451 0.000464
452 0.000456
453 0.000452
454 0.000450
455 0.000447
456 0.000445
457 0.000447
458 0.000445
459 0.000445
460 0.000446
461 0.000445
462 0.000440
463 0.000431
464 0.000424
465 0.000424
466 0.000422
467 0.000413
468 0.000409
469 0.000396
470 0.000381
471 0.000367
472 0.000354
473 0.000336
474 0.000323
475 0.000309
476 0.000301
477 0.000302
478 0.000309
479 0.000313
480 0.000315
481 0.000315
482 0.000323
483 0.000331
484 0.000340
485 0.000347
486 0.000350
487 0.000358
488 0.000358
489 0.000362
490 0.000365
491 0.000366
492 0.000375
493 0.000384
494 0.000392
495 0.000399
496 0.000406
497 0.000410
498 0.000410
499 0.000409
500 0.000405
501 0.000398
502 0.000394
503 0.000398
504 0.000395
505 0.000384
506 0.000371
507 0.000359
508 0.000349
509 0.000345
510 0.000342
511 0.000337
512 0.000326
513 0.000310
514 0.000301
515 0.000296
516 0.000287
517 0.000278
518 0.000267
519 0.000252
520 0.000243
521 0.000244
522 0.000236
523 0.000238
524 0.000243
525 0.000242
526 0.000241
527 0.000237
528 0.000241
529 0.000247
530 0.000245
531 0.000245
532 0.000249
533 0.000259
534 0.000263
535 0.000266
536 0.000272
537 0.000274
538 0.000276
539 0.000271
540 0.000266
541 0.000266
542 0.000264
543 0.000257
544 0.000251
545 0.000255
546 0.000260
547 0.000262
548 0.000260
549 0.000261
550 0.000258
551 0.000253
552 0.000247
553 0.000243
554 0.000246
555 0.000251
556 0.000256
557 0.000250
558 0.000248
559 0.000248
560 0.000248
561 0.000246
562 0.000243
563 0.000239
564 0.000234
565 0.000231
566 0.000223
567 0.000224
568 0.000222
569 0.000223
570 0.000218
571 0.000212
572 0.000209
573 0.000213
574 0.000214
575 0.000214
576 0.000220
577 0.000231
578 0.000229
579 0.000222
580 0.000213
581 0.000204
582 0.000203
583 0.000200
584 0.000200
585 0.000199
586 0.000198
587 0.000197
588 0.000191
589 0.000187
590 0.000191
591 0.000198
592 0.000205
593 0.000211
594 0.000221
595 0.000234
596 0.000247
597 0.000261
598 0.000270
599 0.000275
600 0.000279
601 0.000280
602 0.000279
603 0.000272
604 0.000268
605 0.000265
606 0.000261
607 0.000257
608 0.000259
609 0.000265
610 0.000267
611 0.000269
612 0.000267
613 0.000264
614 0.000260
615 0.000254
616 0.000243
617 0.000231
618 0.000221
619 0.000215
620 0.000205
621 0.000190
622 0.000181
623 0.000171
624 0.000161
625 0.000153
626 0.000142
627 0.000139
628 0.000137
629 0.000133
630 0.000126
631 0.000131
632 0.000141
633 0.000152
634 0.000156
635 0.000159
636 0.000160
637 0.000165
638 0.000162
639 0.000155
640 0.000153
641 0.000150
642 0.000147
643 0.000147
644 0.000145
645 0.000150
646 0.000150
647 0.000145
648 0.000146
649 0.000146
650 0.000148
651 0.000150
652 0.000142
653 0.000138
654 0.000139
655 0.000147
656 0.000152
657 0.000156
658 0.000159
659 0.000163
660 0.000165
661 0.000166
662 0.000168
663 0.000165
664 0.000166
665 0.000169
666 0.000167
667 0.000165
668 0.000168
669 0.000171
670 0.000171
671 0.000175
672 0.000181
673 0.000186
674 0.000188
675 0.000196
676 0.000203
677 0.000208
678 0.000209
679 0.000213
680 0.000216
681 0.000216
682 0.000222
683 0.000224
684 0.000230
685 0.000234
686 0.000230
687 0.000225
688 0.000216
689 0.000208
690 0.000198
691 0.000186
692 0.000179
693 0.000175
694 0.000167
695 0.000156
696 0.000152
697 0.000145
698 0.000139
699 0.000133
700 0.000127
701 0.000122
702 0.000116
703 0.000110
704 0.000107
705 0.000105
706 0.000111
707 0.000117
708 0.000123
709 0.000126
710 0.000132
711 0.000133
712 0.000131
713 0.000127
714 0.000123
715 0.000127
716 0.000129
717 0.000135
718 0.000141
719 0.000141
720 0.000140
721 0.000145
722 0.000151
723 0.000155
724 0.000157
725 0.000156
726 0.000156
727 0.000156
728 0.000155
729 0.000151
730 0.000150
731 0.000149
732 0.000150
733 0.000154
734 0.000154
735 0.000156
736 0.000158
737 0.000166
738 0.000172
739 0.000181
740 0.000191
741 0.000189
742 0.000188
743 0.000184
744 0.000175
745 0.000167
746 0.000161
747 0.000154
748 0.000142
749 0.000122
750 0.000105
751 0.000091
752 0.000078
753 0.000072
754 0.000063
755 0.000049
756 0.000040
757 0.000036
758 0.000033
759 0.000034
760 0.000035
761 0.000034
762 0.000038
763 0.000045
764 0.000049
765 0.000055
766 0.000061
767 0.000066
768 0.000067
769 0.000061
770 0.000061
771 0.000062
772 0.000063
773 0.000063
774 0.000064
775 0.000062
776 0.000056
777 0.000051
778 0.000050
779 0.000047
780 0.000045
781 0.000041
782 0.000043
783 0.000048
784 0.000053
785 0.000061
786 0.000064
787 0.000067
788 0.000070
789 0.000075
790 0.000078
791 0.000077
792 0.000079
793 0.000084
794 0.000083
795 0.000078
796 0.000072
797 0.000063
798 0.000056
799 0.000048
800 0.000036
801 0.000027
802 0.000021
803 0.000017
804 0.000013
805 0.000006
806 0.000004
807 -0.000000
808 -0.000004
809 -0.000013
