# i correlation
1 0.002269
2 0.002186
3 0.002117
4 0.002061
5 0.002013
6 0.001976
7 0.001947
8 0.001922
9 0.001890
10 0.001857
11 0.001823
12 0.001784
13 0.001746
14 0.001715
15 0.001687
16 0.001653
17 0.001623
18 0.001604
19 0.001590
20 0.001571
21 0.001563
22 0.001554
23 0.001543
24 0.001539
25 0.001534
26 0.001529
27 0.001531
28 0.001530
29 0.001527
30 0.001515
31 0.001498
32 0.001481
33 0.001472
34 0.001474
35 0.001472
36 0.001477
37 0.001479
38 0.001482
39 0.001482
40 0.001477
41 0.001478
42 0.001483
43 0.001483
44 0.001472
45 0.001466
46 0.001453
47 0.001452
48 0.001442
49 0.001444
50 0.001445
51 0.001442
52 0.001443
53 0.001441
54 0.001434
55 0.001419
56 0.001391
57 0.001370
58 0.001351
59 0.001342
60 0.001327
61 0.001326
62 0.001324
63 0.001318
64 0.001312
65 0.001307
66 0.001303
67 0.001304
68 0.001307
69 0.001305
70 0.001299
71 0.001300
72 0.001297
73 0.001284
74 0.001278
75 0.001269
76 0.001269
77 0.001269
78 0.001268
79 0.001267
80 0.001269
81 0.001269
82 0.001273
83 0.001268
84 0.001259
85 0.001246
86 0.001232
87 0.001216
88 0.001196
89 0.001181
90 0.001176
91 0.001181
92 0.001191
93 0.001190
94 0.001185
95 0.001182
96 0.001181
97 0.001180
98 0.001183
99 0.001171
100 0.001164
101 0.001154
102 0.001142
103 0.001138
104 0.001138
105 0.001141
106 0.001152
107 0.001146
108 0.001133
109 0.001128
110 0.001120
111 0.001110
112 0.001102
113 0.001100
114 0.001099
115 0.001090
116 0.001085
117 0.001072
118 0.001057
119 0.001055
120 0.001056
121 0.001057
122 0.001052
123 0.001049
124 0.001054
125 0.001056
126 0.001052
127 0.001049
128 0.001041
129 0.001039
130 0.001041
131 0.001043
132 0.001046
133 0.001043
134 0.001040
135 0.001035
136 0.001030
137 0.001020
138 0.001009
139 0.001007
140 0.001009
141 0.001011
142 0.001007
143 0.001011
144 0.001000
145 0.000988
146 0.000974
147 0.000964
148 0.000964
149 0.000961
150 0.000954
151 0.000942
152 0.000924
153 0.000916
154 0.000901
155 0.000890
156 0.000883
157 0.000876
158 0.000872
159 0.000869
160 0.000864
161 0.000853
162 0.000844
163 0.000834
164 0.000835
165 0.000838
166 0.000846
167 0.000851
168 0.000855
169 0.000856
170 0.000853
171 0.000848
172 0.000842
173 0.000838
174 0.000840
175 0.000841
176 0.000842
177 0.000852
178 0.000853
179 0.000867
180 0.000869
181 0.000871
182 0.000869
183 0.000867
184 0.000867
185 0.000871
186 0.000878
187 0.000882
188 0.000884
189 0.000881
190 0.000878
191 0.000879
192 0.000886
193 0.000891
194 0.000889
195 0.000888
196 0.000886
197 0.000877
198 0.000870
199 0.000856
200 0.000846
201 0.000845
202 0.000857
203 0.000859
204 0.000847
205 0.000840
206 0.000824
207 0.000812
208 0.000800
209 0.000791
210 0.000794
211 0.000801
212 0.000796
213 0.000793
214 0.000787
215 0.000787
216 0.000785
217 0.000787
218 0.000782
219 0.000777
220 0.000777
221 0.000780
222 0.000784
223 0.000788
224 0.000793
225 0.000789
226 0.000783
227 0.000779
228 0.000776
229 0.000770
230 0.000764
231 0.000763
232 0.000760
233 0.000762
234 0.000761
235 0.000763
236 0.000760
237 0.000760
238 0.000759
239 0.000764
240 0.000777
241 0.000789
242 0.000792
243 0.000792
244 0.000788
245 0.000790
246 0.000792
247 0.000788
248 0.000781
249 0.000778
250 0.000772
251 0.000768
252 0.000764
253 0.000760
254 0.000758
255 0.000753
256 0.000748
257 0.000749
258 0.000741
259 0.000733
260 0.000729
261 0.000724
262 0.000732
263 0.000737
264 0.000759
265 0.000772
266 0.000772
267 0.000773
268 0.000770
269 0.000762
270 0.000765
271 0.000770
272 0.000774
273 0.000783
274 0.000798
275 0.000804
276 0.000805
277 0.000788
278 0.000773
279 0.000767
280 0.000763
281 0.000755
282 0.000754
283 0.000754
284 0.000748
285 0.000745
286 0.000748
287 0.000743
288 0.000739
289 0.000737
290 0.000735
291 0.000728
292 0.000729
293 0.000732
294 0.000742
295 0.000750
296 0.000768
297 0.000772
298 0.000772
299 0.000773
300 0.000781
301 0.000787
302 0.000787
303 0.000787
304 0.000783
305 0.000775
306 0.000773
307 0.000773
308 0.000777
309 0.000786
310 0.000782
311 0.000787
312 0.000784
313 0.000781
314 0.000782
315 0.000782
316 0.000774
317 0.000776
318 0.000777
319 0.000775
320 0.000759
321 0.000746
322 0.000732
323 0.000726
324 0.000724
325 0.000719
326 0.000718
327 0.000715
328 0.000709
329 0.000705
330 0.000694
331 0.000679
332 0.000664
333 0.000659
334 0.000659
335 0.000661
336 0.000663
337 0.000673
338 0.000676
339 0.000671
340 0.000658
341 0.000656
342 0.000655
343 0.000658
344 0.000661
345 0.000669
346 0.000677
347 0.000685
348 0.000692
349 0.000693
350 0.000699
351 0.000705
352 0.000705
353 0.000706
354 0.000705
355 0.000707
356 0.000716
357 0.000721
358 0.000730
359 0.000730
360 0.000740
361 0.000744
362 0.000743
363 0.000739
364 0.000732
365 0.000728
366 0.000722
367 0.000716
368 0.000715
369 0.000709
370 0.000707
371 0.000709
372 0.000709
373 0.000710
374 0.000709
375 0.000696
376 0.000687
377 0.000685
378 0.000682
379 0.000676
380 0.000675
381 0.000676
382 0.000676
383 0.000671
384 0.000667
385 0.000660
386 0.000654
387 0.000651
388 0.000651
389 0.000654
390 0.000650
391 0.000641
392 0.000639
393 0.000629
394 0.000621
395 0.000617
396 0.000615
397 0.000618
398 0.000615
399 0.000617
400 0.000615
401 0.000607
402 0.000592
403 0.000585
404 0.000576
405 0.000569
406 0.000567
407 0.000572
408 0.000570
409 0.000562
410 0.000560
411 0.000557
412 0.000560
413 0.000562
414 0.000558
415 0.000557
416 0.000553
417 0.000552
418 0.000545
419 0.000541
420 0.000536
421 0.000533
422 0.000530
423 0.000527
424 0.000527
425 0.000527
426 0.000535
427 0.000541
428 0.000546
429 0.000547
430 0.000544
431 0.000541
432 0.000537
433 0.000538
434 0.000542
435 0.000543
436 0.000543
437 0.000536
438 0.000533
439 0.000535
440 0.000534
441 0.000537
442 0.000544
443 0.000549
444 0.000553
445 0.000542
446 0.000532
447 0.000521
448 0.000513
449 0.000505
450 0.000507
451 0.000507
452 0.000508
453 0.000509
454 0.000515
455 0.000517
456 0.000525
457 0.000537
458 0.000542
459 0.000539
460 0.000546
461 0.000549
462 0.000558
463 0.000559
464 0.000563
465 0.000570
466 0.000573
467 0.000579
468 0.000586
469 0.000588
470 0.000580
471 0.000572
472 0.000564
473 0.000551
474 0.000537
475 0.000533
476 0.000532
477 0.000528
478 0.000531
479 0.000528
480 0.000522
481 0.000520
482 0.000518
483 0.000515
484 0.000511
485 0.000508
486 0.000508
487 0.000510
488 0.000513
489 0.000512
490 0.000509
491 0.000509
492 0.000505
493 0.000507
494 0.000510
495 0.000514
496 0.000514
497 0.000515
498 0.000516
499 0.000514
500 0.000507
501 0.000498
502 0.000490
503 0.000488
504 0.000486
505 0.000490
506 0.000495
507 0.000499
508 0.000494
509 0.000491
510 0.000493
511 0.000497
512 0.000492
513 0.000491
514 0.000487
515 0.000473
516 0.000465
517 0.000454
518 0.000442
519 0.000432
520 0.000428
521 0.000427
522 0.000421
523 0.000412
524 0.000411
525 0.000410
526 0.000409
527 0.000407
528 0.000408
529 0.000414
530 0.000421
531 0.000430
532 0.000439
533 0.000444
534 0.000445
535 0.000449
536 0.000457
537 0.000464
538 0.000470
539 0.000483
540 0.000496
541 0.000503
542 0.000508
543 0.000508
544 0.000505
545 0.000498
546 0.000487
547 0.000481
548 0.000482
549 0.000482
550 0.000483
551 0.000473
552 0.000468
553 0.000464
554 0.000461
555 0.000452
556 0.000447
557 0.000437
558 0.000433
559 0.000430
560 0.000435
561 0.000433
562 0.000426
563 0.000426
564 0.000425
565 0.000425
566 0.000425
567 0.000420
568 0.000419
569 0.000420
570 0.000421
571 0.000427
572 0.000427
573 0.000428
574 0.000429
575 0.000432
576 0.000440
577 0.000443
578 0.000449
579 0.000455
580 0.000454
581 0.000451
582 0.000451
583 0.000454
584 0.000460
585 0.000466
586 0.000469
587 0.000470
588 0.000471
589 0.000467
590 0.000461
591 0.000460
592 0.000461
593 0.000465
594 0.000471
595 0.000474
596 0.000468
597 0.000459
598 0.000455
599 0.000448
600 0.000446
601 0.000447
602 0.000447
603 0.000449
604 0.000441
605 0.000437
606 0.000432
607 0.000434
608 0.000436
609 0.000436
610 0.000435
611 0.000440
612 0.000441
613 0.000445
614 0.000447
615 0.000451
616 0.000447
617 0.000442
618 0.000437
619 0.000431
620 0.000426
621 0.000421
622 0.000421
623 0.000423
624 0.000421
625 0.000416
626 0.000409
627 0.000403
628 0.000392
629 0.000382
630 0.000374
631 0.000368
632 0.000364
633 0.000354
634 0.000348
635 0.000348
636 0.000350
637 0.000353
638 0.000351
639 0.000347
640 0.000343
641 0.000342
642 0.000336
643 0.000329
644 0.000322
645 0.000323
646 0.000321
647 0.000322
648 0.000323
649 0.000321
650 0.000322
651 0.000323
652 0.000327
653 0.000337
654 0.000341
655 0.000346
656 0.000352
657 0.000362
658 0.000363
659 0.000364
660 0.000372
661 0.000380
662 0.000390
663 0.000398
664 0.000404
665 0.000408
666 0.000408
667 0.000407
668 0.000408
669 0.000407
670 0.000406
671 0.000405
672 0.000405
673 0.000399
674 0.000394
675 0.000389
676 0.000378
677 0.000369
678 0.000359
679 0.000354
680 0.000349
681 0.000343
682 0.000335
683 0.000322
684 0.000309
685 0.000302
686 0.000296
687 0.000290
688 0.000278
689 0.000266
690 0.000256
691 0.000247
692 0.000240
693 0.000237
694 0.000230
695 0.000224
696 0.000216
697 0.000208
698 0.000204
699 0.000202
700 0.000202
701 0.000200
702 0.000198
703 0.000196
704 0.000193
705 0.000185
706 0.000185
707 0.000188
708 0.000194
709 0.000202
710 0.000209
711 0.000212
712 0.000217
713 0.000220
714 0.000224
715 0.000227
716 0.000230
717 0.000228
718 0.000230
719 0.000232
720 0.000227
721 0.000229
722 0.000234
723 0.000234
724 0.000236
725 0.000229
726 0.000218
727 0.000216
728 0.000211
729 0.000211
730 0.000214
731 0.000215
732 0.000213
733 0.000213
734 0.000209
735 0.000206
736 0.000207
737 0.000209
738 0.000210
739 0.000208
740 0.000206
741 0.000202
742 0.000198
743 0.000196
744 0.000195
745 0.000193
746 0.000190
747 0.000189
748 0.000184
749 0.000178
750 0.000178
751 0.000181
752 0.000186
753 0.000190
754 0.000192
755 0.000196
756 0.000195
757 0.000193
758 0.000191
759 0.000189
760 0.000186
761 0.000192
762 0.000192
763 0.000196
764 0.000200
765 0.000201
766 0.000200
767 0.000197
768 0.000194
769 0.000190
770 0.000182
771 0.000180
772 0.000179
773 0.000176
774 0.000176
775 0.000176
776 0.000173
777 0.000175
778 0.000179
779 0.000181
780 0.000186
781 0.000191
782 0.000195
783 0.000189
784 0.000183
785 0.000180
786 0.000179
787 0.000175
788 0.000176
789 0.000176
790 0.000174
791 0.000174
792 0.000170
793 0.000166
794 0.000165
795 0.000165
796 0.000167
797 0.000170
798 0.000171
799 0.000175
800 0.000181
801 0.000186
802 0.000188
803 0.000190
804 0.000193
805 0.000199
806 0.000207
807 0.000213
808 0.000214
809 0.000213
