# i correlation
1 0.001988
2 0.001918
3 0.001860
4 0.001811
5 0.001763
6 0.001725
7 0.001700
8 0.001682
9 0.001658
10 0.001627
11 0.001596
12 0.001570
13 0.001551
14 0.001525
15 0.001491
16 0.001465
17 0.001439
18 0.001424
19 0.001415
20 0.001406
21 0.001403
22 0.001400
23 0.001389
24 0.001375
25 0.001367
26 0.001363
27 0.001349
28 0.001336
29 0.001325
30 0.001320
31 0.001310
32 0.001295
33 0.001289
34 0.001280
35 0.001279
36 0.001281
37 0.001279
38 0.001270
39 0.001269
40 0.001273
41 0.001278
42 0.001273
43 0.001266
44 0.001255
45 0.001239
46 0.001219
47 0.001202
48 0.001201
49 0.001212
50 0.001216
51 0.001222
52 0.001227
53 0.001221
54 0.001220
55 0.001209
56 0.001200
57 0.001193
58 0.001192
59 0.001198
60 0.001212
61 0.001222
62 0.001226
63 0.001233
64 0.001233
65 0.001232
66 0.001222
67 0.001212
68 0.001209
69 0.001202
70 0.001192
71 0.001185
72 0.001182
73 0.001180
74 0.001178
75 0.001172
76 0.001165
77 0.001154
78 0.001138
79 0.001125
80 0.001112
81 0.001099
82 0.001098
83 0.001092
84 0.001086
85 0.001087
86 0.001084
87 0.001080
88 0.001070
89 0.001065
90 0.001059
91 0.001056
92 0.001050
93 0.001037
94 0.001014
95 0.001004
96 0.000998
97 0.000981
98 0.000966
99 0.000946
100 0.000937
101 0.000936
102 0.000930
103 0.000932
104 0.000935
105 0.000936
106 0.000932
107 0.000929
108 0.000930
109 0.000932
110 0.000936
111 0.000941
112 0.000946
113 0.000946
114 0.000948
115 0.000943
116 0.000932
117 0.000935
118 0.000928
119 0.000908
120 0.000891
121 0.000876
122 0.000866
123 0.000863
124 0.000863
125 0.000865
126 0.000862
127 0.000852
128 0.000837
129 0.000821
130 0.000805
131 0.000802
132 0.000794
133 0.000802
134 0.000807
135 0.000814
136 0.000815
137 0.000823
138 0.000834
139 0.000841
140 0.000843
141 0.000841
142 0.000837
143 0.000841
144 0.000837
145 0.000843
146 0.000851
147 0.000867
148 0.000873
149 0.000874
150 0.000874
151 0.000885
152 0.000892
153 0.000897
154 0.000904
155 0.000908
156 0.000902
157 0.000897
158 0.000882
159 0.000874
160 0.000870
161 0.000877
162 0.000875
163 0.000877
164 0.000881
165 0.000888
166 0.000892
167 0.000892
168 0.000896
169 0.000896
170 0.000888
171 0.000867
172 0.000847
173 0.000834
174 0.000829
175 0.000835
176 0.000837
177 0.000839
178 0.000841
179 0.000841
180 0.000829
181 0.000809
182 0.000796
183 0.000791
184 0.000776
185 0.000761
186 0.000755
187 0.000750
188 0.000746
189 0.000739
190 0.000733
191 0.000728
192 0.000725
193 0.000721
194 0.000724
195 0.000719
196 0.000720
197 0.000722
198 0.000724
199 0.000731
200 0.000739
201 0.000744
202 0.000747
203 0.000754
204 0.000758
205 0.000760
206 0.000768
207 0.000771
208 0.000774
209 0.000776
210 0.000771
211 0.000764
212 0.000761
213 0.000760
214 0.000760
215 0.000762
216 0.000769
217 0.000777
218 0.000779
219 0.000781
220 0.000783
221 0.000783
222 0.000784
223 0.000786
224 0.000785
225 0.000783
226 0.000783
227 0.000789
228 0.000801
229 0.000814
230 0.000825
231 0.000835
232 0.000835
233 0.000829
234 0.000821
235 0.000815
236 0.000806
237 0.000802
238 0.000795
239 0.000793
240 0.000790
241 0.000779
242 0.000772
243 0.000775
244 0.000769
245 0.000747
246 0.000731
247 0.000717
248 0.000705
249 0.000689
250 0.000678
251 0.000673
252 0.000676
253 0.000677
254 0.000669
255 0.000665
256 0.000662
257 0.000673
258 0.000680
259 0.000680
260 0.000676
261 0.000672
262 0.000669
263 0.000658
264 0.000645
265 0.000641
266 0.000642
267 0.000635
268 0.000629
269 0.000628
270 0.000621
271 0.000618
272 0.000615
273 0.000607
274 0.000600
275 0.000588
276 0.000580
277 0.000572
278 0.000568
279 0.000569
280 0.000566
281 0.000556
282 0.000548
283 0.000546
284 0.000541
285 0.000534
286 0.000533
287 0.000528
288 0.000530
289 0.000526
290 0.000528
291 0.000529
292 0.000544
293 0.000553
294 0.000562
295 0.000568
296 0.000569
297 0.000567
298 0.000561
299 0.000557
300 0.000558
301 0.000555
302 0.000559
303 0.000563
304 0.000563
305 0.000561
306 0.000561
307 0.000553
308 0.000556
309 0.000555
310 0.000550
311 0.000546
312 0.000553
313 0.000555
314 0.000560
315 0.000565
316 0.000575
317 0.000587
318 0.000598
319 0.000605
320 0.000612
321 0.000619
322 0.000627
323 0.000630
324 0.000633
325 0.000633
326 0.000634
327 0.000633
328 0.000633
329 0.000632
330 0.000634
331 0.000638
332 0.000636
333 0.000637
334 0.000631
335 0.000628
336 0.000619
337 0.000615
338 0.000609
339 0.000608
340 0.000605
341 0.000597
342 0.000590
343 0.000584
344 0.000581
345 0.000576
346 0.000572
347 0.000569
348 0.000568
349 0.000565
350 0.000556
351 0.000550
352 0.000541
353 0.000535
354 0.000535
355 0.000535
356 0.000535
357 0.000537
358 0.000539
359 0.000536
360 0.000535
361 0.000537
362 0.000540
363 0.000548
364 0.000560
365 0.000571
366 0.000578
367 0.000580
368 0.000583
369 0.000583
370 0.000584
371 0.000578
372 0.000576
373 0.000575
374 0.000576
375 0.000577
376 0.000581
377 0.000587
378 0.000594
379 0.000594
380 0.000597
381 0.000599
382 0.000605
383 0.000609
384 0.000614
385 0.000613
386 0.000611
387 0.000609
388 0.000602
389 0.000592
390 0.000586
391 0.000592
392 0.000600
393 0.000603
394 0.000607
395 0.000607
396 0.000608
397 0.000608
398 0.000607
399 0.000607
400 0.000617
401 0.000622
402 0.000622
403 0.000623
404 0.000632
405 0.000635
406 0.000641
407 0.000641
408 0.000642
409 0.000643
410 0.000634
411 0.000617
412 0.000598
413 0.000588
414 0.000577
415 0.000560
416 0.000542
417 0.000531
418 0.000520
419 0.000508
420 0.000495
421 0.000482
422 0.000475
423 0.000470
424 0.000455
425 0.000444
426 0.000444
427 0.000445
428 0.000438
429 0.000435
430 0.000435
431 0.000437
432 0.000431
433 0.000427
434 0.000424
435 0.000424
436 0.000424
437 0.000428
438 0.000425
439 0.000426
440 0.000426
441 0.000430
442 0.000426
443 0.000427
444 0.000430
445 0.000438
446 0.000444
447 0.000448
448 0.000451
449 0.000456
450 0.000456
451 0.000456
452 0.000456
453 0.000459
454 0.000458
455 0.000459
456 0.000464
457 0.000470
458 0.000474
459 0.000479
460 0.000484
461 0.000482
462 0.000472
463 0.000470
464 0.000467
465 0.000463
466 0.000464
467 0.000466
468 0.000468
469 0.000471
470 0.000473
471 0.000478
472 0.000477
473 0.000472
474 0.000469
475 0.000465
476 0.000458
477 0.000452
478 0.000448
479 0.000440
480 0.000435
481 0.000428
482 0.000418
483 0.000405
484 0.000385
485 0.000368
486 0.000353
487 0.000345
488 0.000334
489 0.000330
490 0.000326
491 0.000323
492 0.000318
493 0.000308
494 0.000302
495 0.000296
496 0.000289
497 0.000281
498 0.000269
499 0.000263
500 0.000263
501 0.000266
502 0.000269
503 0.000264
504 0.000256
505 0.000247
506 0.000242
507 0.000233
508 0.000231
509 0.000231
510 0.000235
511 0.000242
512 0.000244
513 0.000246
514 0.000250
515 0.000263
516 0.000274
517 0.000285
518 0.000294
519 0.000302
520 0.000304
521 0.000305
522 0.000304
523 0.000304
524 0.000300
525 0.000293
526 0.000283
527 0.000278
528 0.000268
529 0.000263
530 0.000261
531 0.000268
532 0.000271
533 0.000272
534 0.000274
535 0.000272
536 0.000265
537 0.000262
538 0.000254
539 0.000254
540 0.000257
541 0.000260
542 0.000267
543 0.000274
544 0.000276
545 0.000278
546 0.000277
547 0.000278
548 0.000280
549 0.000281
550 0.000277
551 0.000278
552 0.000282
553 0.000282
554 0.000284
555 0.000285
556 0.000285
557 0.000285
558 0.000279
559 0.000275
560 0.000277
561 0.000283
562 0.000285
563 0.000281
564 0.000282
565 0.000281
566 0.000279
567 0.000282
568 0.000287
569 0.000286
570 0.000289
571 0.000288
572 0.000290
573 0.000290
574 0.000294
575 0.000294
576 0.000295
577 0.000294
578 0.000295
579 0.000293
580 0.000293
581 0.000300
582 0.000304
583 0.000311
584 0.000323
585 0.000330
586 0.000340
587 0.000344
588 0.000346
589 0.000338
590 0.000326
591 0.000317
592 0.000315
593 0.000314
594 0.000310
595 0.000309
596 0.000307
597 0.000309
598 0.000311
599 0.000305
600 0.000305
601 0.000302
602 0.000301
603 0.000300
604 0.000299
605 0.000301
606 0.000307
607 0.000310
608 0.000312
609 0.000319
610 0.000321
611 0.000324
612 0.000328
613 0.000324
614 0.000323
615 0.000315
616 0.000314
617 0.000313
618 0.000309
619 0.000301
620 0.000298
621 0.000294
622 0.000294
623 0.000295
624 0.000297
625 0.000306
626 0.000312
627 0.000316
628 0.000321
629 0.000321
630 0.000318
631 0.000307
632 0.000302
633 0.000299
634 0.000299
635 0.000304
636 0.000311
637 0.000315
638 0.000313
639 0.000312
640 0.000308
641 0.000302
642 0.000294
643 0.000289
644 0.000284
645 0.000277
646 0.000274
647 0.000272
648 0.000264
649 0.000262
650 0.000254
651 0.000243
652 0.000232
653 0.000226
654 0.000223
655 0.000219
656 0.000216
657 0.000218
658 0.000222
659 0.000221
660 0.000219
661 0.000217
662 0.000214
663 0.000214
664 0.000209
665 0.000210
666 0.000217
667 0.000218
668 0.000218
669 0.000220
670 0.000225
671 0.000226
672 0.000226
673 0.000225
674 0.000223
675 0.000219
676 0.000219
677 0.000227
678 0.000235
679 0.000245
680 0.000258
681 0.000263
682 0.000262
683 0.000256
684 0.000259
685 0.000261
686 0.000264
687 0.000268
688 0.000276
689 0.000279
690 0.000279
691 0.000273
692 0.000270
693 0.000263
694 0.000260
695 0.000256
696 0.000258
697 0.000260
698 0.000263
699 0.000271
700 0.000277
701 0.000280
702 0.000283
703 0.000287
704 0.000286
705 0.000278
706 0.000270
707 0.000267
708 0.000262
709 0.000261
710 0.000262
711 0.000259
712 0.000257
713 0.000253
714 0.000243
715 0.000234
716 0.000221
717 0.000214
718 0.000209
719 0.000205
720 0.000203
721 0.000205
722 0.000212
723 0.000219
724 0.000223
725 0.000230
726 0.000231
727 0.000227
728 0.000220
729 0.000218
730 0.000217
731 0.000219
732 0.000220
733 0.000221
734 0.000221
735 0.000223
736 0.000220
737 0.000214
738 0.000210
739 0.000206
740 0.000207
741 0.000205
742 0.000201
743 0.000201
744 0.000200
745 0.000194
746 0.000189
747 0.000185
748 0.000184
749 0.000184
750 0.000186
751 0.000186
752 0.000185
753 0.000187
754 0.000187
755 0.000183
756 0.000178
757 0.000173
758 0.000166
759 0.000158
760 0.000153
761 0.000156
762 0.000156
763 0.000160
764 0.000163
765 0.000159
766 0.000159
767 0.000158
768 0.000155
769 0.000152
770 0.000147
771 0.000145
772 0.000145
773 0.000151
774 0.000158
775 0.000165
776 0.000175
777 0.000187
778 0.000189
779 0.000190
780 0.000194
781 0.000195
782 0.000196
783 0.000198
784 0.000201
785 0.000205
786 0.000206
787 0.000208
788 0.000207
789 0.000206
790 0.000203
791 0.000198
792 0.000199
793 0.000198
794 0.000197
795 0.000198
796 0.000198
797 0.000196
798 0.000191
799 0.000188
800 0.000185
801 0.000182
802 0.000178
803 0.000174
804 0.000173
805 0.000174
806 0.000169
807 0.000163
808 0.000159
809 0.000157
