# i correlation
1 0.001847
2 0.001769
3 0.001706
4 0.001648
5 0.001598
6 0.001556
7 0.001523
8 0.001500
9 0.001486
10 0.001473
11 0.001457
12 0.001442
13 0.001435
14 0.001431
15 0.001425
16 0.001412
17 0.001400
18 0.001383
19 0.001370
20 0.001357
21 0.001340
22 0.001326
23 0.001318
24 0.001313
25 0.001301
26 0.001300
27 0.001291
28 0.001282
29 0.001272
30 0.001260
31 0.001260
32 0.001261
33 0.001253
34 0.001241
35 0.001228
36 0.001220
37 0.001208
38 0.001201
39 0.001207
40 0.001208
41 0.001211
42 0.001214
43 0.001222
44 0.001229
45 0.001232
46 0.001225
47 0.001219
48 0.001216
49 0.001210
50 0.001201
51 0.001196
52 0.001195
53 0.001204
54 0.001220
55 0.001228
56 0.001225
57 0.001217
58 0.001217
59 0.001217
60 0.001210
61 0.001201
62 0.001192
63 0.001186
64 0.001180
65 0.001175
66 0.001163
67 0.001152
68 0.001139
69 0.001130
70 0.001122
71 0.001109
72 0.001091
73 0.001072
74 0.001059
75 0.001044
76 0.001035
77 0.001022
78 0.001012
79 0.000998
80 0.000995
81 0.000987
82 0.000975
83 0.000969
84 0.000972
85 0.000972
86 0.000964
87 0.000950
88 0.000938
89 0.000938
90 0.000927
91 0.000923
92 0.000916
93 0.000913
94 0.000911
95 0.000912
96 0.000907
97 0.000913
98 0.000926
99 0.000943
100 0.000955
101 0.000964
102 0.000975
103 0.000983
104 0.000987
105 0.000983
106 0.000980
107 0.000975
108 0.000962
109 0.000957
110 0.000951
111 0.000941
112 0.000931
113 0.000931
114 0.000925
115 0.000932
116 0.000937
117 0.000951
118 0.000962
119 0.000967
120 0.000966
121 0.000971
122 0.000968
123 0.000958
124 0.000946
125 0.000940
126 0.000927
127 0.000906
128 0.000888
129 0.000872
130 0.000860
131 0.000846
132 0.000829
133 0.000820
134 0.000808
135 0.000793
136 0.000780
137 0.000765
138 0.000744
139 0.000735
140 0.000729
141 0.000719
142 0.000719
143 0.000716
144 0.000713
145 0.000710
146 0.000699
147 0.000692
148 0.000683
149 0.000674
150 0.000667
151 0.000655
152 0.000649
153 0.000640
154 0.000639
155 0.000635
156 0.000637
157 0.000639
158 0.000642
159 0.000643
160 0.000645
161 0.000648
162 0.000648
163 0.000646
164 0.000647
165 0.000646
166 0.000646
167 0.000641
168 0.000641
169 0.000647
170 0.000647
171 0.000654
172 0.000658
173 0.000661
174 0.000661
175 0.000660
176 0.000663
177 0.000656
178 0.000647
179 0.000643
180 0.000635
181 0.000631
182 0.000629
183 0.000626
184 0.000626
185 0.000623
186 0.000620
187 0.000617
188 0.000616
189 0.000605
190 0.000595
191 0.000589
192 0.000585
193 0.000580
194 0.000573
195 0.000565
196 0.000559
197 0.000551
198 0.000548
199 0.000548
200 0.000550
201 0.000551
202 0.000558
203 0.000561
204 0.000564
205 0.000561
206 0.000558
207 0.000549
208 0.000538
209 0.000528
210 0.000524
211 0.000517
212 0.000517
213 0.000519
214 0.000515
215 0.000522
216 0.000529
217 0.000538
218 0.000539
219 0.000548
220 0.000560
221 0.000562
222 0.000563
223 0.000560
224 0.000559
225 0.000560
226 0.000571
227 0.000583
228 0.000596
229 0.000601
230 0.000606
231 0.000611
232 0.000611
233 0.000601
234 0.000592
235 0.000588
236 0.000584
237 0.000578
238 0.000572
239 0.000572
240 0.000580
241 0.000588
242 0.000603
243 0.000617
244 0.000623
245 0.000625
246 0.000628
247 0.000632
248 0.000633
249 0.000632
250 0.000624
251 0.000618
252 0.000617
253 0.000613
254 0.000602
255 0.000591
256 0.000579
257 0.000565
258 0.000556
259 0.000550
260 0.000548
261 0.000550
262 0.000548
263 0.000546
264 0.000542
265 0.000531
266 0.000522
267 0.000520
268 0.000514
269 0.000507
270 0.000500
271 0.000500
272 0.000495
273 0.000488
274 0.000489
275 0.000490
276 0.000489
277 0.000487
278 0.000481
279 0.000480
280 0.000488
281 0.000492
282 0.000500
283 0.000505
284 0.000513
285 0.000522
286 0.000524
287 0.000528
288 0.000529
289 0.000538
290 0.000553
291 0.000565
292 0.000572
293 0.000580
294 0.000593
295 0.000602
296 0.000608
297 0.000610
298 0.000609
299 0.000616
300 0.000626
301 0.000626
302 0.000620
303 0.000617
304 0.000610
305 0.000604
306 0.000601
307 0.000598
308 0.000597
309 0.000594
310 0.000581
311 0.000563
312 0.000548
313 0.000545
314 0.000539
315 0.000542
316 0.000540
317 0.000534
318 0.000531
319 0.000526
320 0.000519
321 0.000517
322 0.000517
323 0.000525
324 0.000525
325 0.000529
326 0.000536
327 0.000537
328 0.000537
329 0.000534
330 0.000532
331 0.000528
332 0.000530
333 0.000533
334 0.000531
335 0.000529
336 0.000522
337 0.000517
338 0.000515
339 0.000506
340 0.000497
341 0.000497
342 0.000498
343 0.000501
344 0.000507
345 0.000516
346 0.000531
347 0.000545
348 0.000559
349 0.000569
350 0.000578
351 0.000579
352 0.000585
353 0.000591
354 0.000599
355 0.000601
356 0.000595
357 0.000593
358 0.000588
359 0.000584
360 0.000587
361 0.000595
362 0.000606
363 0.000616
364 0.000629
365 0.000633
366 0.000625
367 0.000624
368 0.000626
369 0.000626
370 0.000624
371 0.000627
372 0.000621
373 0.000610
374 0.000609
375 0.000602
376 0.000594
377 0.000581
378 0.000574
379 0.000564
380 0.000557
381 0.000550
382 0.000536
383 0.000517
384 0.000507
385 0.000507
386 0.000510
387 0.000513
388 0.000519
389 0.000526
390 0.000530
391 0.000536
392 0.000535
393 0.000534
394 0.000531
395 0.000525
396 0.000522
397 0.000521
398 0.000519
399 0.000515
400 0.000518
401 0.000521
402 0.000522
403 0.000527
404 0.000530
405 0.000525
406 0.000526
407 0.000533
408 0.000539
409 0.000539
410 0.000537
411 0.000532
412 0.000530
413 0.000532
414 0.000532
415 0.000535
416 0.000539
417 0.000541
418 0.000550
419 0.000561
420 0.000567
421 0.000572
422 0.000578
423 0.000581
424 0.000580
425 0.000581
426 0.000581
427 0.000580
428 0.000575
429 0.000569
430 0.000569
431 0.000562
432 0.000561
433 0.000566
434 0.000571
435 0.000575
436 0.000575
437 0.000568
438 0.000554
439 0.000545
440 0.000530
441 0.000511
442 0.000492
443 0.000474
444 0.000456
445 0.000450
446 0.000450
447 0.000453
448 0.000459
449 0.000470
450 0.000479
451 0.000487
452 0.000494
453 0.000500
454 0.000503
455 0.000507
456 0.000511
457 0.000512
458 0.000504
459 0.000498
460 0.000490
461 0.000483
462 0.000478
463 0.000474
464 0.000465
465 0.000465
466 0.000465
467 0.000465
468 0.000463
469 0.000464
470 0.000467
471 0.000470
472 0.000470
473 0.000473
474 0.000482
475 0.000486
476 0.000488
477 0.000490
478 0.000494
479 0.000493
480 0.000492
481 0.000489
482 0.000487
483 0.000490
484 0.000488
485 0.000487
486 0.000484
487 0.000476
488 0.000467
489 0.000463
490 0.000459
491 0.000455
492 0.000453
493 0.000449
494 0.000452
495 0.000456
496 0.000457
497 0.000460
498 0.000461
499 0.000460
500 0.000460
501 0.000455
502 0.000449
503 0.000442
504 0.000436
505 0.000426
506 0.000419
507 0.000414
508 0.000402
509 0.000397
510 0.000393
511 0.000392
512 0.000391
513 0.000386
514 0.000384
515 0.000380
516 0.000375
517 0.000374
518 0.000364
519 0.000360
520 0.000355
521 0.000353
522 0.000349
523 0.000349
524 0.000343
525 0.000339
526 0.000337
527 0.000337
528 0.000336
529 0.000335
530 0.000334
531 0.000333
532 0.000329
533 0.000323
534 0.000317
535 0.000317
536 0.000322
537 0.000326
538 0.000333
539 0.000334
540 0.000337
541 0.000339
542 0.000332
543 0.000335
544 0.000332
545 0.000328
546 0.000322
547 0.000314
548 0.000308
549 0.000303
550 0.000302
551 0.000303
552 0.000300
553 0.000295
554 0.000292
555 0.000297
556 0.000299
557 0.000296
558 0.000290
559 0.000284
560 0.000280
561 0.000267
562 0.000256
563 0.000252
564 0.000247
565 0.000241
566 0.000231
567 0.000227
568 0.000224
569 0.000218
570 0.000215
571 0.000205
572 0.000200
573 0.000192
574 0.000190
575 0.000195
576 0.000200
577 0.000205
578 0.000207
579 0.000208
580 0.000211
581 0.000215
582 0.000217
583 0.000213
584 0.000212
585 0.000210
586 0.000203
587 0.000195
588 0.000179
589 0.000173
590 0.000176
591 0.000184
592 0.000191
593 0.000202
594 0.000210
595 0.000222
596 0.000231
597 0.000238
598 0.000242
599 0.000246
600 0.000250
601 0.000245
602 0.000234
603 0.000228
604 0.000222
605 0.000218
606 0.000214
607 0.000213
608 0.000213
609 0.000213
610 0.000212
611 0.000204
612 0.000196
613 0.000192
614 0.000187
615 0.000182
616 0.000177
617 0.000175
618 0.000177
619 0.000179
620 0.000177
621 0.000179
622 0.000177
623 0.000176
624 0.000170
625 0.000166
626 0.000162
627 0.000158
628 0.000154
629 0.000150
630 0.000144
631 0.000140
632 0.000138
633 0.000133
634 0.000132
635 0.000130
636 0.000124
637 0.000115
638 0.000110
639 0.000109
640 0.000113
641 0.000113
642 0.000113
643 0.000107
644 0.000101
645 0.000096
646 0.000093
647 0.000090
648 0.000090
649 0.000094
650 0.000096
651 0.000096
652 0.000097
653 0.000101
654 0.000107
655 0.000109
656 0.000109
657 0.000105
658 0.000101
659 0.000099
660 0.000092
661 0.000089
662 0.000090
663 0.000092
664 0.000092
665 0.000093
666 0.000091
667 0.000089
668 0.000085
669 0.000082
670 0.000079
671 0.000076
672 0.000070
673 0.000066
674 0.000063
675 0.000060
676 0.000056
677 0.000054
678 0.000053
679 0.000049
680 0.000049
681 0.000049
682 0.000049
683 0.000048
684 0.000045
685 0.000047
686 0.000047
687 0.000045
688 0.000047
689 0.000051
690 0.000054
691 0.000057
692 0.000056
693 0.000055
694 0.000058
695 0.000057
696 0.000055
697 0.000062
698 0.000072
699 0.000083
700 0.000095
701 0.000105
702 0.000116
703 0.000123
704 0.000126
705 0.000124
706 0.000118
707 0.000115
708 0.000115
709 0.000119
710 0.000123
711 0.000123
712 0.000127
713 0.000126
714 0.000128
715 0.000129
716 0.000133
717 0.000139
718 0.000150
719 0.000159
720 0.000163
721 0.000166
722 0.000170
723 0.000173
724 0.000177
725 0.000178
726 0.000183
727 0.000183
728 0.000181
729 0.000178
730 0.000172
731 0.000169
732 0.000167
733 0.000165
734 0.000162
735 0.000158
736 0.000154
737 0.000146
738 0.000140
739 0.000138
740 0.000134
741 0.000129
742 0.000130
743 0.000130
744 0.000126
745 0.000123
746 0.000120
747 0.000117
748 0.000116
749 0.000115
750 0.000115
751 0.000118
752 0.000122
753 0.000125
754 0.000126
755 0.000128
756 0.000135
757 0.000146
758 0.000155
759 0.000161
760 0.000162
761 0.000157
762 0.000155
763 0.000151
764 0.000145
765 0.000139
766 0.000136
767 0.000135
768 0.000133
769 0.000132
770 0.000128
771 0.000125
772 0.000123
773 0.000119
774 0.000119
775 0.000119
776 0.000118
777 0.000119
778 0.000122
779 0.000126
780 0.000126
781 0.000124
782 0.000125
783 0.000127
784 0.000132
785 0.000132
786 0.000130
787 0.000128
788 0.000126
789 0.000125
790 0.000121
791 0.000120
792 0.000121
793 0.000121
794 0.000121
795 0.000119
796 0.000118
797 0.000116
798 0.000118
799 0.000120
800 0.000124
801 0.000128
802 0.000130
803 0.000135
804 0.000139
805 0.000138
806 0.000136
807 0.000139
808 0.000143
809 0.000144
