# i correlation
1 0.001869
2 0.001783
3 0.001707
4 0.001658
5 0.001627
6 0.001606
7 0.001586
8 0.001567
9 0.001547
10 0.001519
11 0.001496
12 0.001480
13 0.001464
14 0.001448
15 0.001421
16 0.001395
17 0.001374
18 0.001363
19 0.001362
20 0.001349
21 0.001338
22 0.001334
23 0.001333
24 0.001330
25 0.001321
26 0.001316
27 0.001307
28 0.001302
29 0.001298
30 0.001292
31 0.001286
32 0.001282
33 0.001278
34 0.001267
35 0.001250
36 0.001245
37 0.001243
38 0.001248
39 0.001239
40 0.001225
41 0.001206
42 0.001200
43 0.001193
44 0.001179
45 0.001164
46 0.001150
47 0.001143
48 0.001137
49 0.001130
50 0.001124
51 0.001132
52 0.001137
53 0.001132
54 0.001116
55 0.001104
56 0.001093
57 0.001074
58 0.001061
59 0.001045
60 0.001041
61 0.001043
62 0.001045
63 0.001049
64 0.001054
65 0.001056
66 0.001043
67 0.001022
68 0.000999
69 0.000983
70 0.000978
71 0.000972
72 0.000974
73 0.000963
74 0.000959
75 0.000962
76 0.000969
77 0.000968
78 0.000960
79 0.000954
80 0.000950
81 0.000950
82 0.000947
83 0.000945
84 0.000938
85 0.000927
86 0.000919
87 0.000909
88 0.000908
89 0.000907
90 0.000905
91 0.000896
92 0.000882
93 0.000869
94 0.000860
95 0.000861
96 0.000859
97 0.000854
98 0.000859
99 0.000860
100 0.000863
101 0.000865
102 0.000869
103 0.000873
104 0.000880
105 0.000883
106 0.000875
107 0.000866
108 0.000852
109 0.000846
110 0.000837
111 0.000831
112 0.000828
113 0.000831
114 0.000831
115 0.000829
116 0.000823
117 0.000818
118 0.000811
119 0.000803
120 0.000800
121 0.000802
122 0.000801
123 0.000795
124 0.000790
125 0.000783
126 0.000786
127 0.000792
128 0.000798
129 0.000794
130 0.000791
131 0.000792
132 0.000785
133 0.000777
134 0.000770
135 0.000770
136 0.000776
137 0.000785
138 0.000788
139 0.000786
140 0.000793
141 0.000789
142 0.000780
143 0.000770
144 0.000768
145 0.000760
146 0.000751
147 0.000748
148 0.000737
149 0.000726
150 0.000721
151 0.000716
152 0.000714
153 0.000722
154 0.000732
155 0.000734
156 0.000733
157 0.000724
158 0.000724
159 0.000724
160 0.000726
161 0.000726
162 0.000727
163 0.000732
164 0.000735
165 0.000733
166 0.000737
167 0.000743
168 0.000745
169 0.000751
170 0.000744
171 0.000734
172 0.000716
173 0.000706
174 0.000695
175 0.000688
176 0.000683
177 0.000684
178 0.000684
179 0.000685
180 0.000688
181 0.000687
182 0.000688
183 0.000690
184 0.000684
185 0.000674
186 0.000660
187 0.000646
188 0.000643
189 0.000639
190 0.000633
191 0.000633
192 0.000647
193 0.000661
194 0.000662
195 0.000653
196 0.000644
197 0.000632
198 0.000618
199 0.000606
200 0.000607
201 0.000613
202 0.000626
203 0.000634
204 0.000630
205 0.000622
206 0.000613
207 0.000606
208 0.000600
209 0.000594
210 0.000584
211 0.000583
212 0.000577
213 0.000564
214 0.000559
215 0.000550
216 0.000555
217 0.000563
218 0.000570
219 0.000582
220 0.000588
221 0.000591
222 0.000592
223 0.000595
224 0.000591
225 0.000591
226 0.000602
227 0.000605
228 0.000604
229 0.000603
230 0.000603
231 0.000610
232 0.000616
233 0.000617
234 0.000614
235 0.000618
236 0.000623
237 0.000619
238 0.000608
239 0.000599
240 0.000595
241 0.000588
242 0.000582
243 0.000578
244 0.000574
245 0.000583
246 0.000587
247 0.000589
248 0.000584
249 0.000585
250 0.000580
251 0.000572
252 0.000567
253 0.000562
254 0.000562
255 0.000565
256 0.000559
257 0.000556
258 0.000558
259 0.000568
260 0.000565
261 0.000571
262 0.000577
263 0.000582
264 0.000585
265 0.000586
266 0.000580
267 0.000579
268 0.000586
269 0.000598
270 0.000603
271 0.000604
272 0.000602
273 0.000603
274 0.000605
275 0.000603
276 0.000599
277 0.000590
278 0.000586
279 0.000583
280 0.000576
281 0.000576
282 0.000578
283 0.000587
284 0.000596
285 0.000600
286 0.000587
287 0.000574
288 0.000560
289 0.000543
290 0.000530
291 0.000525
292 0.000519
293 0.000514
294 0.000508
295 0.000503
296 0.000494
297 0.000493
298 0.000499
299 0.000502
300 0.000508
301 0.000511
302 0.000506
303 0.000504
304 0.000500
305 0.000497
306 0.000503
307 0.000511
308 0.000515
309 0.000517
310 0.000515
311 0.000509
312 0.000507
313 0.000508
314 0.000512
315 0.000513
316 0.000514
317 0.000515
318 0.000504
319 0.000500
320 0.000501
321 0.000499
322 0.000496
323 0.000505
324 0.000512
325 0.000522
326 0.000525
327 0.000530
328 0.000528
329 0.000530
330 0.000525
331 0.000526
332 0.000526
333 0.000530
334 0.000531
335 0.000531
336 0.000533
337 0.000532
338 0.000536
339 0.000535
340 0.000530
341 0.000514
342 0.000498
343 0.000487
344 0.000479
345 0.000477
346 0.000476
347 0.000478
348 0.000474
349 0.000469
350 0.000465
351 0.000460
352 0.000453
353 0.000448
354 0.000439
355 0.000433
356 0.000427
357 0.000427
358 0.000429
359 0.000430
360 0.000430
361 0.000426
362 0.000428
363 0.000434
364 0.000438
365 0.000441
366 0.000444
367 0.000450
368 0.000456
369 0.000458
370 0.000462
371 0.000470
372 0.000480
373 0.000485
374 0.000488
375 0.000491
376 0.000489
377 0.000492
378 0.000488
379 0.000487
380 0.000485
381 0.000488
382 0.000490
383 0.000492
384 0.000491
385 0.000497
386 0.000502
387 0.000504
388 0.000505
389 0.000516
390 0.000519
391 0.000516
392 0.000509
393 0.000497
394 0.000495
395 0.000493
396 0.000499
397 0.000500
398 0.000496
399 0.000497
400 0.000492
401 0.000486
402 0.000479
403 0.000475
404 0.000471
405 0.000478
406 0.000489
407 0.000497
408 0.000502
409 0.000501
410 0.000497
411 0.000496
412 0.000501
413 0.000502
414 0.000501
415 0.000501
416 0.000493
417 0.000482
418 0.000476
419 0.000476
420 0.000481
421 0.000489
422 0.000499
423 0.000500
424 0.000495
425 0.000486
426 0.000477
427 0.000471
428 0.000473
429 0.000472
430 0.000467
431 0.000459
432 0.000457
433 0.000455
434 0.000456
435 0.000452
436 0.000446
437 0.000442
438 0.000438
439 0.000431
440 0.000427
441 0.000420
442 0.000411
443 0.000410
444 0.000401
445 0.000393
446 0.000382
447 0.000377
448 0.000373
449 0.000370
450 0.000360
451 0.000355
452 0.000353
453 0.000349
454 0.000350
455 0.000351
456 0.000348
457 0.000341
458 0.000336
459 0.000330
460 0.000329
461 0.000327
462 0.000329
463 0.000325
464 0.000324
465 0.000321
466 0.000328
467 0.000336
468 0.000332
469 0.000326
470 0.000317
471 0.000312
472 0.000306
473 0.000303
474 0.000298
475 0.000296
476 0.000294
477 0.000288
478 0.000281
479 0.000273
480 0.000265
481 0.000258
482 0.000249
483 0.000241
484 0.000232
485 0.000231
486 0.000235
487 0.000241
488 0.000246
489 0.000250
490 0.000253
491 0.000249
492 0.000250
493 0.000248
494 0.000251
495 0.000251
496 0.000250
497 0.000247
498 0.000254
499 0.000254
500 0.000256
501 0.000255
502 0.000252
503 0.000247
504 0.000244
505 0.000240
506 0.000239
507 0.000236
508 0.000237
509 0.000237
510 0.000244
511 0.000244
512 0.000247
513 0.000240
514 0.000227
515 0.000205
516 0.000187
517 0.000175
518 0.000170
519 0.000165
520 0.000163
521 0.000161
522 0.000155
523 0.000144
524 0.000137
525 0.000131
526 0.000128
527 0.000125
528 0.000125
529 0.000125
530 0.000129
531 0.000131
532 0.000137
533 0.000141
534 0.000147
535 0.000150
536 0.000156
537 0.000160
538 0.000166
539 0.000174
540 0.000179
541 0.000184
542 0.000185
543 0.000193
544 0.000195
545 0.000197
546 0.000202
547 0.000201
548 0.000204
549 0.000208
550 0.000216
551 0.000214
552 0.000218
553 0.000221
554 0.000223
555 0.000219
556 0.000218
557 0.000216
558 0.000219
559 0.000223
560 0.000225
561 0.000226
562 0.000229
563 0.000232
564 0.000237
565 0.000242
566 0.000246
567 0.000246
568 0.000246
569 0.000249
570 0.000250
571 0.000255
572 0.000258
573 0.000263
574 0.000268
575 0.000272
576 0.000280
577 0.000287
578 0.000288
579 0.000288
580 0.000279
581 0.000265
582 0.000261
583 0.000259
584 0.000262
585 0.000264
586 0.000261
587 0.000258
588 0.000266
589 0.000268
590 0.000270
591 0.000276
592 0.000280
593 0.000283
594 0.000285
595 0.000289
596 0.000290
597 0.000291
598 0.000294
599 0.000298
600 0.000299
601 0.000306
602 0.000310
603 0.000313
604 0.000306
605 0.000298
606 0.000289
607 0.000282
608 0.000278
609 0.000270
610 0.000265
611 0.000261
612 0.000257
613 0.000256
614 0.000258
615 0.000259
616 0.000267
617 0.000273
618 0.000273
619 0.000268
620 0.000264
621 0.000263
622 0.000267
623 0.000270
624 0.000273
625 0.000276
626 0.000277
627 0.000271
628 0.000268
629 0.000269
630 0.000273
631 0.000278
632 0.000281
633 0.000278
634 0.000276
635 0.000277
636 0.000276
637 0.000271
638 0.000268
639 0.000267
640 0.000269
641 0.000277
642 0.000277
643 0.000275
644 0.000273
645 0.000270
646 0.000263
647 0.000256
648 0.000260
649 0.000263
650 0.000265
651 0.000267
652 0.000270
653 0.000275
654 0.000285
655 0.000292
656 0.000301
657 0.000304
658 0.000308
659 0.000312
660 0.000321
661 0.000322
662 0.000319
663 0.000316
664 0.000311
665 0.000306
666 0.000299
667 0.000298
668 0.000304
669 0.000312
670 0.000312
671 0.000309
672 0.000310
673 0.000305
674 0.000305
675 0.000306
676 0.000304
677 0.000306
678 0.000305
679 0.000302
680 0.000300
681 0.000303
682 0.000302
683 0.000307
684 0.000308
685 0.000300
686 0.000296
687 0.000291
688 0.000288
689 0.000286
690 0.000291
691 0.000293
692 0.000293
693 0.000292
694 0.000291
695 0.000288
696 0.000288
697 0.000292
698 0.000296
699 0.000291
700 0.000283
701 0.000280
702 0.000282
703 0.000284
704 0.000286
705 0.000285
706 0.000288
707 0.000284
708 0.000281
709 0.000274
710 0.000266
711 0.000258
712 0.000258
713 0.000259
714 0.000260
715 0.000252
716 0.000245
717 0.000236
718 0.000225
719 0.000218
720 0.000215
721 0.000217
722 0.000217
723 0.000216
724 0.000209
725 0.000207
726 0.000203
727 0.000196
728 0.000194
729 0.000189
730 0.000186
731 0.000180
732 0.000180
733 0.000178
734 0.000179
735 0.000187
736 0.000192
737 0.000189
738 0.000180
739 0.000177
740 0.000175
741 0.000176
742 0.000177
743 0.000174
744 0.000173
745 0.000172
746 0.000171
747 0.000169
748 0.000165
749 0.000158
750 0.000147
751 0.000136
752 0.000130
753 0.000130
754 0.000135
755 0.000138
756 0.000135
757 0.000132
758 0.000126
759 0.000126
760 0.000128
761 0.000135
762 0.000139
763 0.000136
764 0.000134
765 0.000131
766 0.000133
767 0.000134
768 0.000138
769 0.000140
770 0.000140
771 0.000136
772 0.000138
773 0.000139
774 0.000140
775 0.000139
776 0.000138
777 0.000136
778 0.000134
779 0.000134
780 0.000131
781 0.000127
782 0.000119
783 0.000119
784 0.000116
785 0.000118
786 0.000120
787 0.000118
788 0.000116
789 0.000112
790 0.000109
791 0.000105
792 0.000099
793 0.000097
794 0.000098
795 0.000100
796 0.000106
797 0.000110
798 0.000111
799 0.000109
800 0.000105
801 0.000100
802 0.000101
803 0.000103
804 0.000105
805 0.000109
806 0.000108
807 0.000109
808 0.000111
809 0.000114
