# i correlation
1 0.001745
2 0.001653
3 0.001583
4 0.001528
5 0.001489
6 0.001450
7 0.001408
8 0.001371
9 0.001329
10 0.001303
11 0.001278
12 0.001255
13 0.001240
14 0.001234
15 0.001241
16 0.001246
17 0.001251
18 0.001254
19 0.001251
20 0.001250
21 0.001256
22 0.001266
23 0.001281
24 0.001285
25 0.001291
26 0.001291
27 0.001283
28 0.001270
29 0.001251
30 0.001235
31 0.001216
32 0.001195
33 0.001182
34 0.001175
35 0.001166
36 0.001150
37 0.001140
38 0.001130
39 0.001120
40 0.001117
41 0.001114
42 0.001113
43 0.001115
44 0.001112
45 0.001108
46 0.001121
47 0.001126
48 0.001130
49 0.001135
50 0.001147
51 0.001160
52 0.001170
53 0.001178
54 0.001178
55 0.001179
56 0.001170
57 0.001167
58 0.001165
59 0.001156
60 0.001147
61 0.001149
62 0.001147
63 0.001142
64 0.001140
65 0.001137
66 0.001120
67 0.001111
68 0.001110
69 0.001106
70 0.001096
71 0.001085
72 0.001075
73 0.001065
74 0.001064
75 0.001057
76 0.001053
77 0.001054
78 0.001060
79 0.001061
80 0.001059
81 0.001059
82 0.001054
83 0.001053
84 0.001046
85 0.001037
86 0.001021
87 0.001015
88 0.001006
89 0.001005
90 0.001004
91 0.001002
92 0.001011
93 0.001020
94 0.001017
95 0.001016
96 0.001017
97 0.001022
98 0.001024
99 0.001014
100 0.001002
101 0.000990
102 0.000983
103 0.000991
104 0.000995
105 0.000996
106 0.000990
107 0.000975
108 0.000972
109 0.000966
110 0.000960
111 0.000963
112 0.000961
113 0.000964
114 0.000964
115 0.000968
116 0.000969
117 0.000967
118 0.000968
119 0.000969
120 0.000970
121 0.000967
122 0.000955
123 0.000949
124 0.000935
125 0.000918
126 0.000905
127 0.000890
128 0.000872
129 0.000869
130 0.000859
131 0.000852
132 0.000838
133 0.000834
134 0.000831
135 0.000829
136 0.000826
137 0.000822
138 0.000821
139 0.000821
140 0.000821
141 0.000816
142 0.000814
143 0.000823
144 0.000838
145 0.000845
146 0.000857
147 0.000859
148 0.000859
149 0.000861
150 0.000862
151 0.000858
152 0.000853
153 0.000850
154 0.000855
155 0.000859
156 0.000859
157 0.000858
158 0.000861
159 0.000865
160 0.000872
161 0.000888
162 0.000897
163 0.000904
164 0.000907
165 0.000896
166 0.000893
167 0.000891
168 0.000884
169 0.000880
170 0.000876
171 0.000873
172 0.000874
173 0.000865
174 0.000851
175 0.000831
176 0.000813
177 0.000809
178 0.000802
179 0.000796
180 0.000792
181 0.000797
182 0.000801
183 0.000800
184 0.000798
185 0.000794
186 0.000793
187 0.000803
188 0.000816
189 0.000828
190 0.000825
191 0.000817
192 0.000814
193 0.000809
194 0.000805
195 0.000805
196 0.000805
197 0.000814
198 0.000814
199 0.000810
200 0.000804
201 0.000798
202 0.000787
203 0.000776
204 0.000767
205 0.000748
206 0.000734
207 0.000739
208 0.000748
209 0.000748
210 0.000746
211 0.000745
212 0.000745
213 0.000751
214 0.000765
215 0.000787
216 0.000803
217 0.000811
218 0.000820
219 0.000828
220 0.000843
221 0.000855
222 0.000855
223 0.000853
224 0.000854
225 0.000853
226 0.000845
227 0.000832
228 0.000819
229 0.000800
230 0.000784
231 0.000773
232 0.000758
233 0.000744
234 0.000728
235 0.000721
236 0.000715
237 0.000711
238 0.000710
239 0.000710
240 0.000705
241 0.000714
242 0.000734
243 0.000751
244 0.000766
245 0.000767
246 0.000766
247 0.000766
248 0.000765
249 0.000766
250 0.000779
251 0.000782
252 0.000776
253 0.000765
254 0.000753
255 0.000742
256 0.000731
257 0.000713
258 0.000705
259 0.000706
260 0.000702
261 0.000705
262 0.000706
263 0.000696
264 0.000687
265 0.000683
266 0.000681
267 0.000680
268 0.000682
269 0.000690
270 0.000705
271 0.000712
272 0.000714
273 0.000720
274 0.000725
275 0.000739
276 0.000753
277 0.000764
278 0.000770
279 0.000771
280 0.000775
281 0.000774
282 0.000770
283 0.000760
284 0.000751
285 0.000750
286 0.000737
287 0.000728
288 0.000717
289 0.000706
290 0.000702
291 0.000688
292 0.000682
293 0.000679
294 0.000676
295 0.000674
296 0.000677
297 0.000667
298 0.000659
299 0.000649
300 0.000651
301 0.000653
302 0.000659
303 0.000662
304 0.000662
305 0.000670
306 0.000680
307 0.000687
308 0.000697
309 0.000696
310 0.000692
311 0.000694
312 0.000695
313 0.000696
314 0.000691
315 0.000678
316 0.000663
317 0.000649
318 0.000642
319 0.000639
320 0.000631
321 0.000618
322 0.000603
323 0.000595
324 0.000590
325 0.000580
326 0.000580
327 0.000585
328 0.000593
329 0.000601
330 0.000608
331 0.000620
332 0.000622
333 0.000630
334 0.000632
335 0.000636
336 0.000645
337 0.000650
338 0.000647
339 0.000640
340 0.000630
341 0.000624
342 0.000620
343 0.000620
344 0.000618
345 0.000613
346 0.000612
347 0.000608
348 0.000610
349 0.000611
350 0.000602
351 0.000591
352 0.000579
353 0.000579
354 0.000590
355 0.000600
356 0.000602
357 0.000604
358 0.000609
359 0.000613
360 0.000609
361 0.000612
362 0.000609
363 0.000609
364 0.000620
365 0.000627
366 0.000630
367 0.000628
368 0.000625
369 0.000619
370 0.000621
371 0.000624
372 0.000622
373 0.000614
374 0.000608
375 0.000597
376 0.000586
377 0.000571
378 0.000559
379 0.000559
380 0.000554
381 0.000553
382 0.000556
383 0.000554
384 0.000551
385 0.000549
386 0.000546
387 0.000543
388 0.000554
389 0.000560
390 0.000566
391 0.000570
392 0.000580
393 0.000588
394 0.000593
395 0.000593
396 0.000594
397 0.000589
398 0.000592
399 0.000591
400 0.000590
401 0.000587
402 0.000580
403 0.000566
404 0.000561
405 0.000564
406 0.000559
407 0.000551
408 0.000550
409 0.000546
410 0.000540
411 0.000538
412 0.000530
413 0.000522
414 0.000519
415 0.000514
416 0.000511
417 0.000508
418 0.000504
419 0.000508
420 0.000508
421 0.000501
422 0.000498
423 0.000501
424 0.000502
425 0.000509
426 0.000509
427 0.000510
428 0.000509
429 0.000513
430 0.000509
431 0.000501
432 0.000500
433 0.000498
434 0.000494
435 0.000486
436 0.000480
437 0.000469
438 0.000460
439 0.000460
440 0.000463
441 0.000463
442 0.000466
443 0.000468
444 0.000475
445 0.000480
446 0.000482
447 0.000482
448 0.000483
449 0.000480
450 0.000479
451 0.000486
452 0.000485
453 0.000485
454 0.000486
455 0.000478
456 0.000465
457 0.000460
458 0.000458
459 0.000466
460 0.000466
461 0.000464
462 0.000471
463 0.000477
464 0.000480
465 0.000482
466 0.000495
467 0.000511
468 0.000515
469 0.000521
470 0.000526
471 0.000526
472 0.000533
473 0.000538
474 0.000536
475 0.000534
476 0.000522
477 0.000523
478 0.000524
479 0.000521
480 0.000516
481 0.000508
482 0.000498
483 0.000491
484 0.000487
485 0.000486
486 0.000475
487 0.000461
488 0.000452
489 0.000453
490 0.000452
491 0.000454
492 0.000454
493 0.000458
494 0.000461
495 0.000463
496 0.000464
497 0.000469
498 0.000473
499 0.000473
500 0.000476
501 0.000482
502 0.000484
503 0.000484
504 0.000482
505 0.000487
506 0.000487
507 0.000486
508 0.000493
509 0.000498
510 0.000500
511 0.000494
512 0.000488
513 0.000479
514 0.000470
515 0.000464
516 0.000459
517 0.000457
518 0.000458
519 0.000462
520 0.000464
521 0.000465
522 0.000466
523 0.000473
524 0.000475
525 0.000479
526 0.000487
527 0.000498
528 0.000509
529 0.000515
530 0.000515
531 0.000518
532 0.000518
533 0.000513
534 0.000507
535 0.000500
536 0.000490
537 0.000479
538 0.000468
539 0.000452
540 0.000437
541 0.000420
542 0.000409
543 0.000407
544 0.000405
545 0.000399
546 0.000399
547 0.000399
548 0.000402
549 0.000406
550 0.000411
551 0.000423
552 0.000435
553 0.000445
554 0.000454
555 0.000458
556 0.000465
557 0.000467
558 0.000464
559 0.000460
560 0.000452
561 0.000442
562 0.000435
563 0.000430
564 0.000422
565 0.000415
566 0.000406
567 0.000396
568 0.000383
569 0.000377
570 0.000376
571 0.000374
572 0.000380
573 0.000390
574 0.000399
575 0.000406
576 0.000408
577 0.000408
578 0.000409
579 0.000412
580 0.000417
581 0.000421
582 0.000424
583 0.000424
584 0.000418
585 0.000409
586 0.000404
587 0.000400
588 0.000400
589 0.000403
590 0.000407
591 0.000406
592 0.000404
593 0.000402
594 0.000396
595 0.000387
596 0.000377
597 0.000372
598 0.000369
599 0.000365
600 0.000356
601 0.000344
602 0.000334
603 0.000324
604 0.000315
605 0.000303
606 0.000298
607 0.000295
608 0.000298
609 0.000301
610 0.000295
611 0.000286
612 0.000281
613 0.000278
614 0.000282
615 0.000288
616 0.000302
617 0.000307
618 0.000308
619 0.000304
620 0.000298
621 0.000297
622 0.000298
623 0.000300
624 0.000302
625 0.000304
626 0.000306
627 0.000306
628 0.000301
629 0.000303
630 0.000302
631 0.000306
632 0.000304
633 0.000299
634 0.000295
635 0.000288
636 0.000283
637 0.000276
638 0.000261
639 0.000250
640 0.000242
641 0.000238
642 0.000230
643 0.000227
644 0.000232
645 0.000235
646 0.000237
647 0.000240
648 0.000245
649 0.000249
650 0.000250
651 0.000254
652 0.000257
653 0.000253
654 0.000252
655 0.000249
656 0.000243
657 0.000231
658 0.000218
659 0.000209
660 0.000199
661 0.000191
662 0.000185
663 0.000177
664 0.000171
665 0.000160
666 0.000153
667 0.000151
668 0.000147
669 0.000148
670 0.000152
671 0.000157
672 0.000163
673 0.000168
674 0.000170
675 0.000168
676 0.000169
677 0.000176
678 0.000186
679 0.000190
680 0.000193
681 0.000196
682 0.000193
683 0.000188
684 0.000183
685 0.000175
686 0.000170
687 0.000166
688 0.000161
689 0.000153
690 0.000151
691 0.000147
692 0.000148
693 0.000145
694 0.000149
695 0.000155
696 0.000159
697 0.000160
698 0.000160
699 0.000161
700 0.000163
701 0.000165
702 0.000162
703 0.000158
704 0.000157
705 0.000152
706 0.000147
707 0.000143
708 0.000134
709 0.000131
710 0.000128
711 0.000123
712 0.000120
713 0.000119
714 0.000118
715 0.000116
716 0.000114
717 0.000114
718 0.000112
719 0.000113
720 0.000111
721 0.000113
722 0.000116
723 0.000117
724 0.000116
725 0.000117
726 0.000117
727 0.000116
728 0.000113
729 0.000114
730 0.000109
731 0.000102
732 0.000097
733 0.000089
734 0.000082
735 0.000078
736 0.000077
737 0.000078
738 0.000078
739 0.000080
740 0.000077
741 0.000079
742 0.000084
743 0.000089
744 0.000094
745 0.000101
746 0.000104
747 0.000110
748 0.000115
749 0.000118
750 0.000118
751 0.000116
752 0.000118
753 0.000121
754 0.000122
755 0.000123
756 0.000121
757 0.000115
758 0.000105
759 0.000097
760 0.000095
761 0.000094
762 0.000095
763 0.000094
764 0.000093
765 0.000089
766 0.000079
767 0.000070
768 0.000064
769 0.000061
770 0.000062
771 0.000069
772 0.000071
773 0.000074
774 0.000077
775 0.000079
776 0.000080
777 0.000082
778 0.000089
779 0.000093
780 0.000095
781 0.000097
782 0.000097
783 0.000093
784 0.000086
785 0.000081
786 0.000078
787 0.000078
788 0.000074
789 0.000070
790 0.000068
791 0.000066
792 0.000061
793 0.000062
794 0.000063
795 0.000064
796 0.000066
797 0.000071
798 0.000075
799 0.000075
800 0.000072
801 0.000066
802 0.000059
803 0.000057
804 0.000057
805 0.000057
806 0.000053
807 0.000044
808 0.000036
809 0.000028
