# i correlation
1 0.001487
2 0.001395
3 0.001327
4 0.001276
5 0.001235
6 0.001204
7 0.001169
8 0.001140
9 0.001124
10 0.001111
11 0.001092
12 0.001077
13 0.001067
14 0.001049
15 0.001037
16 0.001021
17 0.001002
18 0.000985
19 0.000976
20 0.000961
21 0.000949
22 0.000939
23 0.000928
24 0.000928
25 0.000924
26 0.000922
27 0.000930
28 0.000931
29 0.000935
30 0.000943
31 0.000947
32 0.000932
33 0.000923
34 0.000931
35 0.000933
36 0.000932
37 0.000932
38 0.000931
39 0.000929
40 0.000919
41 0.000908
42 0.000896
43 0.000892
44 0.000886
45 0.000870
46 0.000861
47 0.000849
48 0.000841
49 0.000838
50 0.000816
51 0.000801
52 0.000786
53 0.000781
54 0.000781
55 0.000781
56 0.000776
57 0.000766
58 0.000755
59 0.000752
60 0.000742
61 0.000734
62 0.000715
63 0.000695
64 0.000680
65 0.000665
66 0.000645
67 0.000629
68 0.000634
69 0.000640
70 0.000642
71 0.000648
72 0.000652
73 0.000663
74 0.000677
75 0.000688
76 0.000696
77 0.000696
78 0.000699
79 0.000699
80 0.000699
81 0.000696
82 0.000702
83 0.000714
84 0.000715
85 0.000716
86 0.000714
87 0.000719
88 0.000727
89 0.000735
90 0.000745
91 0.000733
92 0.000720
93 0.000711
94 0.000701
95 0.000697
96 0.000694
97 0.000694
98 0.000686
99 0.000674
100 0.000667
101 0.000637
102 0.000620
103 0.000615
104 0.000601
105 0.000581
106 0.000570
107 0.000564
108 0.000566
109 0.000572
110 0.000574
111 0.000565
112 0.000566
113 0.000577
114 0.000592
115 0.000601
116 0.000601
117 0.000604
118 0.000605
119 0.000614
120 0.000622
121 0.000614
122 0.000606
123 0.000601
124 0.000607
125 0.000604
126 0.000595
127 0.000586
128 0.000573
129 0.000563
130 0.000558
131 0.000560
132 0.000552
133 0.000549
134 0.000544
135 0.000535
136 0.000540
137 0.000546
138 0.000552
139 0.000562
140 0.000557
141 0.000549
142 0.000535
143 0.000524
144 0.000512
145 0.000488
146 0.000470
147 0.000456
148 0.000447
149 0.000446
150 0.000433
151 0.000431
152 0.000435
153 0.000441
154 0.000445
155 0.000446
156 0.000441
157 0.000433
158 0.000440
159 0.000437
160 0.000427
161 0.000416
162 0.000415
163 0.000418
164 0.000427
165 0.000430
166 0.000430
167 0.000432
168 0.000441
169 0.000450
170 0.000458
171 0.000462
172 0.000473
173 0.000492
174 0.000508
175 0.000511
176 0.000506
177 0.000502
178 0.000500
179 0.000493
180 0.000486
181 0.000469
182 0.000460
183 0.000455
184 0.000444
185 0.000445
186 0.000444
187 0.000445
188 0.000446
189 0.000443
190 0.000440
191 0.000430
192 0.000431
193 0.000442
194 0.000447
195 0.000447
196 0.000440
197 0.000430
198 0.000418
199 0.000406
200 0.000402
201 0.000400
202 0.000399
203 0.000396
204 0.000393
205 0.000390
206 0.000380
207 0.000385
208 0.000382
209 0.000391
210 0.000399
211 0.000405
212 0.000419
213 0.000438
214 0.000456
215 0.000466
216 0.000469
217 0.000467
218 0.000457
219 0.000445
220 0.000438
221 0.000431
222 0.000434
223 0.000446
224 0.000453
225 0.000444
226 0.000433
227 0.000423
228 0.000417
229 0.000419
230 0.000415
231 0.000418
232 0.000413
233 0.000416
234 0.000414
235 0.000401
236 0.000400
237 0.000394
238 0.000379
239 0.000370
240 0.000356
241 0.000351
242 0.000344
243 0.000339
244 0.000337
245 0.000330
246 0.000330
247 0.000328
248 0.000332
249 0.000336
250 0.000340
251 0.000343
252 0.000350
253 0.000351
254 0.000349
255 0.000347
256 0.000345
257 0.000346
258 0.000350
259 0.000355
260 0.000359
261 0.000368
262 0.000373
263 0.000380
264 0.000384
265 0.000382
266 0.000380
267 0.000379
268 0.000385
269 0.000387
270 0.000383
271 0.000381
272 0.000382
273 0.000377
274 0.000362
275 0.000353
276 0.000347
277 0.000344
278 0.000344
279 0.000341
280 0.000343
281 0.000338
282 0.000337
283 0.000333
284 0.000325
285 0.000321
286 0.000310
287 0.000300
288 0.000293
289 0.000285
290 0.000288
291 0.000288
292 0.000292
293 0.000297
294 0.000300
295 0.000305
296 0.000306
297 0.000307
298 0.000309
299 0.000309
300 0.000312
301 0.000311
302 0.000314
303 0.000317
304 0.000318
305 0.000320
306 0.000325
307 0.000333
308 0.000333
309 0.000342
310 0.000350
311 0.000358
312 0.000363
313 0.000376
314 0.000385
315 0.000387
316 0.000387
317 0.000376
318 0.000361
319 0.000349
320 0.000341
321 0.000332
322 0.000323
323 0.000308
324 0.000293
325 0.000280
326 0.000281
327 0.000284
328 0.000286
329 0.000291
330 0.000290
331 0.000297
332 0.000303
333 0.000309
334 0.000310
335 0.000298
336 0.000294
337 0.000294
338 0.000288
339 0.000290
340 0.000298
341 0.000310
342 0.000312
343 0.000309
344 0.000310
345 0.000316
346 0.000326
347 0.000330
348 0.000325
349 0.000322
350 0.000320
351 0.000317
352 0.000322
353 0.000324
354 0.000327
355 0.000325
356 0.000324
357 0.000319
358 0.000321
359 0.000319
360 0.000312
361 0.000301
362 0.000295
363 0.000296
364 0.000293
365 0.000286
366 0.000276
367 0.000275
368 0.000279
369 0.000281
370 0.000286
371 0.000289
372 0.000289
373 0.000283
374 0.000274
375 0.000276
376 0.000274
377 0.000272
378 0.000269
379 0.000266
380 0.000263
381 0.000261
382 0.000260
383 0.000261
384 0.000260
385 0.000264
386 0.000268
387 0.000273
388 0.000286
389 0.000302
390 0.000318
391 0.000321
392 0.000322
393 0.000322
394 0.000318
395 0.000309
396 0.000299
397 0.000296
398 0.000296
399 0.000295
400 0.000296
401 0.000302
402 0.000312
403 0.000318
404 0.000314
405 0.000307
406 0.000301
407 0.000295
408 0.000283
409 0.000276
410 0.000273
411 0.000276
412 0.000276
413 0.000275
414 0.000271
415 0.000259
416 0.000255
417 0.000253
418 0.000247
419 0.000250
420 0.000246
421 0.000237
422 0.000228
423 0.000227
424 0.000234
425 0.000236
426 0.000240
427 0.000239
428 0.000243
429 0.000261
430 0.000278
431 0.000290
432 0.000297
433 0.000303
434 0.000307
435 0.000313
436 0.000321
437 0.000320
438 0.000322
439 0.000323
440 0.000323
441 0.000315
442 0.000310
443 0.000304
444 0.000296
445 0.000288
446 0.000291
447 0.000289
448 0.000289
449 0.000290
450 0.000289
451 0.000286
452 0.000279
453 0.000272
454 0.000267
455 0.000265
456 0.000263
457 0.000262
458 0.000261
459 0.000259
460 0.000260
461 0.000259
462 0.000261
463 0.000256
464 0.000258
465 0.000262
466 0.000267
467 0.000272
468 0.000276
469 0.000275
470 0.000280
471 0.000280
472 0.000279
473 0.000288
474 0.000294
475 0.000298
476 0.000302
477 0.000308
478 0.000312
479 0.000316
480 0.000316
481 0.000310
482 0.000305
483 0.000308
484 0.000309
485 0.000317
486 0.000327
487 0.000335
488 0.000342
489 0.000349
490 0.000349
491 0.000342
492 0.000340
493 0.000337
494 0.000334
495 0.000336
496 0.000327
497 0.000317
498 0.000301
499 0.000290
500 0.000283
501 0.000283
502 0.000276
503 0.000273
504 0.000274
505 0.000276
506 0.000273
507 0.000273
508 0.000275
509 0.000282
510 0.000286
511 0.000286
512 0.000280
513 0.000278
514 0.000282
515 0.000269
516 0.000263
517 0.000261
518 0.000258
519 0.000255
520 0.000257
521 0.000263
522 0.000268
523 0.000277
524 0.000281
525 0.000280
526 0.000286
527 0.000288
528 0.000289
529 0.000295
530 0.000295
531 0.000296
532 0.000300
533 0.000303
534 0.000300
535 0.000290
536 0.000279
537 0.000268
538 0.000264
539 0.000257
540 0.000245
541 0.000235
542 0.000229
543 0.000229
544 0.000233
545 0.000232
546 0.000227
547 0.000220
548 0.000220
549 0.000222
550 0.000224
551 0.000217
552 0.000211
553 0.000203
554 0.000192
555 0.000182
556 0.000175
557 0.000168
558 0.000156
559 0.000142
560 0.000135
561 0.000131
562 0.000130
563 0.000135
564 0.000133
565 0.000137
566 0.000137
567 0.000132
568 0.000124
569 0.000116
570 0.000111
571 0.000106
572 0.000102
573 0.000101
574 0.000100
575 0.000102
576 0.000100
577 0.000106
578 0.000113
579 0.000117
580 0.000121
581 0.000123
582 0.000128
583 0.000132
584 0.000127
585 0.000120
586 0.000111
587 0.000104
588 0.000101
589 0.000097
590 0.000093
591 0.000092
592 0.000092
593 0.000094
594 0.000094
595 0.000091
596 0.000083
597 0.000075
598 0.000069
599 0.000063
600 0.000059
601 0.000059
602 0.000057
603 0.000058
604 0.000068
605 0.000072
606 0.000076
607 0.000083
608 0.000090
609 0.000100
610 0.000102
611 0.000104
612 0.000110
613 0.000121
614 0.000126
615 0.000123
616 0.000120
617 0.000124
618 0.000128
619 0.000128
620 0.000128
621 0.000128
622 0.000128
623 0.000134
624 0.000141
625 0.000148
626 0.000159
627 0.000166
628 0.000168
629 0.000169
630 0.000162
631 0.000159
632 0.000158
633 0.000155
634 0.000155
635 0.000156
636 0.000154
637 0.000150
638 0.000146
639 0.000140
640 0.000140
641 0.000141
642 0.000140
643 0.000145
644 0.000147
645 0.000147
646 0.000145
647 0.000142
648 0.000139
649 0.000132
650 0.000130
651 0.000125
652 0.000122
653 0.000130
654 0.000134
655 0.000134
656 0.000133
657 0.000134
658 0.000133
659 0.000133
660 0.000132
661 0.000130
662 0.000132
663 0.000143
664 0.000146
665 0.000154
666 0.000160
667 0.000159
668 0.000151
669 0.000151
670 0.000149
671 0.000148
672 0.000150
673 0.000151
674 0.000146
675 0.000141
676 0.000130
677 0.000123
678 0.000119
679 0.000113
680 0.000111
681 0.000109
682 0.000107
683 0.000097
684 0.000088
685 0.000078
686 0.000072
687 0.000070
688 0.000073
689 0.000070
690 0.000067
691 0.000067
692 0.000070
693 0.000073
694 0.000074
695 0.000071
696 0.000070
697 0.000074
698 0.000074
699 0.000076
700 0.000079
701 0.000089
702 0.000099
703 0.000111
704 0.000120
705 0.000126
706 0.000126
707 0.000125
708 0.000130
709 0.000132
710 0.000124
711 0.000117
712 0.000112
713 0.000108
714 0.000111
715 0.000112
716 0.000115
717 0.000121
718 0.000131
719 0.000143
720 0.000149
721 0.000154
722 0.000158
723 0.000157
724 0.000155
725 0.000150
726 0.000148
727 0.000147
728 0.000148
729 0.000142
730 0.000137
731 0.000134
732 0.000131
733 0.000130
734 0.000130
735 0.000132
736 0.000134
737 0.000137
738 0.000136
739 0.000133
740 0.000133
741 0.000129
742 0.000126
743 0.000131
744 0.000136
745 0.000143
746 0.000149
747 0.000153
748 0.000156
749 0.000157
750 0.000155
751 0.000150
752 0.000146
753 0.000148
754 0.000147
755 0.000146
756 0.000146
757 0.000148
758 0.000148
759 0.000142
760 0.000136
761 0.000131
762 0.000128
763 0.000123
764 0.000117
765 0.000114
766 0.000109
767 0.000104
768 0.000099
769 0.000095
770 0.000093
771 0.000087
772 0.000081
773 0.000078
774 0.000073
775 0.000068
776 0.000065
777 0.000068
778 0.000071
779 0.000074
780 0.000075
781 0.000075
782 0.000078
783 0.000083
784 0.000086
785 0.000084
786 0.000079
787 0.000077
788 0.000072
789 0.000071
790 0.000074
791 0.000077
792 0.000083
793 0.000086
794 0.000088
795 0.000091
796 0.000095
797 0.000097
798 0.000094
799 0.000090
800 0.000085
801 0.000083
802 0.000086
803 0.000089
804 0.000095
805 0.000100
806 0.000104
807 0.000107
808 0.000112
809 0.000114
