# i correlation
1 0.001683
2 0.001607
3 0.001542
4 0.001482
5 0.001434
6 0.001396
7 0.001360
8 0.001321
9 0.001290
10 0.001262
11 0.001245
12 0.001238
13 0.001237
14 0.001244
15 0.001248
16 0.001252
17 0.001242
18 0.001236
19 0.001233
20 0.001235
21 0.001251
22 0.001262
23 0.001274
24 0.001272
25 0.001259
26 0.001246
27 0.001231
28 0.001215
29 0.001203
30 0.001200
31 0.001198
32 0.001190
33 0.001178
34 0.001171
35 0.001161
36 0.001140
37 0.001131
38 0.001125
39 0.001118
40 0.001110
41 0.001100
42 0.001095
43 0.001089
44 0.001086
45 0.001089
46 0.001085
47 0.001086
48 0.001078
49 0.001075
50 0.001072
51 0.001063
52 0.001052
53 0.001045
54 0.001044
55 0.001049
56 0.001048
57 0.001053
58 0.001053
59 0.001058
60 0.001057
61 0.001051
62 0.001044
63 0.001031
64 0.001015
65 0.001001
66 0.000986
67 0.000965
68 0.000949
69 0.000947
70 0.000946
71 0.000941
72 0.000939
73 0.000938
74 0.000940
75 0.000944
76 0.000950
77 0.000952
78 0.000949
79 0.000952
80 0.000949
81 0.000943
82 0.000935
83 0.000941
84 0.000939
85 0.000944
86 0.000947
87 0.000942
88 0.000938
89 0.000938
90 0.000942
91 0.000946
92 0.000949
93 0.000950
94 0.000950
95 0.000941
96 0.000928
97 0.000918
98 0.000905
99 0.000890
100 0.000887
101 0.000878
102 0.000865
103 0.000850
104 0.000846
105 0.000846
106 0.000842
107 0.000840
108 0.000833
109 0.000831
110 0.000829
111 0.000823
112 0.000819
113 0.000818
114 0.000823
115 0.000824
116 0.000825
117 0.000829
118 0.000836
119 0.000831
120 0.000812
121 0.000796
122 0.000780
123 0.000767
124 0.000756
125 0.000748
126 0.000738
127 0.000730
128 0.000732
129 0.000736
130 0.000744
131 0.000747
132 0.000754
133 0.000762
134 0.000772
135 0.000781
136 0.000790
137 0.000798
138 0.000805
139 0.000816
140 0.000825
141 0.000828
142 0.000826
143 0.000816
144 0.000807
145 0.000801
146 0.000790
147 0.000784
148 0.000779
149 0.000778
150 0.000776
151 0.000772
152 0.000771
153 0.000765
154 0.000764
155 0.000770
156 0.000772
157 0.000771
158 0.000762
159 0.000745
160 0.000726
161 0.000709
162 0.000703
163 0.000698
164 0.000700
165 0.000704
166 0.000710
167 0.000712
168 0.000718
169 0.000723
170 0.000736
171 0.000744
172 0.000756
173 0.000763
174 0.000768
175 0.000774
176 0.000783
177 0.000791
178 0.000796
179 0.000813
180 0.000824
181 0.000826
182 0.000817
183 0.000799
184 0.000786
185 0.000770
186 0.000753
187 0.000742
188 0.000735
189 0.000730
190 0.000723
191 0.000717
192 0.000712
193 0.000709
194 0.000715
195 0.000722
196 0.000724
197 0.000723
198 0.000718
199 0.000709
200 0.000709
201 0.000712
202 0.000721
203 0.000721
204 0.000720
205 0.000710
206 0.000701
207 0.000695
208 0.000687
209 0.000687
210 0.000689
211 0.000691
212 0.000694
213 0.000697
214 0.000700
215 0.000705
216 0.000710
217 0.000710
218 0.000711
219 0.000712
220 0.000708
221 0.000702
222 0.000700
223 0.000697
224 0.000692
225 0.000686
226 0.000682
227 0.000686
228 0.000694
229 0.000700
230 0.000705
231 0.000709
232 0.000716
233 0.000720
234 0.000732
235 0.000742
236 0.000755
237 0.000758
238 0.000759
239 0.000766
240 0.000768
241 0.000770
242 0.000767
243 0.000759
244 0.000752
245 0.000745
246 0.000739
247 0.000733
248 0.000722
249 0.000708
250 0.000691
251 0.000679
252 0.000665
253 0.000655
254 0.000651
255 0.000650
256 0.000650
257 0.000650
258 0.000651
259 0.000654
260 0.000653
261 0.000653
262 0.000659
263 0.000665
264 0.000665
265 0.000659
266 0.000657
267 0.000654
268 0.000646
269 0.000642
270 0.000640
271 0.000638
272 0.000639
273 0.000634
274 0.000629
275 0.000625
276 0.000624
277 0.000617
278 0.000606
279 0.000598
280 0.000590
281 0.000589
282 0.000585
283 0.000581
284 0.000575
285 0.000575
286 0.000577
287 0.000581
288 0.000579
289 0.000581
290 0.000582
291 0.000581
292 0.000580
293 0.000575
294 0.000575
295 0.000568
296 0.000562
297 0.000559
298 0.000556
299 0.000550
300 0.000535
301 0.000524
302 0.000510
303 0.000494
304 0.000479
305 0.000475
306 0.000477
307 0.000476
308 0.000476
309 0.000478
310 0.000481
311 0.000483
312 0.000489
313 0.000497
314 0.000510
315 0.000521
316 0.000528
317 0.000540
318 0.000543
319 0.000549
320 0.000558
321 0.000569
322 0.000576
323 0.000577
324 0.000575
325 0.000566
326 0.000554
327 0.000537
328 0.000532
329 0.000528
330 0.000523
331 0.000519
332 0.000523
333 0.000521
334 0.000518
335 0.000512
336 0.000516
337 0.000515
338 0.000512
339 0.000507
340 0.000504
341 0.000494
342 0.000486
343 0.000480
344 0.000472
345 0.000458
346 0.000456
347 0.000456
348 0.000453
349 0.000447
350 0.000441
351 0.000442
352 0.000443
353 0.000446
354 0.000444
355 0.000442
356 0.000448
357 0.000450
358 0.000447
359 0.000451
360 0.000450
361 0.000443
362 0.000439
363 0.000429
364 0.000422
365 0.000407
366 0.000396
367 0.000385
368 0.000377
369 0.000370
370 0.000366
371 0.000368
372 0.000371
373 0.000378
374 0.000386
375 0.000397
376 0.000406
377 0.000420
378 0.000427
379 0.000432
380 0.000434
381 0.000440
382 0.000439
383 0.000439
384 0.000433
385 0.000420
386 0.000409
387 0.000392
388 0.000379
389 0.000365
390 0.000361
391 0.000364
392 0.000358
393 0.000355
394 0.000358
395 0.000360
396 0.000363
397 0.000369
398 0.000375
399 0.000372
400 0.000365
401 0.000359
402 0.000351
403 0.000346
404 0.000346
405 0.000338
406 0.000334
407 0.000326
408 0.000320
409 0.000317
410 0.000314
411 0.000315
412 0.000319
413 0.000321
414 0.000323
415 0.000333
416 0.000339
417 0.000348
418 0.000355
419 0.000360
420 0.000364
421 0.000360
422 0.000355
423 0.000345
424 0.000339
425 0.000334
426 0.000332
427 0.000325
428 0.000318
429 0.000309
430 0.000298
431 0.000288
432 0.000278
433 0.000270
434 0.000262
435 0.000251
436 0.000242
437 0.000240
438 0.000242
439 0.000242
440 0.000244
441 0.000251
442 0.000252
443 0.000248
444 0.000240
445 0.000233
446 0.000224
447 0.000218
448 0.000207
449 0.000204
450 0.000201
451 0.000201
452 0.000201
453 0.000204
454 0.000205
455 0.000202
456 0.000200
457 0.000199
458 0.000195
459 0.000187
460 0.000183
461 0.000177
462 0.000176
463 0.000175
464 0.000175
465 0.000176
466 0.000183
467 0.000190
468 0.000193
469 0.000196
470 0.000196
471 0.000203
472 0.000206
473 0.000209
474 0.000212
475 0.000212
476 0.000216
477 0.000218
478 0.000217
479 0.000211
480 0.000205
481 0.000197
482 0.000187
483 0.000178
484 0.000169
485 0.000163
486 0.000160
487 0.000167
488 0.000172
489 0.000183
490 0.000191
491 0.000196
492 0.000200
493 0.000202
494 0.000208
495 0.000214
496 0.000219
497 0.000220
498 0.000224
499 0.000225
500 0.000224
501 0.000225
502 0.000227
503 0.000231
504 0.000232
505 0.000233
506 0.000226
507 0.000213
508 0.000211
509 0.000215
510 0.000216
511 0.000225
512 0.000233
513 0.000239
514 0.000240
515 0.000244
516 0.000246
517 0.000247
518 0.000248
519 0.000243
520 0.000243
521 0.000246
522 0.000246
523 0.000241
524 0.000239
525 0.000231
526 0.000231
527 0.000233
528 0.000237
529 0.000234
530 0.000234
531 0.000237
532 0.000242
533 0.000249
534 0.000254
535 0.000259
536 0.000269
537 0.000275
538 0.000282
539 0.000283
540 0.000274
541 0.000258
542 0.000244
543 0.000231
544 0.000217
545 0.000208
546 0.000199
547 0.000192
548 0.000192
549 0.000195
550 0.000196
551 0.000199
552 0.000206
553 0.000217
554 0.000231
555 0.000243
556 0.000255
557 0.000261
558 0.000266
559 0.000271
560 0.000277
561 0.000281
562 0.000282
563 0.000288
564 0.000288
565 0.000285
566 0.000282
567 0.000276
568 0.000276
569 0.000270
570 0.000270
571 0.000267
572 0.000262
573 0.000256
574 0.000248
575 0.000239
576 0.000228
577 0.000219
578 0.000211
579 0.000209
580 0.000204
581 0.000204
582 0.000205
583 0.000203
584 0.000207
585 0.000208
586 0.000210
587 0.000214
588 0.000213
589 0.000210
590 0.000205
591 0.000202
592 0.000199
593 0.000194
594 0.000188
595 0.000183
596 0.000183
597 0.000181
598 0.000181
599 0.000182
600 0.000180
601 0.000176
602 0.000167
603 0.000159
604 0.000152
605 0.000151
606 0.000145
607 0.000141
608 0.000141
609 0.000142
610 0.000141
611 0.000136
612 0.000136
613 0.000143
614 0.000149
615 0.000156
616 0.000154
617 0.000150
618 0.000144
619 0.000139
620 0.000131
621 0.000125
622 0.000127
623 0.000124
624 0.000120
625 0.000115
626 0.000108
627 0.000101
628 0.000101
629 0.000099
630 0.000099
631 0.000100
632 0.000093
633 0.000090
634 0.000091
635 0.000086
636 0.000085
637 0.000083
638 0.000086
639 0.000094
640 0.000102
641 0.000105
642 0.000106
643 0.000107
644 0.000109
645 0.000118
646 0.000128
647 0.000130
648 0.000129
649 0.000130
650 0.000126
651 0.000120
652 0.000113
653 0.000110
654 0.000111
655 0.000111
656 0.000111
657 0.000112
658 0.000110
659 0.000105
660 0.000104
661 0.000105
662 0.000105
663 0.000105
664 0.000103
665 0.000102
666 0.000096
667 0.000092
668 0.000097
669 0.000102
670 0.000108
671 0.000114
672 0.000116
673 0.000116
674 0.000113
675 0.000111
676 0.000108
677 0.000105
678 0.000105
679 0.000102
680 0.000095
681 0.000086
682 0.000075
683 0.000062
684 0.000056
685 0.000055
686 0.000050
687 0.000050
688 0.000048
689 0.000042
690 0.000037
691 0.000035
692 0.000031
693 0.000034
694 0.000039
695 0.000040
696 0.000039
697 0.000035
698 0.000030
699 0.000026
700 0.000029
701 0.000029
702 0.000028
703 0.000033
704 0.000033
705 0.000035
706 0.000036
707 0.000036
708 0.000039
709 0.000044
710 0.000046
711 0.000049
712 0.000045
713 0.000043
714 0.000040
715 0.000041
716 0.000039
717 0.000039
718 0.000041
719 0.000041
720 0.000039
721 0.000040
722 0.000038
723 0.000036
724 0.000034
725 0.000033
726 0.000029
727 0.000027
728 0.000029
729 0.000028
730 0.000026
731 0.000027
732 0.000032
733 0.000039
734 0.000050
735 0.000061
736 0.000066
737 0.000071
738 0.000077
739 0.000082
740 0.000089
741 0.000094
742 0.000094
743 0.000094
744 0.000098
745 0.000096
746 0.000091
747 0.000086
748 0.000082
749 0.000077
750 0.000079
751 0.000081
752 0.000083
753 0.000081
754 0.000081
755 0.000085
756 0.000091
757 0.000098
758 0.000108
759 0.000115
760 0.000120
761 0.000117
762 0.000115
763 0.000113
764 0.000112
765 0.000108
766 0.000108
767 0.000107
768 0.000106
769 0.000103
770 0.000101
771 0.000098
772 0.000099
773 0.000098
774 0.000099
775 0.000098
776 0.000092
777 0.000088
778 0.000085
779 0.000087
780 0.000088
781 0.000092
782 0.000092
783 0.000092
784 0.000093
785 0.000092
786 0.000092
787 0.000089
788 0.000084
789 0.000081
790 0.000077
791 0.000075
792 0.000072
793 0.000070
794 0.000073
795 0.000073
796 0.000071
797 0.000071
798 0.000070
799 0.000069
800 0.000071
801 0.000075
802 0.000079
803 0.000083
804 0.000086
805 0.000085
806 0.000081
807 0.000078
808 0.000074
809 0.000074
