# i correlation
1 0.001752
2 0.001659
3 0.001581
4 0.001512
5 0.001449
6 0.001395
7 0.001352
8 0.001322
9 0.001292
10 0.001263
11 0.001244
12 0.001221
13 0.001198
14 0.001172
15 0.001160
16 0.001158
17 0.001149
18 0.001138
19 0.001130
20 0.001133
21 0.001136
22 0.001148
23 0.001154
24 0.001154
25 0.001145
26 0.001135
27 0.001130
28 0.001130
29 0.001120
30 0.001114
31 0.001096
32 0.001083
33 0.001075
34 0.001065
35 0.001061
36 0.001064
37 0.001070
38 0.001074
39 0.001070
40 0.001065
41 0.001060
42 0.001049
43 0.001037
44 0.001030
45 0.001026
46 0.001014
47 0.001006
48 0.001001
49 0.001009
50 0.001011
51 0.001012
52 0.001012
53 0.001019
54 0.001023
55 0.001019
56 0.001007
57 0.000993
58 0.000978
59 0.000967
60 0.000962
61 0.000951
62 0.000937
63 0.000928
64 0.000917
65 0.000915
66 0.000910
67 0.000900
68 0.000895
69 0.000892
70 0.000890
71 0.000898
72 0.000896
73 0.000894
74 0.000894
75 0.000895
76 0.000890
77 0.000895
78 0.000900
79 0.000900
80 0.000895
81 0.000897
82 0.000897
83 0.000895
84 0.000885
85 0.000873
86 0.000865
87 0.000851
88 0.000843
89 0.000828
90 0.000814
91 0.000805
92 0.000796
93 0.000798
94 0.000803
95 0.000811
96 0.000811
97 0.000808
98 0.000803
99 0.000801
100 0.000796
101 0.000796
102 0.000788
103 0.000773
104 0.000768
105 0.000772
106 0.000784
107 0.000786
108 0.000792
109 0.000796
110 0.000795
111 0.000794
112 0.000778
113 0.000768
114 0.000756
115 0.000748
116 0.000754
117 0.000761
118 0.000773
119 0.000785
120 0.000790
121 0.000792
122 0.000792
123 0.000795
124 0.000806
125 0.000808
126 0.000811
127 0.000813
128 0.000823
129 0.000830
130 0.000832
131 0.000830
132 0.000829
133 0.000821
134 0.000811
135 0.000807
136 0.000802
137 0.000792
138 0.000779
139 0.000773
140 0.000765
141 0.000767
142 0.000763
143 0.000758
144 0.000758
145 0.000759
146 0.000766
147 0.000773
148 0.000782
149 0.000783
150 0.000786
151 0.000780
152 0.000781
153 0.000779
154 0.000774
155 0.000782
156 0.000787
157 0.000783
158 0.000775
159 0.000772
160 0.000766
161 0.000765
162 0.000759
163 0.000754
164 0.000742
165 0.000726
166 0.000717
167 0.000703
168 0.000685
169 0.000675
170 0.000671
171 0.000669
172 0.000669
173 0.000672
174 0.000668
175 0.000664
176 0.000660
177 0.000661
178 0.000666
179 0.000671
180 0.000674
181 0.000673
182 0.000676
183 0.000686
184 0.000694
185 0.000700
186 0.000707
187 0.000713
188 0.000718
189 0.000727
190 0.000743
191 0.000751
192 0.000755
193 0.000757
194 0.000757
195 0.000747
196 0.000741
197 0.000733
198 0.000722
199 0.000712
200 0.000704
201 0.000699
202 0.000695
203 0.000694
204 0.000701
205 0.000708
206 0.000716
207 0.000724
208 0.000727
209 0.000727
210 0.000723
211 0.000711
212 0.000702
213 0.000704
214 0.000709
215 0.000716
216 0.000726
217 0.000735
218 0.000736
219 0.000727
220 0.000713
221 0.000698
222 0.000684
223 0.000673
224 0.000660
225 0.000650
226 0.000647
227 0.000656
228 0.000658
229 0.000664
230 0.000672
231 0.000674
232 0.000679
233 0.000679
234 0.000682
235 0.000684
236 0.000677
237 0.000660
238 0.000645
239 0.000637
240 0.000633
241 0.000629
242 0.000628
243 0.000643
244 0.000651
245 0.000661
246 0.000674
247 0.000684
248 0.000688
249 0.000694
250 0.000698
251 0.000701
252 0.000710
253 0.000710
254 0.000709
255 0.000705
256 0.000705
257 0.000702
258 0.000696
259 0.000692
260 0.000679
261 0.000666
262 0.000647
263 0.000630
264 0.000615
265 0.000607
266 0.000600
267 0.000608
268 0.000618
269 0.000634
270 0.000642
271 0.000651
272 0.000661
273 0.000668
274 0.000667
275 0.000658
276 0.000650
277 0.000642
278 0.000634
279 0.000634
280 0.000635
281 0.000642
282 0.000647
283 0.000647
284 0.000646
285 0.000655
286 0.000658
287 0.000657
288 0.000650
289 0.000645
290 0.000638
291 0.000632
292 0.000625
293 0.000610
294 0.000600
295 0.000589
296 0.000575
297 0.000561
298 0.000552
299 0.000541
300 0.000529
301 0.000525
302 0.000528
303 0.000528
304 0.000526
305 0.000531
306 0.000534
307 0.000531
308 0.000528
309 0.000532
310 0.000535
311 0.000539
312 0.000541
313 0.000543
314 0.000546
315 0.000542
316 0.000532
317 0.000524
318 0.000516
319 0.000498
320 0.000482
321 0.000473
322 0.000473
323 0.000472
324 0.000474
325 0.000477
326 0.000485
327 0.000492
328 0.000494
329 0.000493
330 0.000491
331 0.000486
332 0.000477
333 0.000472
334 0.000469
335 0.000471
336 0.000466
337 0.000460
338 0.000454
339 0.000448
340 0.000441
341 0.000434
342 0.000423
343 0.000417
344 0.000413
345 0.000407
346 0.000406
347 0.000405
348 0.000404
349 0.000401
350 0.000401
351 0.000408
352 0.000415
353 0.000414
354 0.000413
355 0.000412
356 0.000406
357 0.000402
358 0.000391
359 0.000390
360 0.000389
361 0.000377
362 0.000374
363 0.000381
364 0.000386
365 0.000396
366 0.000393
367 0.000390
368 0.000389
369 0.000392
370 0.000399
371 0.000408
372 0.000408
373 0.000407
374 0.000403
375 0.000402
376 0.000404
377 0.000409
378 0.000413
379 0.000413
380 0.000425
381 0.000428
382 0.000435
383 0.000433
384 0.000422
385 0.000410
386 0.000398
387 0.000398
388 0.000396
389 0.000395
390 0.000389
391 0.000389
392 0.000390
393 0.000394
394 0.000387
395 0.000388
396 0.000388
397 0.000386
398 0.000383
399 0.000384
400 0.000391
401 0.000397
402 0.000400
403 0.000396
404 0.000385
405 0.000369
406 0.000351
407 0.000339
408 0.000333
409 0.000336
410 0.000339
411 0.000340
412 0.000341
413 0.000346
414 0.000345
415 0.000348
416 0.000344
417 0.000341
418 0.000344
419 0.000347
420 0.000348
421 0.000340
422 0.000338
423 0.000342
424 0.000343
425 0.000343
426 0.000348
427 0.000349
428 0.000344
429 0.000343
430 0.000341
431 0.000343
432 0.000346
433 0.000351
434 0.000357
435 0.000352
436 0.000355
437 0.000359
438 0.000359
439 0.000352
440 0.000353
441 0.000353
442 0.000359
443 0.000364
444 0.000360
445 0.000355
446 0.000352
447 0.000344
448 0.000338
449 0.000327
450 0.000325
451 0.000324
452 0.000321
453 0.000316
454 0.000314
455 0.000308
456 0.000303
457 0.000294
458 0.000291
459 0.000294
460 0.000297
461 0.000301
462 0.000307
463 0.000312
464 0.000319
465 0.000326
466 0.000332
467 0.000329
468 0.000327
469 0.000318
470 0.000315
471 0.000307
472 0.000302
473 0.000298
474 0.000288
475 0.000282
476 0.000277
477 0.000262
478 0.000254
479 0.000245
480 0.000234
481 0.000225
482 0.000219
483 0.000222
484 0.000229
485 0.000223
486 0.000224
487 0.000221
488 0.000226
489 0.000230
490 0.000229
491 0.000225
492 0.000221
493 0.000210
494 0.000202
495 0.000197
496 0.000198
497 0.000199
498 0.000200
499 0.000207
500 0.000221
501 0.000236
502 0.000249
503 0.000264
504 0.000271
505 0.000272
506 0.000274
507 0.000269
508 0.000266
509 0.000262
510 0.000256
511 0.000263
512 0.000266
513 0.000263
514 0.000256
515 0.000252
516 0.000247
517 0.000241
518 0.000234
519 0.000235
520 0.000231
521 0.000230
522 0.000230
523 0.000228
524 0.000227
525 0.000226
526 0.000228
527 0.000230
528 0.000234
529 0.000232
530 0.000225
531 0.000223
532 0.000223
533 0.000225
534 0.000224
535 0.000227
536 0.000228
537 0.000227
538 0.000230
539 0.000237
540 0.000243
541 0.000249
542 0.000249
543 0.000250
544 0.000256
545 0.000256
546 0.000247
547 0.000239
548 0.000232
549 0.000228
550 0.000223
551 0.000216
552 0.000208
553 0.000199
554 0.000189
555 0.000186
556 0.000196
557 0.000206
558 0.000210
559 0.000210
560 0.000211
561 0.000216
562 0.000216
563 0.000210
564 0.000208
565 0.000212
566 0.000213
567 0.000212
568 0.000215
569 0.000215
570 0.000215
571 0.000214
572 0.000218
573 0.000219
574 0.000221
575 0.000217
576 0.000209
577 0.000203
578 0.000198
579 0.000200
580 0.000204
581 0.000208
582 0.000215
583 0.000220
584 0.000230
585 0.000235
586 0.000242
587 0.000244
588 0.000242
589 0.000241
590 0.000241
591 0.000239
592 0.000240
593 0.000244
594 0.000242
595 0.000244
596 0.000246
597 0.000244
598 0.000242
599 0.000241
600 0.000244
601 0.000233
602 0.000219
603 0.000207
604 0.000191
605 0.000177
606 0.000167
607 0.000161
608 0.000155
609 0.000152
610 0.000153
611 0.000155
612 0.000159
613 0.000157
614 0.000157
615 0.000152
616 0.000154
617 0.000160
618 0.000162
619 0.000164
620 0.000167
621 0.000171
622 0.000179
623 0.000184
624 0.000186
625 0.000187
626 0.000182
627 0.000178
628 0.000173
629 0.000167
630 0.000163
631 0.000159
632 0.000155
633 0.000151
634 0.000146
635 0.000140
636 0.000136
637 0.000131
638 0.000122
639 0.000117
640 0.000110
641 0.000103
642 0.000098
643 0.000091
644 0.000092
645 0.000095
646 0.000094
647 0.000096
648 0.000093
649 0.000092
650 0.000099
651 0.000104
652 0.000107
653 0.000106
654 0.000103
655 0.000103
656 0.000103
657 0.000100
658 0.000099
659 0.000097
660 0.000097
661 0.000100
662 0.000103
663 0.000103
664 0.000099
665 0.000098
666 0.000101
667 0.000109
668 0.000118
669 0.000123
670 0.000130
671 0.000133
672 0.000137
673 0.000138
674 0.000140
675 0.000136
676 0.000130
677 0.000122
678 0.000119
679 0.000113
680 0.000101
681 0.000091
682 0.000084
683 0.000077
684 0.000066
685 0.000054
686 0.000046
687 0.000035
688 0.000031
689 0.000032
690 0.000033
691 0.000034
692 0.000035
693 0.000037
694 0.000041
695 0.000047
696 0.000050
697 0.000051
698 0.000055
699 0.000057
700 0.000060
701 0.000066
702 0.000072
703 0.000069
704 0.000065
705 0.000065
706 0.000065
707 0.000064
708 0.000057
709 0.000051
710 0.000045
711 0.000046
712 0.000045
713 0.000045
714 0.000043
715 0.000041
716 0.000045
717 0.000051
718 0.000060
719 0.000070
720 0.000076
721 0.000081
722 0.000088
723 0.000095
724 0.000102
725 0.000105
726 0.000104
727 0.000108
728 0.000113
729 0.000116
730 0.000112
731 0.000110
732 0.000106
733 0.000102
734 0.000096
735 0.000093
736 0.000093
737 0.000086
738 0.000075
739 0.000067
740 0.000062
741 0.000057
742 0.000051
743 0.000051
744 0.000049
745 0.000049
746 0.000052
747 0.000055
748 0.000055
749 0.000053
750 0.000050
751 0.000047
752 0.000051
753 0.000052
754 0.000051
755 0.000053
756 0.000055
757 0.000055
758 0.000055
759 0.000052
760 0.000047
761 0.000043
762 0.000038
763 0.000034
764 0.000028
765 0.000018
766 0.000006
767 -0.000003
768 -0.000015
769 -0.000026
770 -0.000032
771 -0.000032
772 -0.000027
773 -0.000017
774 -0.000007
775 0.000003
776 0.000007
777 0.000009
778 0.000012
779 0.000009
780 0.000012
781 0.000011
782 0.000011
783 0.000014
784 0.000017
785 0.000017
786 0.000015
787 0.000012
788 0.000009
789 0.000006
790 0.000004
791 0.000007
792 0.000011
793 0.000012
794 0.000014
795 0.000016
796 0.000021
797 0.000026
798 0.000024
799 0.000021
800 0.000024
801 0.000024
802 0.000027
803 0.000028
804 0.000025
805 0.000019
806 0.000016
807 0.000014
808 0.000015
809 0.000010
