# i correlation
1 0.001772
2 0.001688
3 0.001621
4 0.001566
5 0.001535
6 0.001498
7 0.001469
8 0.001445
9 0.001418
10 0.001385
11 0.001351
12 0.001328
13 0.001304
14 0.001284
15 0.001266
16 0.001254
17 0.001250
18 0.001240
19 0.001226
20 0.001223
21 0.001217
22 0.001213
23 0.001194
24 0.001176
25 0.001159
26 0.001153
27 0.001142
28 0.001135
29 0.001138
30 0.001149
31 0.001145
32 0.001136
33 0.001125
34 0.001108
35 0.001092
36 0.001078
37 0.001068
38 0.001056
39 0.001037
40 0.001015
41 0.000996
42 0.000977
43 0.000962
44 0.000946
45 0.000931
46 0.000926
47 0.000924
48 0.000916
49 0.000906
50 0.000901
51 0.000899
52 0.000898
53 0.000901
54 0.000900
55 0.000900
56 0.000893
57 0.000878
58 0.000876
59 0.000881
60 0.000884
61 0.000888
62 0.000881
63 0.000873
64 0.000865
65 0.000854
66 0.000847
67 0.000844
68 0.000843
69 0.000843
70 0.000838
71 0.000830
72 0.000817
73 0.000812
74 0.000796
75 0.000791
76 0.000792
77 0.000780
78 0.000762
79 0.000747
80 0.000732
81 0.000733
82 0.000724
83 0.000711
84 0.000703
85 0.000694
86 0.000685
87 0.000688
88 0.000685
89 0.000693
90 0.000701
91 0.000698
92 0.000697
93 0.000698
94 0.000699
95 0.000698
96 0.000700
97 0.000707
98 0.000706
99 0.000708
100 0.000693
101 0.000679
102 0.000676
103 0.000667
104 0.000667
105 0.000675
106 0.000681
107 0.000689
108 0.000686
109 0.000686
110 0.000685
111 0.000681
112 0.000672
113 0.000665
114 0.000654
115 0.000638
116 0.000630
117 0.000620
118 0.000610
119 0.000606
120 0.000603
121 0.000598
122 0.000595
123 0.000590
124 0.000589
125 0.000591
126 0.000600
127 0.000617
128 0.000624
129 0.000626
130 0.000626
131 0.000622
132 0.000606
133 0.000603
134 0.000600
135 0.000606
136 0.000609
137 0.000594
138 0.000577
139 0.000556
140 0.000553
141 0.000543
142 0.000542
143 0.000544
144 0.000542
145 0.000540
146 0.000532
147 0.000522
148 0.000517
149 0.000515
150 0.000510
151 0.000508
152 0.000503
153 0.000510
154 0.000508
155 0.000509
156 0.000503
157 0.000504
158 0.000503
159 0.000500
160 0.000511
161 0.000508
162 0.000509
163 0.000507
164 0.000503
165 0.000505
166 0.000514
167 0.000526
168 0.000538
169 0.000544
170 0.000549
171 0.000547
172 0.000549
173 0.000557
174 0.000566
175 0.000572
176 0.000560
177 0.000554
178 0.000547
179 0.000548
180 0.000555
181 0.000553
182 0.000556
183 0.000565
184 0.000566
185 0.000562
186 0.000571
187 0.000575
188 0.000574
189 0.000569
190 0.000563
191 0.000563
192 0.000558
193 0.000549
194 0.000543
195 0.000541
196 0.000548
197 0.000544
198 0.000544
199 0.000533
200 0.000526
201 0.000525
202 0.000522
203 0.000525
204 0.000530
205 0.000535
206 0.000545
207 0.000540
208 0.000533
209 0.000524
210 0.000512
211 0.000506
212 0.000501
213 0.000497
214 0.000492
215 0.000483
216 0.000479
217 0.000480
218 0.000479
219 0.000478
220 0.000475
221 0.000479
222 0.000482
223 0.000489
224 0.000489
225 0.000488
226 0.000490
227 0.000492
228 0.000489
229 0.000481
230 0.000472
231 0.000461
232 0.000458
233 0.000459
234 0.000455
235 0.000456
236 0.000457
237 0.000458
238 0.000459
239 0.000455
240 0.000449
241 0.000456
242 0.000469
243 0.000478
244 0.000488
245 0.000491
246 0.000487
247 0.000486
248 0.000477
249 0.000470
250 0.000464
251 0.000462
252 0.000459
253 0.000460
254 0.000455
255 0.000457
256 0.000460
257 0.000456
258 0.000447
259 0.000438
260 0.000434
261 0.000425
262 0.000418
263 0.000411
264 0.000408
265 0.000407
266 0.000405
267 0.000404
268 0.000395
269 0.000393
270 0.000384
271 0.000373
272 0.000369
273 0.000367
274 0.000371
275 0.000374
276 0.000375
277 0.000381
278 0.000381
279 0.000380
280 0.000379
281 0.000379
282 0.000389
283 0.000395
284 0.000402
285 0.000407
286 0.000409
287 0.000411
288 0.000412
289 0.000413
290 0.000414
291 0.000411
292 0.000404
293 0.000397
294 0.000387
295 0.000386
296 0.000391
297 0.000387
298 0.000388
299 0.000381
300 0.000375
301 0.000368
302 0.000369
303 0.000371
304 0.000371
305 0.000367
306 0.000362
307 0.000358
308 0.000361
309 0.000359
310 0.000360
311 0.000360
312 0.000358
313 0.000358
314 0.000358
315 0.000357
316 0.000357
317 0.000363
318 0.000367
319 0.000368
320 0.000375
321 0.000379
322 0.000388
323 0.000388
324 0.000390
325 0.000395
326 0.000393
327 0.000387
328 0.000385
329 0.000385
330 0.000387
331 0.000393
332 0.000398
333 0.000408
334 0.000425
335 0.000430
336 0.000439
337 0.000444
338 0.000443
339 0.000444
340 0.000442
341 0.000434
342 0.000421
343 0.000420
344 0.000418
345 0.000411
346 0.000405
347 0.000396
348 0.000389
349 0.000387
350 0.000390
351 0.000394
352 0.000399
353 0.000407
354 0.000422
355 0.000431
356 0.000427
357 0.000421
358 0.000423
359 0.000418
360 0.000409
361 0.000402
362 0.000395
363 0.000402
364 0.000396
365 0.000391
366 0.000385
367 0.000375
368 0.000369
369 0.000365
370 0.000357
371 0.000364
372 0.000378
373 0.000384
374 0.000388
375 0.000388
376 0.000385
377 0.000380
378 0.000378
379 0.000374
380 0.000379
381 0.000385
382 0.000386
383 0.000389
384 0.000383
385 0.000381
386 0.000380
387 0.000381
388 0.000375
389 0.000369
390 0.000361
391 0.000352
392 0.000344
393 0.000335
394 0.000329
395 0.000325
396 0.000324
397 0.000317
398 0.000310
399 0.000302
400 0.000290
401 0.000283
402 0.000283
403 0.000277
404 0.000279
405 0.000281
406 0.000278
407 0.000279
408 0.000273
409 0.000277
410 0.000281
411 0.000280
412 0.000285
413 0.000294
414 0.000298
415 0.000305
416 0.000306
417 0.000303
418 0.000302
419 0.000308
420 0.000309
421 0.000304
422 0.000296
423 0.000287
424 0.000280
425 0.000277
426 0.000270
427 0.000270
428 0.000276
429 0.000279
430 0.000282
431 0.000283
432 0.000272
433 0.000264
434 0.000258
435 0.000257
436 0.000260
437 0.000262
438 0.000260
439 0.000263
440 0.000258
441 0.000258
442 0.000263
443 0.000266
444 0.000276
445 0.000289
446 0.000296
447 0.000304
448 0.000305
449 0.000318
450 0.000327
451 0.000332
452 0.000337
453 0.000341
454 0.000342
455 0.000336
456 0.000323
457 0.000319
458 0.000313
459 0.000305
460 0.000300
461 0.000294
462 0.000288
463 0.000285
464 0.000276
465 0.000269
466 0.000262
467 0.000256
468 0.000257
469 0.000253
470 0.000257
471 0.000265
472 0.000268
473 0.000270
474 0.000271
475 0.000272
476 0.000272
477 0.000267
478 0.000258
479 0.000255
480 0.000261
481 0.000266
482 0.000270
483 0.000273
484 0.000272
485 0.000277
486 0.000270
487 0.000258
488 0.000244
489 0.000232
490 0.000225
491 0.000221
492 0.000213
493 0.000207
494 0.000209
495 0.000200
496 0.000197
497 0.000185
498 0.000178
499 0.000176
500 0.000172
501 0.000170
502 0.000165
503 0.000165
504 0.000170
505 0.000172
506 0.000183
507 0.000196
508 0.000208
509 0.000221
510 0.000226
511 0.000237
512 0.000247
513 0.000254
514 0.000261
515 0.000263
516 0.000268
517 0.000267
518 0.000272
519 0.000269
520 0.000269
521 0.000266
522 0.000251
523 0.000250
524 0.000246
525 0.000240
526 0.000242
527 0.000242
528 0.000239
529 0.000235
530 0.000227
531 0.000221
532 0.000219
533 0.000215
534 0.000211
535 0.000206
536 0.000200
537 0.000190
538 0.000186
539 0.000183
540 0.000185
541 0.000192
542 0.000198
543 0.000197
544 0.000195
545 0.000195
546 0.000196
547 0.000190
548 0.000181
549 0.000180
550 0.000179
551 0.000179
552 0.000174
553 0.000167
554 0.000161
555 0.000159
556 0.000158
557 0.000158
558 0.000160
559 0.000156
560 0.000153
561 0.000151
562 0.000150
563 0.000155
564 0.000157
565 0.000156
566 0.000159
567 0.000163
568 0.000157
569 0.000151
570 0.000147
571 0.000143
572 0.000146
573 0.000146
574 0.000143
575 0.000145
576 0.000143
577 0.000143
578 0.000148
579 0.000152
580 0.000159
581 0.000167
582 0.000180
583 0.000183
584 0.000182
585 0.000177
586 0.000165
587 0.000163
588 0.000163
589 0.000160
590 0.000156
591 0.000146
592 0.000138
593 0.000137
594 0.000137
595 0.000134
596 0.000134
597 0.000130
598 0.000127
599 0.000122
600 0.000116
601 0.000113
602 0.000106
603 0.000104
604 0.000102
605 0.000105
606 0.000102
607 0.000089
608 0.000083
609 0.000079
610 0.000083
611 0.000090
612 0.000087
613 0.000087
614 0.000085
615 0.000084
616 0.000090
617 0.000098
618 0.000107
619 0.000117
620 0.000121
621 0.000123
622 0.000125
623 0.000131
624 0.000136
625 0.000143
626 0.000148
627 0.000155
628 0.000159
629 0.000159
630 0.000154
631 0.000153
632 0.000149
633 0.000147
634 0.000143
635 0.000138
636 0.000141
637 0.000141
638 0.000138
639 0.000127
640 0.000123
641 0.000122
642 0.000126
643 0.000137
644 0.000140
645 0.000145
646 0.000144
647 0.000145
648 0.000141
649 0.000137
650 0.000133
651 0.000134
652 0.000129
653 0.000128
654 0.000133
655 0.000135
656 0.000140
657 0.000148
658 0.000152
659 0.000155
660 0.000153
661 0.000152
662 0.000149
663 0.000151
664 0.000149
665 0.000146
666 0.000145
667 0.000144
668 0.000140
669 0.000133
670 0.000122
671 0.000117
672 0.000113
673 0.000112
674 0.000115
675 0.000113
676 0.000114
677 0.000116
678 0.000115
679 0.000112
680 0.000113
681 0.000116
682 0.000116
683 0.000113
684 0.000110
685 0.000107
686 0.000105
687 0.000110
688 0.000112
689 0.000116
690 0.000116
691 0.000117
692 0.000121
693 0.000124
694 0.000136
695 0.000142
696 0.000144
697 0.000151
698 0.000162
699 0.000168
700 0.000172
701 0.000170
702 0.000169
703 0.000168
704 0.000171
705 0.000173
706 0.000177
707 0.000182
708 0.000184
709 0.000187
710 0.000189
711 0.000188
712 0.000186
713 0.000186
714 0.000184
715 0.000181
716 0.000178
717 0.000179
718 0.000182
719 0.000182
720 0.000181
721 0.000180
722 0.000172
723 0.000165
724 0.000166
725 0.000161
726 0.000162
727 0.000169
728 0.000171
729 0.000175
730 0.000177
731 0.000174
732 0.000173
733 0.000172
734 0.000168
735 0.000163
736 0.000157
737 0.000157
738 0.000158
739 0.000152
740 0.000150
741 0.000146
742 0.000138
743 0.000127
744 0.000114
745 0.000103
746 0.000094
747 0.000092
748 0.000084
749 0.000080
750 0.000082
751 0.000082
752 0.000084
753 0.000090
754 0.000094
755 0.000094
756 0.000091
757 0.000087
758 0.000082
759 0.000081
760 0.000081
761 0.000079
762 0.000078
763 0.000078
764 0.000080
765 0.000081
766 0.000079
767 0.000077
768 0.000077
769 0.000081
770 0.000082
771 0.000088
772 0.000088
773 0.000086
774 0.000082
775 0.000072
776 0.000065
777 0.000058
778 0.000049
779 0.000040
780 0.000037
781 0.000038
782 0.000035
783 0.000033
784 0.000029
785 0.000027
786 0.000027
787 0.000029
788 0.000035
789 0.000040
790 0.000042
791 0.000045
792 0.000048
793 0.000048
794 0.000047
795 0.000038
796 0.000030
797 0.000025
798 0.000021
799 0.000024
800 0.000026
801 0.000028
802 0.000032
803 0.000033
804 0.000033
805 0.000032
806 0.000030
807 0.000031
808 0.000036
809 0.000037
