# i correlation
1 0.002091
2 0.002017
3 0.001963
4 0.001915
5 0.001867
6 0.001820
7 0.001790
8 0.001763
9 0.001749
10 0.001722
11 0.001694
12 0.001671
13 0.001642
14 0.001625
15 0.001606
16 0.001596
17 0.001583
18 0.001565
19 0.001551
20 0.001545
21 0.001539
22 0.001527
23 0.001521
24 0.001509
25 0.001498
26 0.001479
27 0.001461
28 0.001449
29 0.001435
30 0.001425
31 0.001414
32 0.001402
33 0.001395
34 0.001394
35 0.001389
36 0.001382
37 0.001384
38 0.001387
39 0.001393
40 0.001391
41 0.001395
42 0.001394
43 0.001393
44 0.001396
45 0.001402
46 0.001403
47 0.001409
48 0.001413
49 0.001406
50 0.001396
51 0.001390
52 0.001386
53 0.001375
54 0.001362
55 0.001359
56 0.001353
57 0.001345
58 0.001327
59 0.001316
60 0.001305
61 0.001301
62 0.001293
63 0.001279
64 0.001276
65 0.001264
66 0.001255
67 0.001243
68 0.001240
69 0.001235
70 0.001220
71 0.001205
72 0.001190
73 0.001184
74 0.001173
75 0.001161
76 0.001151
77 0.001138
78 0.001131
79 0.001122
80 0.001107
81 0.001097
82 0.001086
83 0.001073
84 0.001064
85 0.001058
86 0.001056
87 0.001055
88 0.001052
89 0.001049
90 0.001051
91 0.001050
92 0.001050
93 0.001048
94 0.001044
95 0.001048
96 0.001056
97 0.001057
98 0.001060
99 0.001070
100 0.001074
101 0.001071
102 0.001073
103 0.001081
104 0.001091
105 0.001096
106 0.001101
107 0.001099
108 0.001103
109 0.001110
110 0.001109
111 0.001100
112 0.001096
113 0.001091
114 0.001086
115 0.001078
116 0.001074
117 0.001062
118 0.001052
119 0.001040
120 0.001033
121 0.001031
122 0.001018
123 0.001007
124 0.001006
125 0.001011
126 0.001008
127 0.001006
128 0.001007
129 0.001006
130 0.001014
131 0.001013
132 0.001002
133 0.000989
134 0.000982
135 0.000978
136 0.000976
137 0.000983
138 0.000988
139 0.000996
140 0.001002
141 0.001013
142 0.001022
143 0.001020
144 0.001026
145 0.001031
146 0.001032
147 0.001042
148 0.001055
149 0.001060
150 0.001060
151 0.001065
152 0.001066
153 0.001066
154 0.001075
155 0.001087
156 0.001093
157 0.001097
158 0.001099
159 0.001096
160 0.001094
161 0.001098
162 0.001099
163 0.001104
164 0.001115
165 0.001123
166 0.001121
167 0.001122
168 0.001116
169 0.001115
170 0.001116
171 0.001110
172 0.001110
173 0.001109
174 0.001101
175 0.001091
176 0.001077
177 0.001069
178 0.001055
179 0.001040
180 0.001024
181 0.001014
182 0.001003
183 0.000996
184 0.000993
185 0.000984
186 0.000980
187 0.000977
188 0.000973
189 0.000978
190 0.000984
191 0.000983
192 0.000977
193 0.000975
194 0.000973
195 0.000963
196 0.000949
197 0.000933
198 0.000930
199 0.000928
200 0.000928
201 0.000929
202 0.000930
203 0.000934
204 0.000935
205 0.000932
206 0.000924
207 0.000918
208 0.000910
209 0.000910
210 0.000916
211 0.000930
212 0.000943
213 0.000954
214 0.000961
215 0.000968
216 0.000971
217 0.000970
218 0.000958
219 0.000950
220 0.000947
221 0.000938
222 0.000931
223 0.000927
224 0.000925
225 0.000920
226 0.000914
227 0.000909
228 0.000898
229 0.000887
230 0.000881
231 0.000874
232 0.000869
233 0.000861
234 0.000860
235 0.000855
236 0.000855
237 0.000856
238 0.000855
239 0.000858
240 0.000858
241 0.000849
242 0.000836
243 0.000833
244 0.000827
245 0.000820
246 0.000810
247 0.000797
248 0.000783
249 0.000767
250 0.000756
251 0.000748
252 0.000738
253 0.000728
254 0.000730
255 0.000737
256 0.000736
257 0.000736
258 0.000736
259 0.000733
260 0.000749
261 0.000759
262 0.000764
263 0.000764
264 0.000763
265 0.000763
266 0.000760
267 0.000758
268 0.000755
269 0.000755
270 0.000749
271 0.000742
272 0.000735
273 0.000726
274 0.000715
275 0.000708
276 0.000701
277 0.000699
278 0.000699
279 0.000701
280 0.000700
281 0.000696
282 0.000687
283 0.000682
284 0.000679
285 0.000676
286 0.000672
287 0.000663
288 0.000652
289 0.000649
290 0.000636
291 0.000627
292 0.000617
293 0.000611
294 0.000614
295 0.000619
296 0.000622
297 0.000620
298 0.000626
299 0.000631
300 0.000638
301 0.000639
302 0.000641
303 0.000647
304 0.000649
305 0.000651
306 0.000651
307 0.000656
308 0.000663
309 0.000669
310 0.000673
311 0.000679
312 0.000690
313 0.000692
314 0.000693
315 0.000696
316 0.000695
317 0.000692
318 0.000687
319 0.000690
320 0.000695
321 0.000700
322 0.000704
323 0.000699
324 0.000700
325 0.000706
326 0.000710
327 0.000706
328 0.000708
329 0.000716
330 0.000722
331 0.000725
332 0.000723
333 0.000720
334 0.000705
335 0.000700
336 0.000702
337 0.000697
338 0.000686
339 0.000677
340 0.000669
341 0.000665
342 0.000664
343 0.000661
344 0.000658
345 0.000660
346 0.000657
347 0.000656
348 0.000652
349 0.000647
350 0.000646
351 0.000643
352 0.000640
353 0.000644
354 0.000651
355 0.000652
356 0.000653
357 0.000649
358 0.000639
359 0.000634
360 0.000633
361 0.000632
362 0.000629
363 0.000622
364 0.000626
365 0.000625
366 0.000623
367 0.000623
368 0.000627
369 0.000630
370 0.000631
371 0.000630
372 0.000628
373 0.000626
374 0.000636
375 0.000643
376 0.000651
377 0.000654
378 0.000656
379 0.000654
380 0.000645
381 0.000633
382 0.000620
383 0.000611
384 0.000608
385 0.000609
386 0.000607
387 0.000603
388 0.000606
389 0.000601
390 0.000593
391 0.000587
392 0.000581
393 0.000575
394 0.000572
395 0.000568
396 0.000559
397 0.000559
398 0.000560
399 0.000561
400 0.000560
401 0.000558
402 0.000557
403 0.000563
404 0.000570
405 0.000577
406 0.000579
407 0.000577
408 0.000579
409 0.000587
410 0.000593
411 0.000593
412 0.000589
413 0.000585
414 0.000583
415 0.000578
416 0.000576
417 0.000577
418 0.000574
419 0.000567
420 0.000558
421 0.000556
422 0.000549
423 0.000541
424 0.000536
425 0.000531
426 0.000530
427 0.000524
428 0.000525
429 0.000525
430 0.000525
431 0.000522
432 0.000518
433 0.000515
434 0.000507
435 0.000504
436 0.000498
437 0.000495
438 0.000495
439 0.000500
440 0.000503
441 0.000502
442 0.000502
443 0.000496
444 0.000492
445 0.000484
446 0.000470
447 0.000458
448 0.000448
449 0.000445
450 0.000440
451 0.000443
452 0.000448
453 0.000462
454 0.000464
455 0.000460
456 0.000462
457 0.000458
458 0.000455
459 0.000446
460 0.000442
461 0.000441
462 0.000441
463 0.000433
464 0.000422
465 0.000420
466 0.000416
467 0.000415
468 0.000412
469 0.000408
470 0.000407
471 0.000405
472 0.000404
473 0.000406
474 0.000405
475 0.000401
476 0.000402
477 0.000409
478 0.000418
479 0.000421
480 0.000425
481 0.000422
482 0.000417
483 0.000411
484 0.000411
485 0.000411
486 0.000406
487 0.000403
488 0.000396
489 0.000386
490 0.000383
491 0.000373
492 0.000367
493 0.000357
494 0.000350
495 0.000340
496 0.000331
497 0.000322
498 0.000307
499 0.000296
500 0.000296
501 0.000297
502 0.000288
503 0.000282
504 0.000277
505 0.000271
506 0.000267
507 0.000253
508 0.000240
509 0.000239
510 0.000241
511 0.000236
512 0.000230
513 0.000225
514 0.000218
515 0.000213
516 0.000201
517 0.000199
518 0.000203
519 0.000206
520 0.000206
521 0.000210
522 0.000218
523 0.000220
524 0.000220
525 0.000219
526 0.000222
527 0.000221
528 0.000214
529 0.000211
530 0.000207
531 0.000207
532 0.000202
533 0.000195
534 0.000198
535 0.000200
536 0.000194
537 0.000188
538 0.000182
539 0.000186
540 0.000188
541 0.000196
542 0.000203
543 0.000208
544 0.000211
545 0.000214
546 0.000218
547 0.000218
548 0.000217
549 0.000219
550 0.000213
551 0.000206
552 0.000199
553 0.000188
554 0.000180
555 0.000171
556 0.000170
557 0.000168
558 0.000169
559 0.000170
560 0.000170
561 0.000171
562 0.000168
563 0.000165
564 0.000157
565 0.000161
566 0.000158
567 0.000158
568 0.000157
569 0.000162
570 0.000172
571 0.000172
572 0.000171
573 0.000170
574 0.000172
575 0.000174
576 0.000171
577 0.000169
578 0.000169
579 0.000174
580 0.000180
581 0.000188
582 0.000198
583 0.000208
584 0.000213
585 0.000209
586 0.000215
587 0.000226
588 0.000231
589 0.000234
590 0.000245
591 0.000255
592 0.000256
593 0.000264
594 0.000267
595 0.000267
596 0.000266
597 0.000264
598 0.000266
599 0.000269
600 0.000271
601 0.000268
602 0.000263
603 0.000259
604 0.000256
605 0.000256
606 0.000253
607 0.000251
608 0.000251
609 0.000255
610 0.000263
611 0.000267
612 0.000267
613 0.000263
614 0.000265
615 0.000272
616 0.000274
617 0.000273
618 0.000276
619 0.000278
620 0.000279
621 0.000278
622 0.000278
623 0.000273
624 0.000269
625 0.000268
626 0.000263
627 0.000259
628 0.000262
629 0.000261
630 0.000265
631 0.000272
632 0.000282
633 0.000287
634 0.000298
635 0.000307
636 0.000311
637 0.000312
638 0.000315
639 0.000321
640 0.000323
641 0.000325
642 0.000328
643 0.000332
644 0.000337
645 0.000341
646 0.000341
647 0.000339
648 0.000337
649 0.000338
650 0.000330
651 0.000328
652 0.000326
653 0.000325
654 0.000320
655 0.000317
656 0.000319
657 0.000314
658 0.000309
659 0.000299
660 0.000291
661 0.000283
662 0.000271
663 0.000255
664 0.000239
665 0.000229
666 0.000223
667 0.000218
668 0.000213
669 0.000216
670 0.000214
671 0.000210
672 0.000207
673 0.000211
674 0.000209
675 0.000206
676 0.000203
677 0.000200
678 0.000201
679 0.000203
680 0.000198
681 0.000192
682 0.000187
683 0.000185
684 0.000180
685 0.000173
686 0.000172
687 0.000173
688 0.000174
689 0.000173
690 0.000177
691 0.000180
692 0.000179
693 0.000177
694 0.000179
695 0.000179
696 0.000179
697 0.000178
698 0.000175
699 0.000176
700 0.000176
701 0.000174
702 0.000168
703 0.000166
704 0.000167
705 0.000168
706 0.000165
707 0.000159
708 0.000156
709 0.000154
710 0.000151
711 0.000149
712 0.000149
713 0.000150
714 0.000149
715 0.000146
716 0.000143
717 0.000141
718 0.000136
719 0.000126
720 0.000119
721 0.000113
722 0.000108
723 0.000102
724 0.000100
725 0.000098
726 0.000093
727 0.000084
728 0.000075
729 0.000069
730 0.000066
731 0.000063
732 0.000060
733 0.000056
734 0.000058
735 0.000063
736 0.000063
737 0.000059
738 0.000059
739 0.000060
740 0.000060
741 0.000057
742 0.000055
743 0.000051
744 0.000048
745 0.000045
746 0.000045
747 0.000049
748 0.000056
749 0.000065
750 0.000072
751 0.000084
752 0.000094
753 0.000101
754 0.000107
755 0.000113
756 0.000121
757 0.000128
758 0.000131
759 0.000138
760 0.000147
761 0.000158
762 0.000161
763 0.000165
764 0.000169
765 0.000176
766 0.000181
767 0.000180
768 0.000174
769 0.000170
770 0.000165
771 0.000156
772 0.000149
773 0.000144
774 0.000142
775 0.000135
776 0.000130
777 0.000125
778 0.000120
779 0.000115
780 0.000110
781 0.000109
782 0.000116
783 0.000122
784 0.000126
785 0.000128
786 0.000133
787 0.000135
788 0.000134
789 0.000133
790 0.000132
791 0.000131
792 0.000129
793 0.000126
794 0.000124
795 0.000123
796 0.000119
797 0.000119
798 0.000123
799 0.000127
800 0.000132
801 0.000136
802 0.000139
803 0.000142
804 0.000150
805 0.000154
806 0.000157
807 0.000163
808 0.000168
809 0.000175
