# i correlation
1 0.001726
2 0.001638
3 0.001568
4 0.001510
5 0.001469
6 0.001441
7 0.001422
8 0.001393
9 0.001364
10 0.001337
11 0.001322
12 0.001308
13 0.001299
14 0.001285
15 0.001264
16 0.001249
17 0.001235
18 0.001221
19 0.001204
20 0.001190
21 0.001175
22 0.001151
23 0.001129
24 0.001116
25 0.001102
26 0.001089
27 0.001081
28 0.001075
29 0.001077
30 0.001074
31 0.001071
32 0.001068
33 0.001061
34 0.001051
35 0.001046
36 0.001033
37 0.001018
38 0.001004
39 0.001000
40 0.000999
41 0.000991
42 0.000979
43 0.000963
44 0.000949
45 0.000941
46 0.000934
47 0.000936
48 0.000946
49 0.000952
50 0.000946
51 0.000946
52 0.000950
53 0.000944
54 0.000933
55 0.000929
56 0.000926
57 0.000917
58 0.000912
59 0.000915
60 0.000919
61 0.000927
62 0.000930
63 0.000924
64 0.000915
65 0.000910
66 0.000910
67 0.000909
68 0.000916
69 0.000921
70 0.000925
71 0.000932
72 0.000946
73 0.000951
74 0.000952
75 0.000937
76 0.000915
77 0.000893
78 0.000873
79 0.000864
80 0.000862
81 0.000859
82 0.000847
83 0.000829
84 0.000814
85 0.000806
86 0.000792
87 0.000776
88 0.000764
89 0.000755
90 0.000746
91 0.000745
92 0.000743
93 0.000738
94 0.000728
95 0.000712
96 0.000699
97 0.000685
98 0.000674
99 0.000664
100 0.000660
101 0.000664
102 0.000659
103 0.000656
104 0.000647
105 0.000639
106 0.000637
107 0.000637
108 0.000638
109 0.000642
110 0.000649
111 0.000650
112 0.000656
113 0.000663
114 0.000674
115 0.000684
116 0.000685
117 0.000684
118 0.000683
119 0.000684
120 0.000691
121 0.000697
122 0.000695
123 0.000695
124 0.000695
125 0.000687
126 0.000677
127 0.000669
128 0.000665
129 0.000656
130 0.000649
131 0.000641
132 0.000632
133 0.000629
134 0.000622
135 0.000621
136 0.000624
137 0.000633
138 0.000640
139 0.000638
140 0.000634
141 0.000636
142 0.000637
143 0.000638
144 0.000642
145 0.000647
146 0.000648
147 0.000646
148 0.000642
149 0.000635
150 0.000622
151 0.000601
152 0.000585
153 0.000578
154 0.000571
155 0.000569
156 0.000570
157 0.000561
158 0.000545
159 0.000533
160 0.000525
161 0.000520
162 0.000516
163 0.000507
164 0.000498
165 0.000489
166 0.000485
167 0.000488
168 0.000495
169 0.000500
170 0.000499
171 0.000491
172 0.000486
173 0.000484
174 0.000479
175 0.000477
176 0.000478
177 0.000483
178 0.000486
179 0.000481
180 0.000481
181 0.000484
182 0.000480
183 0.000477
184 0.000473
185 0.000471
186 0.000468
187 0.000468
188 0.000477
189 0.000482
190 0.000486
191 0.000486
192 0.000490
193 0.000499
194 0.000509
195 0.000510
196 0.000516
197 0.000523
198 0.000527
199 0.000526
200 0.000523
201 0.000527
202 0.000527
203 0.000527
204 0.000534
205 0.000542
206 0.000543
207 0.000547
208 0.000554
209 0.000561
210 0.000564
211 0.000567
212 0.000576
213 0.000582
214 0.000584
215 0.000590
216 0.000592
217 0.000594
218 0.000604
219 0.000615
220 0.000623
221 0.000629
222 0.000629
223 0.000626
224 0.000619
225 0.000619
226 0.000619
227 0.000621
228 0.000628
229 0.000646
230 0.000653
231 0.000652
232 0.000643
233 0.000634
234 0.000625
235 0.000614
236 0.000613
237 0.000614
238 0.000608
239 0.000599
240 0.000586
241 0.000579
242 0.000572
243 0.000576
244 0.000576
245 0.000569
246 0.000560
247 0.000555
248 0.000554
249 0.000555
250 0.000558
251 0.000557
252 0.000557
253 0.000558
254 0.000563
255 0.000567
256 0.000569
257 0.000568
258 0.000566
259 0.000559
260 0.000559
261 0.000565
262 0.000572
263 0.000577
264 0.000576
265 0.000575
266 0.000572
267 0.000564
268 0.000558
269 0.000552
270 0.000549
271 0.000541
272 0.000527
273 0.000516
274 0.000511
275 0.000496
276 0.000487
277 0.000477
278 0.000467
279 0.000466
280 0.000469
281 0.000470
282 0.000471
283 0.000467
284 0.000463
285 0.000468
286 0.000472
287 0.000477
288 0.000482
289 0.000483
290 0.000487
291 0.000489
292 0.000491
293 0.000491
294 0.000485
295 0.000474
296 0.000465
297 0.000453
298 0.000445
299 0.000438
300 0.000438
301 0.000437
302 0.000429
303 0.000424
304 0.000417
305 0.000410
306 0.000411
307 0.000405
308 0.000393
309 0.000386
310 0.000374
311 0.000358
312 0.000337
313 0.000319
314 0.000305
315 0.000297
316 0.000295
317 0.000300
318 0.000305
319 0.000299
320 0.000287
321 0.000284
322 0.000291
323 0.000301
324 0.000305
325 0.000313
326 0.000312
327 0.000314
328 0.000317
329 0.000324
330 0.000331
331 0.000330
332 0.000330
333 0.000322
334 0.000320
335 0.000328
336 0.000343
337 0.000358
338 0.000370
339 0.000385
340 0.000395
341 0.000401
342 0.000413
343 0.000425
344 0.000433
345 0.000439
346 0.000447
347 0.000451
348 0.000453
349 0.000455
350 0.000457
351 0.000453
352 0.000449
353 0.000450
354 0.000454
355 0.000451
356 0.000448
357 0.000444
358 0.000442
359 0.000439
360 0.000433
361 0.000435
362 0.000442
363 0.000434
364 0.000427
365 0.000422
366 0.000418
367 0.000415
368 0.000413
369 0.000408
370 0.000405
371 0.000402
372 0.000398
373 0.000392
374 0.000391
375 0.000387
376 0.000380
377 0.000373
378 0.000371
379 0.000368
380 0.000360
381 0.000356
382 0.000352
383 0.000350
384 0.000343
385 0.000338
386 0.000333
387 0.000331
388 0.000326
389 0.000316
390 0.000307
391 0.000301
392 0.000290
393 0.000276
394 0.000257
395 0.000244
396 0.000235
397 0.000235
398 0.000242
399 0.000253
400 0.000266
401 0.000275
402 0.000284
403 0.000290
404 0.000292
405 0.000287
406 0.000289
407 0.000291
408 0.000292
409 0.000298
410 0.000306
411 0.000316
412 0.000320
413 0.000330
414 0.000337
415 0.000342
416 0.000346
417 0.000354
418 0.000359
419 0.000361
420 0.000364
421 0.000365
422 0.000366
423 0.000365
424 0.000367
425 0.000363
426 0.000355
427 0.000354
428 0.000351
429 0.000351
430 0.000354
431 0.000355
432 0.000351
433 0.000348
434 0.000344
435 0.000340
436 0.000339
437 0.000336
438 0.000329
439 0.000321
440 0.000309
441 0.000300
442 0.000295
443 0.000293
444 0.000293
445 0.000293
446 0.000292
447 0.000291
448 0.000290
449 0.000290
450 0.000287
451 0.000283
452 0.000281
453 0.000277
454 0.000272
455 0.000267
456 0.000265
457 0.000260
458 0.000257
459 0.000258
460 0.000263
461 0.000264
462 0.000277
463 0.000291
464 0.000297
465 0.000303
466 0.000306
467 0.000309
468 0.000311
469 0.000309
470 0.000308
471 0.000296
472 0.000288
473 0.000282
474 0.000279
475 0.000277
476 0.000275
477 0.000276
478 0.000280
479 0.000286
480 0.000290
481 0.000297
482 0.000308
483 0.000316
484 0.000328
485 0.000342
486 0.000355
487 0.000365
488 0.000367
489 0.000369
490 0.000366
491 0.000362
492 0.000366
493 0.000373
494 0.000386
495 0.000397
496 0.000401
497 0.000403
498 0.000402
499 0.000405
500 0.000405
501 0.000403
502 0.000403
503 0.000403
504 0.000393
505 0.000390
506 0.000389
507 0.000383
508 0.000378
509 0.000369
510 0.000366
511 0.000369
512 0.000366
513 0.000353
514 0.000341
515 0.000334
516 0.000330
517 0.000327
518 0.000326
519 0.000325
520 0.000320
521 0.000317
522 0.000309
523 0.000304
524 0.000302
525 0.000295
526 0.000288
527 0.000280
528 0.000276
529 0.000273
530 0.000269
531 0.000266
532 0.000260
533 0.000247
534 0.000234
535 0.000230
536 0.000232
537 0.000241
538 0.000248
539 0.000250
540 0.000244
541 0.000230
542 0.000223
543 0.000218
544 0.000219
545 0.000224
546 0.000228
547 0.000231
548 0.000232
549 0.000228
550 0.000225
551 0.000226
552 0.000226
553 0.000225
554 0.000225
555 0.000233
556 0.000242
557 0.000251
558 0.000265
559 0.000277
560 0.000287
561 0.000288
562 0.000280
563 0.000274
564 0.000270
565 0.000266
566 0.000270
567 0.000272
568 0.000277
569 0.000274
570 0.000271
571 0.000273
572 0.000278
573 0.000277
574 0.000273
575 0.000268
576 0.000258
577 0.000256
578 0.000254
579 0.000260
580 0.000269
581 0.000274
582 0.000272
583 0.000269
584 0.000269
585 0.000269
586 0.000271
587 0.000272
588 0.000275
589 0.000271
590 0.000268
591 0.000273
592 0.000279
593 0.000281
594 0.000282
595 0.000283
596 0.000279
597 0.000284
598 0.000284
599 0.000288
600 0.000292
601 0.000294
602 0.000289
603 0.000286
604 0.000281
605 0.000282
606 0.000283
607 0.000285
608 0.000289
609 0.000295
610 0.000299
611 0.000303
612 0.000311
613 0.000314
614 0.000313
615 0.000310
616 0.000311
617 0.000315
618 0.000316
619 0.000314
620 0.000316
621 0.000316
622 0.000315
623 0.000310
624 0.000305
625 0.000300
626 0.000301
627 0.000306
628 0.000310
629 0.000316
630 0.000327
631 0.000338
632 0.000352
633 0.000361
634 0.000364
635 0.000364
636 0.000363
637 0.000353
638 0.000344
639 0.000342
640 0.000345
641 0.000347
642 0.000346
643 0.000344
644 0.000341
645 0.000337
646 0.000334
647 0.000334
648 0.000334
649 0.000332
650 0.000327
651 0.000320
652 0.000312
653 0.000303
654 0.000295
655 0.000283
656 0.000273
657 0.000262
658 0.000253
659 0.000249
660 0.000246
661 0.000249
662 0.000252
663 0.000250
664 0.000247
665 0.000242
666 0.000235
667 0.000233
668 0.000238
669 0.000237
670 0.000229
671 0.000229
672 0.000231
673 0.000235
674 0.000233
675 0.000235
676 0.000230
677 0.000222
678 0.000216
679 0.000216
680 0.000220
681 0.000224
682 0.000229
683 0.000234
684 0.000243
685 0.000248
686 0.000252
687 0.000249
688 0.000248
689 0.000247
690 0.000244
691 0.000244
692 0.000248
693 0.000252
694 0.000253
695 0.000253
696 0.000252
697 0.000249
698 0.000251
699 0.000254
700 0.000256
701 0.000261
702 0.000265
703 0.000269
704 0.000274
705 0.000278
706 0.000286
707 0.000293
708 0.000297
709 0.000303
710 0.000307
711 0.000307
712 0.000306
713 0.000308
714 0.000306
715 0.000308
716 0.000315
717 0.000319
718 0.000322
719 0.000323
720 0.000327
721 0.000331
722 0.000331
723 0.000331
724 0.000331
725 0.000331
726 0.000328
727 0.000324
728 0.000318
729 0.000309
730 0.000303
731 0.000298
732 0.000294
733 0.000296
734 0.000295
735 0.000292
736 0.000293
737 0.000286
738 0.000275
739 0.000267
740 0.000263
741 0.000260
742 0.000254
743 0.000251
744 0.000245
745 0.000243
746 0.000240
747 0.000236
748 0.000234
749 0.000235
750 0.000239
751 0.000239
752 0.000239
753 0.000240
754 0.000243
755 0.000244
756 0.000246
757 0.000251
758 0.000253
759 0.000251
760 0.000252
761 0.000252
762 0.000249
763 0.000246
764 0.000244
765 0.000243
766 0.000241
767 0.000236
768 0.000230
769 0.000227
770 0.000223
771 0.000216
772 0.000210
773 0.000210
774 0.000214
775 0.000217
776 0.000225
777 0.000227
778 0.000230
779 0.000225
780 0.000218
781 0.000211
782 0.000207
783 0.000202
784 0.000194
785 0.000193
786 0.000191
787 0.000196
788 0.000201
789 0.000206
790 0.000208
791 0.000209
792 0.000211
793 0.000211
794 0.000206
795 0.000202
796 0.000193
797 0.000184
798 0.000175
799 0.000170
800 0.000162
801 0.000156
802 0.000152
803 0.000146
804 0.000139
805 0.000133
806 0.000130
807 0.000126
808 0.000122
809 0.000122
