# i correlation
1 0.001704
2 0.001626
3 0.001552
4 0.001492
5 0.001448
6 0.001410
7 0.001383
8 0.001359
9 0.001337
10 0.001324
11 0.001300
12 0.001293
13 0.001277
14 0.001273
15 0.001264
16 0.001257
17 0.001259
18 0.001253
19 0.001250
20 0.001244
21 0.001237
22 0.001240
23 0.001238
24 0.001244
25 0.001246
26 0.001243
27 0.001238
28 0.001233
29 0.001225
30 0.001210
31 0.001195
32 0.001175
33 0.001163
34 0.001161
35 0.001163
36 0.001154
37 0.001145
38 0.001138
39 0.001126
40 0.001110
41 0.001095
42 0.001082
43 0.001074
44 0.001060
45 0.001055
46 0.001048
47 0.001045
48 0.001040
49 0.001038
50 0.001037
51 0.001034
52 0.001031
53 0.001032
54 0.001029
55 0.001030
56 0.001020
57 0.001012
58 0.001005
59 0.000999
60 0.000994
61 0.000992
62 0.000985
63 0.000979
64 0.000968
65 0.000961
66 0.000949
67 0.000939
68 0.000924
69 0.000918
70 0.000918
71 0.000930
72 0.000935
73 0.000940
74 0.000950
75 0.000959
76 0.000961
77 0.000959
78 0.000951
79 0.000937
80 0.000925
81 0.000914
82 0.000898
83 0.000889
84 0.000885
85 0.000876
86 0.000860
87 0.000845
88 0.000839
89 0.000832
90 0.000824
91 0.000814
92 0.000811
93 0.000809
94 0.000810
95 0.000801
96 0.000798
97 0.000787
98 0.000779
99 0.000775
100 0.000784
101 0.000790
102 0.000799
103 0.000797
104 0.000778
105 0.000761
106 0.000750
107 0.000739
108 0.000731
109 0.000729
110 0.000738
111 0.000733
112 0.000730
113 0.000726
114 0.000720
115 0.000719
116 0.000713
117 0.000703
118 0.000699
119 0.000705
120 0.000704
121 0.000698
122 0.000695
123 0.000687
124 0.000682
125 0.000681
126 0.000677
127 0.000675
128 0.000672
129 0.000672
130 0.000669
131 0.000665
132 0.000661
133 0.000655
134 0.000658
135 0.000664
136 0.000661
137 0.000660
138 0.000656
139 0.000649
140 0.000641
141 0.000633
142 0.000619
143 0.000609
144 0.000602
145 0.000600
146 0.000596
147 0.000601
148 0.000608
149 0.000615
150 0.000624
151 0.000628
152 0.000627
153 0.000625
154 0.000621
155 0.000615
156 0.000609
157 0.000606
158 0.000597
159 0.000582
160 0.000564
161 0.000548
162 0.000539
163 0.000538
164 0.000538
165 0.000531
166 0.000522
167 0.000506
168 0.000496
169 0.000487
170 0.000487
171 0.000488
172 0.000491
173 0.000495
174 0.000493
175 0.000488
176 0.000487
177 0.000494
178 0.000500
179 0.000502
180 0.000505
181 0.000508
182 0.000505
183 0.000504
184 0.000500
185 0.000506
186 0.000510
187 0.000515
188 0.000511
189 0.000503
190 0.000504
191 0.000505
192 0.000504
193 0.000505
194 0.000503
195 0.000502
196 0.000503
197 0.000501
198 0.000495
199 0.000485
200 0.000474
201 0.000467
202 0.000464
203 0.000458
204 0.000457
205 0.000456
206 0.000456
207 0.000454
208 0.000455
209 0.000465
210 0.000469
211 0.000468
212 0.000468
213 0.000462
214 0.000455
215 0.000455
216 0.000458
217 0.000459
218 0.000463
219 0.000462
220 0.000456
221 0.000456
222 0.000455
223 0.000453
224 0.000448
225 0.000450
226 0.000455
227 0.000452
228 0.000454
229 0.000455
230 0.000447
231 0.000441
232 0.000431
233 0.000424
234 0.000419
235 0.000422
236 0.000426
237 0.000429
238 0.000428
239 0.000424
240 0.000418
241 0.000417
242 0.000416
243 0.000417
244 0.000414
245 0.000412
246 0.000412
247 0.000417
248 0.000421
249 0.000418
250 0.000414
251 0.000411
252 0.000403
253 0.000399
254 0.000393
255 0.000390
256 0.000388
257 0.000386
258 0.000398
259 0.000403
260 0.000414
261 0.000418
262 0.000423
263 0.000432
264 0.000439
265 0.000442
266 0.000440
267 0.000444
268 0.000442
269 0.000437
270 0.000434
271 0.000432
272 0.000440
273 0.000437
274 0.000434
275 0.000432
276 0.000428
277 0.000423
278 0.000420
279 0.000422
280 0.000427
281 0.000432
282 0.000433
283 0.000433
284 0.000431
285 0.000427
286 0.000421
287 0.000415
288 0.000417
289 0.000423
290 0.000425
291 0.000418
292 0.000408
293 0.000402
294 0.000389
295 0.000374
296 0.000365
297 0.000363
298 0.000366
299 0.000369
300 0.000372
301 0.000374
302 0.000380
303 0.000389
304 0.000390
305 0.000393
306 0.000391
307 0.000386
308 0.000377
309 0.000370
310 0.000369
311 0.000371
312 0.000379
313 0.000382
314 0.000385
315 0.000396
316 0.000396
317 0.000399
318 0.000400
319 0.000403
320 0.000407
321 0.000406
322 0.000400
323 0.000399
324 0.000391
325 0.000384
326 0.000378
327 0.000373
328 0.000380
329 0.000384
330 0.000391
331 0.000403
332 0.000400
333 0.000393
334 0.000381
335 0.000375
336 0.000372
337 0.000371
338 0.000378
339 0.000383
340 0.000384
341 0.000386
342 0.000389
343 0.000396
344 0.000398
345 0.000406
346 0.000411
347 0.000420
348 0.000429
349 0.000433
350 0.000437
351 0.000434
352 0.000429
353 0.000428
354 0.000420
355 0.000416
356 0.000423
357 0.000427
358 0.000429
359 0.000430
360 0.000434
361 0.000439
362 0.000440
363 0.000440
364 0.000441
365 0.000441
366 0.000450
367 0.000454
368 0.000453
369 0.000449
370 0.000451
371 0.000449
372 0.000448
373 0.000464
374 0.000478
375 0.000489
376 0.000495
377 0.000493
378 0.000494
379 0.000485
380 0.000477
381 0.000475
382 0.000476
383 0.000482
384 0.000485
385 0.000484
386 0.000476
387 0.000464
388 0.000451
389 0.000440
390 0.000438
391 0.000440
392 0.000447
393 0.000454
394 0.000456
395 0.000462
396 0.000464
397 0.000466
398 0.000463
399 0.000468
400 0.000476
401 0.000481
402 0.000484
403 0.000487
404 0.000485
405 0.000483
406 0.000478
407 0.000472
408 0.000471
409 0.000468
410 0.000465
411 0.000462
412 0.000465
413 0.000464
414 0.000466
415 0.000463
416 0.000457
417 0.000453
418 0.000452
419 0.000453
420 0.000462
421 0.000463
422 0.000461
423 0.000451
424 0.000440
425 0.000425
426 0.000414
427 0.000412
428 0.000405
429 0.000401
430 0.000397
431 0.000400
432 0.000406
433 0.000413
434 0.000421
435 0.000423
436 0.000423
437 0.000419
438 0.000417
439 0.000414
440 0.000407
441 0.000402
442 0.000396
443 0.000386
444 0.000374
445 0.000373
446 0.000372
447 0.000375
448 0.000372
449 0.000367
450 0.000367
451 0.000362
452 0.000361
453 0.000359
454 0.000357
455 0.000361
456 0.000361
457 0.000363
458 0.000365
459 0.000366
460 0.000365
461 0.000370
462 0.000377
463 0.000378
464 0.000379
465 0.000372
466 0.000367
467 0.000365
468 0.000360
469 0.000362
470 0.000365
471 0.000363
472 0.000351
473 0.000349
474 0.000345
475 0.000340
476 0.000347
477 0.000348
478 0.000351
479 0.000353
480 0.000349
481 0.000351
482 0.000346
483 0.000344
484 0.000348
485 0.000357
486 0.000372
487 0.000377
488 0.000380
489 0.000373
490 0.000359
491 0.000353
492 0.000348
493 0.000355
494 0.000359
495 0.000371
496 0.000382
497 0.000391
498 0.000400
499 0.000402
500 0.000410
501 0.000412
502 0.000408
503 0.000408
504 0.000411
505 0.000408
506 0.000403
507 0.000399
508 0.000403
509 0.000405
510 0.000417
511 0.000429
512 0.000440
513 0.000448
514 0.000457
515 0.000461
516 0.000469
517 0.000467
518 0.000463
519 0.000459
520 0.000460
521 0.000463
522 0.000467
523 0.000472
524 0.000478
525 0.000475
526 0.000465
527 0.000455
528 0.000451
529 0.000451
530 0.000458
531 0.000462
532 0.000466
533 0.000472
534 0.000472
535 0.000472
536 0.000473
537 0.000469
538 0.000464
539 0.000467
540 0.000467
541 0.000470
542 0.000471
543 0.000471
544 0.000469
545 0.000459
546 0.000452
547 0.000450
548 0.000446
549 0.000444
550 0.000438
551 0.000438
552 0.000437
553 0.000438
554 0.000441
555 0.000444
556 0.000447
557 0.000450
558 0.000454
559 0.000452
560 0.000452
561 0.000453
562 0.000451
563 0.000452
564 0.000448
565 0.000449
566 0.000446
567 0.000441
568 0.000435
569 0.000432
570 0.000431
571 0.000435
572 0.000432
573 0.000425
574 0.000416
575 0.000408
576 0.000396
577 0.000382
578 0.000371
579 0.000363
580 0.000355
581 0.000348
582 0.000343
583 0.000340
584 0.000335
585 0.000334
586 0.000334
587 0.000330
588 0.000333
589 0.000342
590 0.000351
591 0.000366
592 0.000377
593 0.000383
594 0.000385
595 0.000392
596 0.000399
597 0.000400
598 0.000400
599 0.000399
600 0.000397
601 0.000389
602 0.000377
603 0.000365
604 0.000357
605 0.000351
606 0.000348
607 0.000342
608 0.000341
609 0.000333
610 0.000329
611 0.000327
612 0.000323
613 0.000325
614 0.000328
615 0.000328
616 0.000322
617 0.000315
618 0.000320
619 0.000323
620 0.000331
621 0.000336
622 0.000339
623 0.000341
624 0.000341
625 0.000337
626 0.000337
627 0.000330
628 0.000324
629 0.000321
630 0.000318
631 0.000314
632 0.000315
633 0.000314
634 0.000312
635 0.000315
636 0.000319
637 0.000321
638 0.000319
639 0.000317
640 0.000314
641 0.000312
642 0.000307
643 0.000304
644 0.000294
645 0.000288
646 0.000288
647 0.000285
648 0.000281
649 0.000278
650 0.000273
651 0.000273
652 0.000269
653 0.000263
654 0.000255
655 0.000252
656 0.000245
657 0.000241
658 0.000238
659 0.000237
660 0.000235
661 0.000238
662 0.000235
663 0.000241
664 0.000247
665 0.000253
666 0.000257
667 0.000262
668 0.000262
669 0.000260
670 0.000254
671 0.000254
672 0.000252
673 0.000252
674 0.000248
675 0.000244
676 0.000240
677 0.000235
678 0.000232
679 0.000227
680 0.000221
681 0.000218
682 0.000216
683 0.000215
684 0.000214
685 0.000212
686 0.000209
687 0.000204
688 0.000204
689 0.000204
690 0.000206
691 0.000207
692 0.000206
693 0.000211
694 0.000214
695 0.000219
696 0.000224
697 0.000226
698 0.000229
699 0.000224
700 0.000217
701 0.000213
702 0.000210
703 0.000205
704 0.000198
705 0.000192
706 0.000191
707 0.000189
708 0.000184
709 0.000176
710 0.000175
711 0.000174
712 0.000177
713 0.000175
714 0.000178
715 0.000178
716 0.000180
717 0.000186
718 0.000190
719 0.000186
720 0.000186
721 0.000187
722 0.000190
723 0.000192
724 0.000194
725 0.000194
726 0.000196
727 0.000195
728 0.000193
729 0.000188
730 0.000184
731 0.000180
732 0.000178
733 0.000175
734 0.000176
735 0.000175
736 0.000175
737 0.000171
738 0.000168
739 0.000164
740 0.000162
741 0.000164
742 0.000171
743 0.000173
744 0.000171
745 0.000172
746 0.000178
747 0.000178
748 0.000183
749 0.000189
750 0.000193
751 0.000197
752 0.000200
753 0.000205
754 0.000201
755 0.000195
756 0.000188
757 0.000179
758 0.000175
759 0.000172
760 0.000170
761 0.000167
762 0.000166
763 0.000165
764 0.000160
765 0.000162
766 0.000159
767 0.000162
768 0.000161
769 0.000158
770 0.000159
771 0.000159
772 0.000160
773 0.000160
774 0.000157
775 0.000152
776 0.000154
777 0.000161
778 0.000166
779 0.000165
780 0.000162
781 0.000162
782 0.000162
783 0.000159
784 0.000158
785 0.000154
786 0.000152
787 0.000149
788 0.000146
789 0.000143
790 0.000142
791 0.000139
792 0.000135
793 0.000130
794 0.000124
795 0.000120
796 0.000117
797 0.000110
798 0.000103
799 0.000097
800 0.000094
801 0.000095
802 0.000098
803 0.000099
804 0.000102
805 0.000105
806 0.000106
807 0.000108
808 0.000109
809 0.000109
