# i correlation
1 0.002102
2 0.002021
3 0.001950
4 0.001895
5 0.001850
6 0.001808
7 0.001772
8 0.001741
9 0.001712
10 0.001676
11 0.001637
12 0.001608
13 0.001589
14 0.001571
15 0.001556
16 0.001537
17 0.001521
18 0.001511
19 0.001505
20 0.001490
21 0.001468
22 0.001460
23 0.001454
24 0.001436
25 0.001423
26 0.001415
27 0.001410
28 0.001401
29 0.001383
30 0.001368
31 0.001352
32 0.001337
33 0.001322
34 0.001302
35 0.001287
36 0.001279
37 0.001262
38 0.001252
39 0.001249
40 0.001232
41 0.001218
42 0.001208
43 0.001206
44 0.001202
45 0.001204
46 0.001203
47 0.001199
48 0.001196
49 0.001189
50 0.001188
51 0.001188
52 0.001186
53 0.001182
54 0.001185
55 0.001192
56 0.001187
57 0.001175
58 0.001165
59 0.001162
60 0.001155
61 0.001154
62 0.001164
63 0.001166
64 0.001176
65 0.001171
66 0.001176
67 0.001180
68 0.001174
69 0.001171
70 0.001166
71 0.001165
72 0.001173
73 0.001175
74 0.001178
75 0.001180
76 0.001188
77 0.001189
78 0.001191
79 0.001195
80 0.001191
81 0.001193
82 0.001204
83 0.001201
84 0.001205
85 0.001215
86 0.001215
87 0.001222
88 0.001226
89 0.001224
90 0.001223
91 0.001219
92 0.001213
93 0.001205
94 0.001209
95 0.001214
96 0.001218
97 0.001211
98 0.001208
99 0.001205
100 0.001201
101 0.001204
102 0.001198
103 0.001195
104 0.001191
105 0.001197
106 0.001197
107 0.001201
108 0.001200
109 0.001194
110 0.001192
111 0.001187
112 0.001181
113 0.001178
114 0.001179
115 0.001183
116 0.001187
117 0.001189
118 0.001191
119 0.001176
120 0.001164
121 0.001147
122 0.001126
123 0.001120
124 0.001112
125 0.001105
126 0.001103
127 0.001103
128 0.001101
129 0.001089
130 0.001077
131 0.001065
132 0.001058
133 0.001046
134 0.001031
135 0.001021
136 0.001006
137 0.001005
138 0.001000
139 0.001000
140 0.000995
141 0.000992
142 0.000984
143 0.000981
144 0.000971
145 0.000967
146 0.000961
147 0.000948
148 0.000924
149 0.000903
150 0.000884
151 0.000874
152 0.000870
153 0.000863
154 0.000862
155 0.000856
156 0.000856
157 0.000851
158 0.000848
159 0.000836
160 0.000828
161 0.000835
162 0.000839
163 0.000847
164 0.000845
165 0.000841
166 0.000837
167 0.000837
168 0.000829
169 0.000815
170 0.000807
171 0.000804
172 0.000804
173 0.000806
174 0.000799
175 0.000791
176 0.000791
177 0.000791
178 0.000787
179 0.000785
180 0.000777
181 0.000770
182 0.000769
183 0.000772
184 0.000774
185 0.000780
186 0.000782
187 0.000780
188 0.000769
189 0.000766
190 0.000770
191 0.000769
192 0.000765
193 0.000769
194 0.000773
195 0.000777
196 0.000781
197 0.000786
198 0.000775
199 0.000786
200 0.000793
201 0.000803
202 0.000814
203 0.000828
204 0.000840
205 0.000853
206 0.000862
207 0.000862
208 0.000861
209 0.000870
210 0.000869
211 0.000875
212 0.000886
213 0.000890
214 0.000879
215 0.000864
216 0.000858
217 0.000854
218 0.000850
219 0.000847
220 0.000837
221 0.000822
222 0.000816
223 0.000798
224 0.000787
225 0.000776
226 0.000763
227 0.000760
228 0.000757
229 0.000754
230 0.000751
231 0.000747
232 0.000745
233 0.000744
234 0.000739
235 0.000742
236 0.000740
237 0.000736
238 0.000735
239 0.000733
240 0.000729
241 0.000729
242 0.000720
243 0.000707
244 0.000693
245 0.000681
246 0.000669
247 0.000643
248 0.000619
249 0.000592
250 0.000570
251 0.000549
252 0.000540
253 0.000529
254 0.000523
255 0.000521
256 0.000519
257 0.000514
258 0.000511
259 0.000507
260 0.000510
261 0.000515
262 0.000509
263 0.000515
264 0.000506
265 0.000493
266 0.000476
267 0.000468
268 0.000464
269 0.000467
270 0.000460
271 0.000456
272 0.000457
273 0.000455
274 0.000444
275 0.000439
276 0.000431
277 0.000423
278 0.000424
279 0.000423
280 0.000426
281 0.000431
282 0.000437
283 0.000439
284 0.000449
285 0.000452
286 0.000460
287 0.000471
288 0.000477
289 0.000482
290 0.000485
291 0.000501
292 0.000507
293 0.000511
294 0.000520
295 0.000529
296 0.000538
297 0.000541
298 0.000544
299 0.000547
300 0.000555
301 0.000563
302 0.000573
303 0.000581
304 0.000593
305 0.000595
306 0.000596
307 0.000595
308 0.000594
309 0.000591
310 0.000592
311 0.000584
312 0.000575
313 0.000559
314 0.000550
315 0.000541
316 0.000535
317 0.000544
318 0.000544
319 0.000543
320 0.000549
321 0.000549
322 0.000552
323 0.000551
324 0.000548
325 0.000543
326 0.000537
327 0.000534
328 0.000531
329 0.000525
330 0.000525
331 0.000525
332 0.000518
333 0.000504
334 0.000499
335 0.000492
336 0.000486
337 0.000469
338 0.000443
339 0.000421
340 0.000411
341 0.000398
342 0.000396
343 0.000391
344 0.000383
345 0.000387
346 0.000397
347 0.000407
348 0.000421
349 0.000437
350 0.000449
351 0.000458
352 0.000459
353 0.000458
354 0.000450
355 0.000447
356 0.000442
357 0.000443
358 0.000441
359 0.000443
360 0.000441
361 0.000438
362 0.000437
363 0.000435
364 0.000439
365 0.000436
366 0.000444
367 0.000453
368 0.000460
369 0.000459
370 0.000456
371 0.000452
372 0.000453
373 0.000456
374 0.000462
375 0.000461
376 0.000467
377 0.000465
378 0.000465
379 0.000469
380 0.000472
381 0.000474
382 0.000470
383 0.000466
384 0.000466
385 0.000467
386 0.000472
387 0.000472
388 0.000470
389 0.000471
390 0.000470
391 0.000462
392 0.000453
393 0.000445
394 0.000440
395 0.000440
396 0.000446
397 0.000454
398 0.000459
399 0.000463
400 0.000464
401 0.000463
402 0.000472
403 0.000480
404 0.000479
405 0.000477
406 0.000479
407 0.000481
408 0.000480
409 0.000478
410 0.000479
411 0.000470
412 0.000475
413 0.000479
414 0.000482
415 0.000487
416 0.000487
417 0.000481
418 0.000476
419 0.000477
420 0.000470
421 0.000480
422 0.000490
423 0.000492
424 0.000491
425 0.000486
426 0.000477
427 0.000465
428 0.000458
429 0.000454
430 0.000458
431 0.000457
432 0.000453
433 0.000452
434 0.000452
435 0.000453
436 0.000456
437 0.000452
438 0.000446
439 0.000432
440 0.000416
441 0.000407
442 0.000398
443 0.000394
444 0.000389
445 0.000387
446 0.000378
447 0.000372
448 0.000367
449 0.000371
450 0.000375
451 0.000375
452 0.000379
453 0.000374
454 0.000369
455 0.000361
456 0.000351
457 0.000345
458 0.000346
459 0.000339
460 0.000334
461 0.000328
462 0.000318
463 0.000316
464 0.000318
465 0.000319
466 0.000324
467 0.000325
468 0.000331
469 0.000338
470 0.000337
471 0.000330
472 0.000326
473 0.000327
474 0.000335
475 0.000345
476 0.000350
477 0.000361
478 0.000372
479 0.000376
480 0.000376
481 0.000385
482 0.000397
483 0.000411
484 0.000420
485 0.000427
486 0.000428
487 0.000429
488 0.000436
489 0.000439
490 0.000439
491 0.000446
492 0.000452
493 0.000459
494 0.000462
495 0.000460
496 0.000457
497 0.000467
498 0.000479
499 0.000487
500 0.000492
501 0.000495
502 0.000496
503 0.000500
504 0.000505
505 0.000505
506 0.000505
507 0.000507
508 0.000512
509 0.000512
510 0.000506
511 0.000502
512 0.000492
513 0.000498
514 0.000496
515 0.000499
516 0.000505
517 0.000511
518 0.000516
519 0.000514
520 0.000516
521 0.000522
522 0.000525
523 0.000531
524 0.000533
525 0.000535
526 0.000532
527 0.000525
528 0.000524
529 0.000524
530 0.000527
531 0.000525
532 0.000526
533 0.000529
534 0.000527
535 0.000524
536 0.000525
537 0.000521
538 0.000511
539 0.000509
540 0.000510
541 0.000508
542 0.000510
543 0.000510
544 0.000506
545 0.000498
546 0.000488
547 0.000475
548 0.000466
549 0.000455
550 0.000443
551 0.000433
552 0.000427
553 0.000423
554 0.000420
555 0.000423
556 0.000421
557 0.000409
558 0.000396
559 0.000390
560 0.000392
561 0.000397
562 0.000402
563 0.000413
564 0.000421
565 0.000425
566 0.000422
567 0.000419
568 0.000415
569 0.000413
570 0.000408
571 0.000412
572 0.000405
573 0.000412
574 0.000410
575 0.000414
576 0.000407
577 0.000400
578 0.000390
579 0.000382
580 0.000381
581 0.000370
582 0.000363
583 0.000357
584 0.000351
585 0.000342
586 0.000334
587 0.000329
588 0.000332
589 0.000343
590 0.000350
591 0.000360
592 0.000371
593 0.000377
594 0.000382
595 0.000387
596 0.000388
597 0.000393
598 0.000404
599 0.000416
600 0.000421
601 0.000423
602 0.000426
603 0.000429
604 0.000429
605 0.000434
606 0.000441
607 0.000447
608 0.000453
609 0.000461
610 0.000463
611 0.000469
612 0.000472
613 0.000470
614 0.000466
615 0.000462
616 0.000464
617 0.000461
618 0.000463
619 0.000468
620 0.000472
621 0.000480
622 0.000484
623 0.000480
624 0.000473
625 0.000468
626 0.000468
627 0.000472
628 0.000474
629 0.000474
630 0.000476
631 0.000478
632 0.000471
633 0.000462
634 0.000457
635 0.000457
636 0.000455
637 0.000456
638 0.000452
639 0.000449
640 0.000450
641 0.000451
642 0.000449
643 0.000444
644 0.000439
645 0.000436
646 0.000429
647 0.000417
648 0.000406
649 0.000396
650 0.000390
651 0.000381
652 0.000372
653 0.000365
654 0.000357
655 0.000352
656 0.000348
657 0.000344
658 0.000336
659 0.000327
660 0.000324
661 0.000318
662 0.000314
663 0.000309
664 0.000305
665 0.000298
666 0.000287
667 0.000276
668 0.000270
669 0.000267
670 0.000270
671 0.000276
672 0.000275
673 0.000269
674 0.000260
675 0.000248
676 0.000240
677 0.000233
678 0.000233
679 0.000235
680 0.000236
681 0.000238
682 0.000237
683 0.000237
684 0.000235
685 0.000234
686 0.000232
687 0.000233
688 0.000236
689 0.000234
690 0.000232
691 0.000233
692 0.000228
693 0.000226
694 0.000227
695 0.000228
696 0.000229
697 0.000230
698 0.000233
699 0.000236
700 0.000239
701 0.000242
702 0.000243
703 0.000245
704 0.000246
705 0.000244
706 0.000246
707 0.000251
708 0.000257
709 0.000264
710 0.000274
711 0.000275
712 0.000277
713 0.000273
714 0.000271
715 0.000270
716 0.000272
717 0.000275
718 0.000281
719 0.000288
720 0.000292
721 0.000294
722 0.000297
723 0.000297
724 0.000297
725 0.000298
726 0.000298
727 0.000299
728 0.000297
729 0.000302
730 0.000307
731 0.000307
732 0.000311
733 0.000317
734 0.000322
735 0.000326
736 0.000330
737 0.000337
738 0.000349
739 0.000358
740 0.000357
741 0.000356
742 0.000354
743 0.000351
744 0.000347
745 0.000348
746 0.000348
747 0.000348
748 0.000346
749 0.000334
750 0.000321
751 0.000308
752 0.000301
753 0.000295
754 0.000286
755 0.000279
756 0.000271
757 0.000260
758 0.000251
759 0.000240
760 0.000231
761 0.000224
762 0.000218
763 0.000211
764 0.000206
765 0.000203
766 0.000198
767 0.000195
768 0.000189
769 0.000183
770 0.000182
771 0.000179
772 0.000173
773 0.000170
774 0.000170
775 0.000169
776 0.000170
777 0.000169
778 0.000169
779 0.000164
780 0.000160
781 0.000157
782 0.000154
783 0.000151
784 0.000153
785 0.000156
786 0.000158
787 0.000158
788 0.000161
789 0.000162
790 0.000158
791 0.000154
792 0.000150
793 0.000149
794 0.000145
795 0.000136
796 0.000128
797 0.000123
798 0.000121
799 0.000115
800 0.000111
801 0.000112
802 0.000111
803 0.000117
804 0.000117
805 0.000117
806 0.000120
807 0.000120
808 0.000118
809 0.000115
