# i correlation
1 0.002182
2 0.002107
3 0.002034
4 0.001976
5 0.001920
6 0.001870
7 0.001824
8 0.001782
9 0.001750
10 0.001718
11 0.001690
12 0.001667
13 0.001649
14 0.001635
15 0.001621
16 0.001612
17 0.001606
18 0.001595
19 0.001586
20 0.001579
21 0.001569
22 0.001557
23 0.001548
24 0.001542
25 0.001540
26 0.001540
27 0.001540
28 0.001544
29 0.001547
30 0.001552
31 0.001543
32 0.001530
33 0.001529
34 0.001519
35 0.001516
36 0.001506
37 0.001487
38 0.001464
39 0.001450
40 0.001440
41 0.001428
42 0.001407
43 0.001394
44 0.001376
45 0.001357
46 0.001346
47 0.001327
48 0.001312
49 0.001301
50 0.001289
51 0.001290
52 0.001285
53 0.001282
54 0.001284
55 0.001293
56 0.001300
57 0.001300
58 0.001292
59 0.001285
60 0.001272
61 0.001253
62 0.001231
63 0.001214
64 0.001196
65 0.001178
66 0.001169
67 0.001154
68 0.001143
69 0.001135
70 0.001128
71 0.001121
72 0.001118
73 0.001116
74 0.001110
75 0.001109
76 0.001108
77 0.001099
78 0.001087
79 0.001081
80 0.001082
81 0.001086
82 0.001099
83 0.001104
84 0.001110
85 0.001112
86 0.001123
87 0.001129
88 0.001130
89 0.001134
90 0.001143
91 0.001156
92 0.001172
93 0.001170
94 0.001167
95 0.001157
96 0.001152
97 0.001142
98 0.001127
99 0.001117
100 0.001110
101 0.001098
102 0.001089
103 0.001083
104 0.001071
105 0.001057
106 0.001039
107 0.001028
108 0.001018
109 0.001016
110 0.001016
111 0.001019
112 0.001032
113 0.001038
114 0.001047
115 0.001049
116 0.001055
117 0.001063
118 0.001069
119 0.001078
120 0.001081
121 0.001088
122 0.001096
123 0.001100
124 0.001105
125 0.001106
126 0.001111
127 0.001122
128 0.001135
129 0.001145
130 0.001157
131 0.001164
132 0.001168
133 0.001174
134 0.001166
135 0.001165
136 0.001163
137 0.001162
138 0.001153
139 0.001149
140 0.001136
141 0.001128
142 0.001121
143 0.001117
144 0.001107
145 0.001101
146 0.001095
147 0.001099
148 0.001108
149 0.001119
150 0.001131
151 0.001136
152 0.001135
153 0.001131
154 0.001123
155 0.001121
156 0.001119
157 0.001124
158 0.001126
159 0.001137
160 0.001141
161 0.001145
162 0.001145
163 0.001146
164 0.001149
165 0.001145
166 0.001143
167 0.001137
168 0.001127
169 0.001116
170 0.001103
171 0.001086
172 0.001076
173 0.001070
174 0.001060
175 0.001039
176 0.001026
177 0.001015
178 0.001005
179 0.000993
180 0.000975
181 0.000963
182 0.000963
183 0.000964
184 0.000973
185 0.000983
186 0.000996
187 0.001003
188 0.001011
189 0.001009
190 0.001006
191 0.000997
192 0.000988
193 0.000975
194 0.000965
195 0.000955
196 0.000946
197 0.000937
198 0.000925
199 0.000920
200 0.000908
201 0.000898
202 0.000886
203 0.000880
204 0.000874
205 0.000870
206 0.000862
207 0.000850
208 0.000838
209 0.000832
210 0.000822
211 0.000808
212 0.000797
213 0.000793
214 0.000788
215 0.000785
216 0.000781
217 0.000782
218 0.000781
219 0.000781
220 0.000776
221 0.000768
222 0.000765
223 0.000767
224 0.000766
225 0.000768
226 0.000765
227 0.000765
228 0.000761
229 0.000756
230 0.000757
231 0.000751
232 0.000743
233 0.000735
234 0.000724
235 0.000712
236 0.000707
237 0.000698
238 0.000692
239 0.000688
240 0.000686
241 0.000681
242 0.000683
243 0.000695
244 0.000706
245 0.000716
246 0.000726
247 0.000724
248 0.000716
249 0.000716
250 0.000715
251 0.000708
252 0.000692
253 0.000687
254 0.000676
255 0.000659
256 0.000652
257 0.000647
258 0.000645
259 0.000643
260 0.000653
261 0.000653
262 0.000646
263 0.000636
264 0.000630
265 0.000629
266 0.000631
267 0.000624
268 0.000618
269 0.000610
270 0.000604
271 0.000599
272 0.000588
273 0.000587
274 0.000590
275 0.000583
276 0.000585
277 0.000587
278 0.000599
279 0.000610
280 0.000621
281 0.000631
282 0.000642
283 0.000648
284 0.000649
285 0.000652
286 0.000660
287 0.000664
288 0.000661
289 0.000657
290 0.000651
291 0.000644
292 0.000635
293 0.000622
294 0.000608
295 0.000593
296 0.000589
297 0.000590
298 0.000590
299 0.000590
300 0.000589
301 0.000592
302 0.000599
303 0.000602
304 0.000599
305 0.000596
306 0.000596
307 0.000592
308 0.000591
309 0.000595
310 0.000596
311 0.000598
312 0.000602
313 0.000604
314 0.000609
315 0.000607
316 0.000609
317 0.000610
318 0.000609
319 0.000612
320 0.000614
321 0.000608
322 0.000609
323 0.000606
324 0.000595
325 0.000588
326 0.000583
327 0.000581
328 0.000576
329 0.000573
330 0.000559
331 0.000544
332 0.000538
333 0.000539
334 0.000535
335 0.000537
336 0.000543
337 0.000555
338 0.000567
339 0.000576
340 0.000582
341 0.000584
342 0.000593
343 0.000596
344 0.000590
345 0.000580
346 0.000572
347 0.000566
348 0.000564
349 0.000560
350 0.000557
351 0.000541
352 0.000533
353 0.000520
354 0.000514
355 0.000508
356 0.000506
357 0.000498
358 0.000494
359 0.000481
360 0.000474
361 0.000466
362 0.000468
363 0.000470
364 0.000461
365 0.000455
366 0.000446
367 0.000441
368 0.000442
369 0.000444
370 0.000447
371 0.000447
372 0.000448
373 0.000453
374 0.000459
375 0.000453
376 0.000448
377 0.000450
378 0.000457
379 0.000461
380 0.000463
381 0.000455
382 0.000452
383 0.000452
384 0.000445
385 0.000433
386 0.000413
387 0.000396
388 0.000381
389 0.000369
390 0.000349
391 0.000340
392 0.000330
393 0.000329
394 0.000329
395 0.000340
396 0.000351
397 0.000364
398 0.000379
399 0.000394
400 0.000407
401 0.000422
402 0.000434
403 0.000441
404 0.000443
405 0.000443
406 0.000437
407 0.000429
408 0.000418
409 0.000415
410 0.000412
411 0.000414
412 0.000418
413 0.000425
414 0.000423
415 0.000426
416 0.000424
417 0.000418
418 0.000410
419 0.000404
420 0.000397
421 0.000383
422 0.000368
423 0.000359
424 0.000350
425 0.000342
426 0.000339
427 0.000334
428 0.000327
429 0.000323
430 0.000323
431 0.000329
432 0.000340
433 0.000350
434 0.000355
435 0.000361
436 0.000362
437 0.000363
438 0.000361
439 0.000362
440 0.000359
441 0.000360
442 0.000364
443 0.000361
444 0.000366
445 0.000363
446 0.000361
447 0.000354
448 0.000351
449 0.000343
450 0.000338
451 0.000334
452 0.000330
453 0.000329
454 0.000323
455 0.000322
456 0.000316
457 0.000305
458 0.000293
459 0.000287
460 0.000286
461 0.000285
462 0.000287
463 0.000282
464 0.000279
465 0.000276
466 0.000279
467 0.000280
468 0.000277
469 0.000279
470 0.000288
471 0.000295
472 0.000301
473 0.000296
474 0.000290
475 0.000288
476 0.000290
477 0.000289
478 0.000289
479 0.000287
480 0.000284
481 0.000277
482 0.000266
483 0.000262
484 0.000258
485 0.000260
486 0.000256
487 0.000260
488 0.000265
489 0.000269
490 0.000274
491 0.000274
492 0.000275
493 0.000278
494 0.000271
495 0.000264
496 0.000256
497 0.000249
498 0.000240
499 0.000242
500 0.000246
501 0.000247
502 0.000251
503 0.000253
504 0.000257
505 0.000254
506 0.000255
507 0.000254
508 0.000240
509 0.000227
510 0.000218
511 0.000216
512 0.000209
513 0.000203
514 0.000199
515 0.000194
516 0.000191
517 0.000189
518 0.000187
519 0.000188
520 0.000184
521 0.000182
522 0.000181
523 0.000179
524 0.000185
525 0.000189
526 0.000192
527 0.000195
528 0.000201
529 0.000206
530 0.000207
531 0.000205
532 0.000206
533 0.000206
534 0.000209
535 0.000216
536 0.000224
537 0.000228
538 0.000225
539 0.000226
540 0.000227
541 0.000225
542 0.000226
543 0.000221
544 0.000225
545 0.000221
546 0.000220
547 0.000224
548 0.000228
549 0.000225
550 0.000216
551 0.000206
552 0.000203
553 0.000196
554 0.000191
555 0.000185
556 0.000183
557 0.000179
558 0.000178
559 0.000181
560 0.000186
561 0.000186
562 0.000190
563 0.000201
564 0.000206
565 0.000218
566 0.000227
567 0.000236
568 0.000237
569 0.000245
570 0.000252
571 0.000257
572 0.000265
573 0.000272
574 0.000271
575 0.000271
576 0.000273
577 0.000274
578 0.000273
579 0.000273
580 0.000272
581 0.000267
582 0.000269
583 0.000273
584 0.000276
585 0.000275
586 0.000272
587 0.000268
588 0.000266
589 0.000256
590 0.000251
591 0.000244
592 0.000239
593 0.000234
594 0.000226
595 0.000215
596 0.000208
597 0.000194
598 0.000185
599 0.000182
600 0.000186
601 0.000191
602 0.000195
603 0.000203
604 0.000203
605 0.000203
606 0.000204
607 0.000203
608 0.000204
609 0.000206
610 0.000200
611 0.000193
612 0.000186
613 0.000175
614 0.000167
615 0.000161
616 0.000160
617 0.000156
618 0.000157
619 0.000151
620 0.000155
621 0.000161
622 0.000163
623 0.000163
624 0.000161
625 0.000157
626 0.000151
627 0.000146
628 0.000145
629 0.000149
630 0.000154
631 0.000158
632 0.000160
633 0.000160
634 0.000159
635 0.000158
636 0.000157
637 0.000151
638 0.000149
639 0.000151
640 0.000149
641 0.000146
642 0.000146
643 0.000144
644 0.000142
645 0.000140
646 0.000135
647 0.000131
648 0.000127
649 0.000131
650 0.000131
651 0.000134
652 0.000133
653 0.000129
654 0.000125
655 0.000125
656 0.000121
657 0.000119
658 0.000115
659 0.000113
660 0.000110
661 0.000109
662 0.000112
663 0.000117
664 0.000121
665 0.000126
666 0.000134
667 0.000134
668 0.000130
669 0.000127
670 0.000121
671 0.000115
672 0.000107
673 0.000098
674 0.000089
675 0.000083
676 0.000085
677 0.000090
678 0.000096
679 0.000099
680 0.000104
681 0.000104
682 0.000107
683 0.000109
684 0.000115
685 0.000127
686 0.000137
687 0.000145
688 0.000148
689 0.000146
690 0.000147
691 0.000152
692 0.000155
693 0.000158
694 0.000159
695 0.000161
696 0.000161
697 0.000161
698 0.000162
699 0.000160
700 0.000157
701 0.000155
702 0.000154
703 0.000155
704 0.000152
705 0.000147
706 0.000146
707 0.000143
708 0.000137
709 0.000128
710 0.000121
711 0.000115
712 0.000116
713 0.000119
714 0.000117
715 0.000118
716 0.000118
717 0.000116
718 0.000112
719 0.000106
720 0.000104
721 0.000108
722 0.000111
723 0.000118
724 0.000124
725 0.000124
726 0.000124
727 0.000121
728 0.000114
729 0.000116
730 0.000115
731 0.000112
732 0.000112
733 0.000114
734 0.000115
735 0.000114
736 0.000114
737 0.000112
738 0.000108
739 0.000104
740 0.000097
741 0.000096
742 0.000097
743 0.000101
744 0.000100
745 0.000096
746 0.000093
747 0.000086
748 0.000076
749 0.000069
750 0.000064
751 0.000065
752 0.000062
753 0.000062
754 0.000059
755 0.000052
756 0.000041
757 0.000034
758 0.000023
759 0.000017
760 0.000010
761 0.000002
762 -0.000007
763 -0.000013
764 -0.000020
765 -0.000026
766 -0.000033
767 -0.000038
768 -0.000038
769 -0.000036
770 -0.000032
771 -0.000031
772 -0.000027
773 -0.000027
774 -0.000026
775 -0.000025
776 -0.000026
777 -0.000027
778 -0.000025
779 -0.000024
780 -0.000021
781 -0.000018
782 -0.000015
783 -0.000015
784 -0.000016
785 -0.000012
786 -0.000014
787 -0.000016
788 -0.000018
789 -0.000022
790 -0.000023
791 -0.000031
792 -0.000037
793 -0.000044
794 -0.000050
795 -0.000056
796 -0.000063
797 -0.000069
798 -0.000071
799 -0.000074
800 -0.000076
801 -0.000081
802 -0.000083
803 -0.000088
804 -0.000091
805 -0.000093
806 -0.000095
807 -0.000094
808 -0.000096
809 -0.000095
