# i correlation
1 0.001793
2 0.001716
3 0.001640
4 0.001576
5 0.001527
6 0.001485
7 0.001446
8 0.001419
9 0.001395
10 0.001371
11 0.001343
12 0.001323
13 0.001309
14 0.001301
15 0.001291
16 0.001277
17 0.001265
18 0.001263
19 0.001260
20 0.001248
21 0.001236
22 0.001223
23 0.001212
24 0.001198
25 0.001185
26 0.001173
27 0.001159
28 0.001152
29 0.001152
30 0.001155
31 0.001157
32 0.001155
33 0.001142
34 0.001135
35 0.001124
36 0.001117
37 0.001123
38 0.001126
39 0.001125
40 0.001127
41 0.001127
42 0.001124
43 0.001130
44 0.001128
45 0.001125
46 0.001117
47 0.001105
48 0.001090
49 0.001076
50 0.001059
51 0.001051
52 0.001034
53 0.001017
54 0.001003
55 0.000999
56 0.001001
57 0.000995
58 0.000984
59 0.000982
60 0.000973
61 0.000969
62 0.000960
63 0.000953
64 0.000954
65 0.000950
66 0.000948
67 0.000950
68 0.000948
69 0.000947
70 0.000943
71 0.000939
72 0.000934
73 0.000927
74 0.000939
75 0.000948
76 0.000951
77 0.000952
78 0.000952
79 0.000950
80 0.000942
81 0.000938
82 0.000940
83 0.000944
84 0.000943
85 0.000935
86 0.000922
87 0.000912
88 0.000907
89 0.000917
90 0.000924
91 0.000937
92 0.000954
93 0.000966
94 0.000967
95 0.000959
96 0.000947
97 0.000937
98 0.000926
99 0.000914
100 0.000901
101 0.000891
102 0.000888
103 0.000884
104 0.000876
105 0.000878
106 0.000879
107 0.000886
108 0.000896
109 0.000897
110 0.000893
111 0.000887
112 0.000884
113 0.000880
114 0.000871
115 0.000863
116 0.000859
117 0.000849
118 0.000835
119 0.000821
120 0.000805
121 0.000795
122 0.000785
123 0.000790
124 0.000799
125 0.000816
126 0.000827
127 0.000838
128 0.000836
129 0.000838
130 0.000841
131 0.000847
132 0.000838
133 0.000833
134 0.000835
135 0.000840
136 0.000844
137 0.000841
138 0.000837
139 0.000837
140 0.000835
141 0.000829
142 0.000818
143 0.000802
144 0.000791
145 0.000782
146 0.000779
147 0.000772
148 0.000774
149 0.000774
150 0.000777
151 0.000775
152 0.000771
153 0.000774
154 0.000774
155 0.000773
156 0.000769
157 0.000761
158 0.000751
159 0.000740
160 0.000737
161 0.000734
162 0.000719
163 0.000703
164 0.000682
165 0.000663
166 0.000650
167 0.000649
168 0.000650
169 0.000649
170 0.000645
171 0.000645
172 0.000646
173 0.000645
174 0.000643
175 0.000638
176 0.000643
177 0.000639
178 0.000635
179 0.000625
180 0.000621
181 0.000615
182 0.000616
183 0.000620
184 0.000620
185 0.000620
186 0.000618
187 0.000619
188 0.000618
189 0.000606
190 0.000606
191 0.000609
192 0.000617
193 0.000619
194 0.000622
195 0.000620
196 0.000612
197 0.000601
198 0.000590
199 0.000574
200 0.000563
201 0.000558
202 0.000553
203 0.000546
204 0.000533
205 0.000531
206 0.000530
207 0.000524
208 0.000515
209 0.000499
210 0.000489
211 0.000482
212 0.000476
213 0.000470
214 0.000461
215 0.000460
216 0.000458
217 0.000462
218 0.000466
219 0.000475
220 0.000485
221 0.000494
222 0.000501
223 0.000506
224 0.000510
225 0.000516
226 0.000519
227 0.000527
228 0.000531
229 0.000530
230 0.000524
231 0.000517
232 0.000519
233 0.000518
234 0.000508
235 0.000507
236 0.000508
237 0.000508
238 0.000503
239 0.000501
240 0.000491
241 0.000481
242 0.000474
243 0.000473
244 0.000469
245 0.000474
246 0.000481
247 0.000487
248 0.000493
249 0.000491
250 0.000491
251 0.000497
252 0.000502
253 0.000493
254 0.000484
255 0.000476
256 0.000467
257 0.000464
258 0.000462
259 0.000461
260 0.000460
261 0.000464
262 0.000470
263 0.000467
264 0.000462
265 0.000460
266 0.000467
267 0.000473
268 0.000466
269 0.000468
270 0.000468
271 0.000469
272 0.000470
273 0.000467
274 0.000468
275 0.000467
276 0.000478
277 0.000486
278 0.000482
279 0.000481
280 0.000480
281 0.000476
282 0.000470
283 0.000465
284 0.000457
285 0.000457
286 0.000460
287 0.000465
288 0.000473
289 0.000477
290 0.000481
291 0.000481
292 0.000481
293 0.000479
294 0.000475
295 0.000479
296 0.000490
297 0.000498
298 0.000501
299 0.000507
300 0.000511
301 0.000515
302 0.000526
303 0.000536
304 0.000541
305 0.000533
306 0.000526
307 0.000521
308 0.000517
309 0.000518
310 0.000521
311 0.000518
312 0.000512
313 0.000508
314 0.000505
315 0.000501
316 0.000493
317 0.000490
318 0.000490
319 0.000490
320 0.000496
321 0.000506
322 0.000520
323 0.000529
324 0.000532
325 0.000534
326 0.000533
327 0.000529
328 0.000532
329 0.000532
330 0.000533
331 0.000528
332 0.000522
333 0.000519
334 0.000516
335 0.000509
336 0.000502
337 0.000496
338 0.000490
339 0.000486
340 0.000493
341 0.000501
342 0.000502
343 0.000500
344 0.000503
345 0.000506
346 0.000507
347 0.000510
348 0.000512
349 0.000509
350 0.000505
351 0.000499
352 0.000493
353 0.000488
354 0.000482
355 0.000480
356 0.000478
357 0.000474
358 0.000470
359 0.000473
360 0.000471
361 0.000467
362 0.000459
363 0.000457
364 0.000457
365 0.000452
366 0.000449
367 0.000449
368 0.000450
369 0.000453
370 0.000456
371 0.000459
372 0.000464
373 0.000463
374 0.000461
375 0.000452
376 0.000445
377 0.000448
378 0.000454
379 0.000464
380 0.000469
381 0.000469
382 0.000470
383 0.000467
384 0.000470
385 0.000470
386 0.000472
387 0.000476
388 0.000477
389 0.000480
390 0.000480
391 0.000486
392 0.000490
393 0.000489
394 0.000481
395 0.000467
396 0.000460
397 0.000451
398 0.000446
399 0.000434
400 0.000424
401 0.000416
402 0.000410
403 0.000408
404 0.000408
405 0.000410
406 0.000412
407 0.000417
408 0.000418
409 0.000413
410 0.000409
411 0.000403
412 0.000399
413 0.000401
414 0.000401
415 0.000414
416 0.000423
417 0.000433
418 0.000434
419 0.000436
420 0.000437
421 0.000436
422 0.000432
423 0.000434
424 0.000427
425 0.000414
426 0.000403
427 0.000400
428 0.000403
429 0.000406
430 0.000415
431 0.000422
432 0.000423
433 0.000425
434 0.000429
435 0.000434
436 0.000442
437 0.000446
438 0.000450
439 0.000450
440 0.000448
441 0.000440
442 0.000433
443 0.000424
444 0.000411
445 0.000395
446 0.000382
447 0.000374
448 0.000371
449 0.000369
450 0.000369
451 0.000364
452 0.000361
453 0.000362
454 0.000365
455 0.000366
456 0.000362
457 0.000355
458 0.000350
459 0.000343
460 0.000339
461 0.000332
462 0.000328
463 0.000332
464 0.000337
465 0.000338
466 0.000338
467 0.000330
468 0.000324
469 0.000317
470 0.000315
471 0.000313
472 0.000318
473 0.000320
474 0.000321
475 0.000328
476 0.000334
477 0.000341
478 0.000341
479 0.000342
480 0.000339
481 0.000338
482 0.000349
483 0.000357
484 0.000363
485 0.000364
486 0.000365
487 0.000364
488 0.000357
489 0.000351
490 0.000341
491 0.000334
492 0.000324
493 0.000315
494 0.000313
495 0.000318
496 0.000319
497 0.000323
498 0.000330
499 0.000330
500 0.000328
501 0.000327
502 0.000321
503 0.000319
504 0.000317
505 0.000310
506 0.000301
507 0.000296
508 0.000294
509 0.000296
510 0.000296
511 0.000295
512 0.000294
513 0.000291
514 0.000290
515 0.000289
516 0.000290
517 0.000287
518 0.000287
519 0.000285
520 0.000285
521 0.000286
522 0.000285
523 0.000287
524 0.000286
525 0.000287
526 0.000286
527 0.000283
528 0.000281
529 0.000283
530 0.000278
531 0.000273
532 0.000274
533 0.000273
534 0.000268
535 0.000262
536 0.000250
537 0.000241
538 0.000236
539 0.000237
540 0.000246
541 0.000257
542 0.000267
543 0.000278
544 0.000281
545 0.000283
546 0.000284
547 0.000295
548 0.000306
549 0.000314
550 0.000322
551 0.000325
552 0.000324
553 0.000320
554 0.000315
555 0.000312
556 0.000303
557 0.000297
558 0.000292
559 0.000286
560 0.000282
561 0.000280
562 0.000280
563 0.000277
564 0.000271
565 0.000270
566 0.000270
567 0.000270
568 0.000270
569 0.000276
570 0.000280
571 0.000284
572 0.000290
573 0.000296
574 0.000293
575 0.000290
576 0.000290
577 0.000286
578 0.000286
579 0.000287
580 0.000288
581 0.000286
582 0.000278
583 0.000268
584 0.000255
585 0.000245
586 0.000236
587 0.000229
588 0.000220
589 0.000219
590 0.000222
591 0.000234
592 0.000247
593 0.000253
594 0.000258
595 0.000259
596 0.000262
597 0.000259
598 0.000255
599 0.000253
600 0.000253
601 0.000256
602 0.000255
603 0.000255
604 0.000256
605 0.000255
606 0.000256
607 0.000259
608 0.000258
609 0.000260
610 0.000263
611 0.000268
612 0.000269
613 0.000273
614 0.000270
615 0.000264
616 0.000259
617 0.000255
618 0.000253
619 0.000253
620 0.000250
621 0.000249
622 0.000249
623 0.000250
624 0.000255
625 0.000261
626 0.000268
627 0.000264
628 0.000257
629 0.000245
630 0.000235
631 0.000229
632 0.000229
633 0.000231
634 0.000236
635 0.000239
636 0.000238
637 0.000240
638 0.000241
639 0.000248
640 0.000254
641 0.000253
642 0.000251
643 0.000254
644 0.000256
645 0.000256
646 0.000251
647 0.000250
648 0.000253
649 0.000254
650 0.000256
651 0.000258
652 0.000257
653 0.000259
654 0.000261
655 0.000263
656 0.000266
657 0.000267
658 0.000271
659 0.000268
660 0.000264
661 0.000251
662 0.000241
663 0.000236
664 0.000231
665 0.000228
666 0.000225
667 0.000220
668 0.000221
669 0.000222
670 0.000223
671 0.000227
672 0.000228
673 0.000226
674 0.000227
675 0.000226
676 0.000224
677 0.000224
678 0.000222
679 0.000222
680 0.000223
681 0.000227
682 0.000230
683 0.000233
684 0.000234
685 0.000237
686 0.000236
687 0.000238
688 0.000241
689 0.000250
690 0.000263
691 0.000268
692 0.000271
693 0.000274
694 0.000275
695 0.000277
696 0.000278
697 0.000275
698 0.000273
699 0.000274
700 0.000278
701 0.000283
702 0.000287
703 0.000293
704 0.000296
705 0.000300
706 0.000301
707 0.000296
708 0.000296
709 0.000297
710 0.000298
711 0.000296
712 0.000291
713 0.000281
714 0.000274
715 0.000268
716 0.000263
717 0.000263
718 0.000259
719 0.000257
720 0.000254
721 0.000248
722 0.000247
723 0.000242
724 0.000239
725 0.000235
726 0.000231
727 0.000230
728 0.000225
729 0.000215
730 0.000209
731 0.000209
732 0.000212
733 0.000217
734 0.000218
735 0.000214
736 0.000210
737 0.000206
738 0.000200
739 0.000197
740 0.000200
741 0.000203
742 0.000206
743 0.000208
744 0.000207
745 0.000204
746 0.000206
747 0.000203
748 0.000200
749 0.000201
750 0.000198
751 0.000193
752 0.000185
753 0.000174
754 0.000159
755 0.000146
756 0.000134
757 0.000124
758 0.000114
759 0.000102
760 0.000093
761 0.000086
762 0.000084
763 0.000086
764 0.000091
765 0.000101
766 0.000107
767 0.000109
768 0.000110
769 0.000106
770 0.000107
771 0.000107
772 0.000107
773 0.000107
774 0.000112
775 0.000112
776 0.000110
777 0.000109
778 0.000110
779 0.000116
780 0.000124
781 0.000129
782 0.000130
783 0.000133
784 0.000137
785 0.000137
786 0.000137
787 0.000142
788 0.000146
789 0.000152
790 0.000147
791 0.000139
792 0.000134
793 0.000129
794 0.000126
795 0.000126
796 0.000125
797 0.000128
798 0.000133
799 0.000138
800 0.000143
801 0.000148
802 0.000153
803 0.000154
804 0.000152
805 0.000148
806 0.000145
807 0.000139
808 0.000140
809 0.000137
