# i correlation
1 0.002049
2 0.001972
3 0.001905
4 0.001833
5 0.001781
6 0.001738
7 0.001705
8 0.001679
9 0.001650
10 0.001635
11 0.001617
12 0.001605
13 0.001594
14 0.001580
15 0.001569
16 0.001554
17 0.001536
18 0.001517
19 0.001491
20 0.001469
21 0.001448
22 0.001432
23 0.001421
24 0.001409
25 0.001401
26 0.001392
27 0.001382
28 0.001375
29 0.001363
30 0.001359
31 0.001356
32 0.001357
33 0.001361
34 0.001365
35 0.001370
36 0.001376
37 0.001379
38 0.001371
39 0.001356
40 0.001352
41 0.001344
42 0.001337
43 0.001334
44 0.001324
45 0.001311
46 0.001300
47 0.001299
48 0.001307
49 0.001308
50 0.001308
51 0.001311
52 0.001311
53 0.001309
54 0.001310
55 0.001315
56 0.001304
57 0.001298
58 0.001288
59 0.001287
60 0.001277
61 0.001267
62 0.001255
63 0.001230
64 0.001202
65 0.001192
66 0.001186
67 0.001183
68 0.001184
69 0.001185
70 0.001186
71 0.001180
72 0.001177
73 0.001181
74 0.001188
75 0.001192
76 0.001196
77 0.001198
78 0.001197
79 0.001191
80 0.001185
81 0.001180
82 0.001186
83 0.001201
84 0.001212
85 0.001223
86 0.001227
87 0.001226
88 0.001215
89 0.001211
90 0.001205
91 0.001198
92 0.001195
93 0.001189
94 0.001181
95 0.001174
96 0.001171
97 0.001170
98 0.001170
99 0.001170
100 0.001168
101 0.001168
102 0.001168
103 0.001163
104 0.001151
105 0.001136
106 0.001126
107 0.001115
108 0.001106
109 0.001112
110 0.001114
111 0.001111
112 0.001101
113 0.001088
114 0.001079
115 0.001061
116 0.001046
117 0.001032
118 0.001011
119 0.000997
120 0.000985
121 0.000981
122 0.000980
123 0.000971
124 0.000962
125 0.000950
126 0.000939
127 0.000937
128 0.000932
129 0.000929
130 0.000928
131 0.000932
132 0.000933
133 0.000938
134 0.000940
135 0.000946
136 0.000946
137 0.000945
138 0.000946
139 0.000954
140 0.000957
141 0.000959
142 0.000966
143 0.000969
144 0.000978
145 0.000984
146 0.000982
147 0.000985
148 0.000977
149 0.000974
150 0.000962
151 0.000955
152 0.000954
153 0.000948
154 0.000944
155 0.000946
156 0.000943
157 0.000945
158 0.000950
159 0.000962
160 0.000969
161 0.000973
162 0.000982
163 0.000988
164 0.000982
165 0.000971
166 0.000960
167 0.000957
168 0.000949
169 0.000946
170 0.000946
171 0.000947
172 0.000944
173 0.000940
174 0.000934
175 0.000934
176 0.000939
177 0.000936
178 0.000928
179 0.000924
180 0.000914
181 0.000900
182 0.000888
183 0.000888
184 0.000884
185 0.000882
186 0.000884
187 0.000878
188 0.000872
189 0.000866
190 0.000857
191 0.000854
192 0.000855
193 0.000856
194 0.000856
195 0.000856
196 0.000856
197 0.000846
198 0.000845
199 0.000844
200 0.000843
201 0.000839
202 0.000829
203 0.000819
204 0.000804
205 0.000791
206 0.000785
207 0.000781
208 0.000778
209 0.000779
210 0.000776
211 0.000777
212 0.000774
213 0.000769
214 0.000768
215 0.000759
216 0.000755
217 0.000758
218 0.000760
219 0.000766
220 0.000774
221 0.000784
222 0.000796
223 0.000807
224 0.000819
225 0.000822
226 0.000821
227 0.000823
228 0.000826
229 0.000823
230 0.000817
231 0.000814
232 0.000816
233 0.000809
234 0.000806
235 0.000804
236 0.000799
237 0.000801
238 0.000800
239 0.000793
240 0.000779
241 0.000773
242 0.000762
243 0.000763
244 0.000761
245 0.000774
246 0.000786
247 0.000786
248 0.000786
249 0.000784
250 0.000771
251 0.000759
252 0.000745
253 0.000739
254 0.000729
255 0.000721
256 0.000714
257 0.000700
258 0.000691
259 0.000685
260 0.000690
261 0.000699
262 0.000705
263 0.000708
264 0.000712
265 0.000709
266 0.000697
267 0.000688
268 0.000682
269 0.000681
270 0.000682
271 0.000687
272 0.000690
273 0.000690
274 0.000686
275 0.000682
276 0.000683
277 0.000685
278 0.000688
279 0.000693
280 0.000700
281 0.000700
282 0.000692
283 0.000685
284 0.000677
285 0.000674
286 0.000677
287 0.000682
288 0.000681
289 0.000678
290 0.000672
291 0.000662
292 0.000652
293 0.000643
294 0.000636
295 0.000634
296 0.000636
297 0.000636
298 0.000637
299 0.000629
300 0.000627
301 0.000622
302 0.000619
303 0.000616
304 0.000621
305 0.000623
306 0.000622
307 0.000626
308 0.000630
309 0.000624
310 0.000614
311 0.000607
312 0.000594
313 0.000582
314 0.000570
315 0.000566
316 0.000558
317 0.000549
318 0.000547
319 0.000546
320 0.000552
321 0.000563
322 0.000571
323 0.000582
324 0.000583
325 0.000579
326 0.000574
327 0.000565
328 0.000555
329 0.000555
330 0.000568
331 0.000586
332 0.000607
333 0.000627
334 0.000643
335 0.000654
336 0.000659
337 0.000661
338 0.000676
339 0.000683
340 0.000683
341 0.000691
342 0.000690
343 0.000685
344 0.000679
345 0.000671
346 0.000668
347 0.000671
348 0.000669
349 0.000662
350 0.000649
351 0.000635
352 0.000619
353 0.000600
354 0.000587
355 0.000587
356 0.000590
357 0.000582
358 0.000580
359 0.000583
360 0.000581
361 0.000576
362 0.000578
363 0.000581
364 0.000583
365 0.000585
366 0.000589
367 0.000594
368 0.000590
369 0.000594
370 0.000601
371 0.000595
372 0.000593
373 0.000590
374 0.000591
375 0.000594
376 0.000596
377 0.000599
378 0.000606
379 0.000616
380 0.000625
381 0.000634
382 0.000639
383 0.000639
384 0.000640
385 0.000635
386 0.000634
387 0.000635
388 0.000632
389 0.000631
390 0.000632
391 0.000636
392 0.000639
393 0.000644
394 0.000648
395 0.000644
396 0.000640
397 0.000637
398 0.000635
399 0.000627
400 0.000625
401 0.000619
402 0.000609
403 0.000599
404 0.000591
405 0.000585
406 0.000578
407 0.000577
408 0.000576
409 0.000572
410 0.000571
411 0.000566
412 0.000556
413 0.000546
414 0.000542
415 0.000536
416 0.000533
417 0.000540
418 0.000544
419 0.000551
420 0.000556
421 0.000557
422 0.000561
423 0.000566
424 0.000575
425 0.000578
426 0.000579
427 0.000575
428 0.000566
429 0.000561
430 0.000558
431 0.000554
432 0.000558
433 0.000562
434 0.000568
435 0.000569
436 0.000571
437 0.000564
438 0.000557
439 0.000558
440 0.000558
441 0.000562
442 0.000567
443 0.000568
444 0.000576
445 0.000577
446 0.000576
447 0.000575
448 0.000570
449 0.000564
450 0.000555
451 0.000545
452 0.000542
453 0.000534
454 0.000534
455 0.000531
456 0.000531
457 0.000531
458 0.000526
459 0.000524
460 0.000521
461 0.000509
462 0.000501
463 0.000495
464 0.000491
465 0.000489
466 0.000488
467 0.000493
468 0.000492
469 0.000496
470 0.000495
471 0.000488
472 0.000485
473 0.000479
474 0.000473
475 0.000464
476 0.000458
477 0.000460
478 0.000462
479 0.000461
480 0.000463
481 0.000467
482 0.000469
483 0.000475
484 0.000480
485 0.000480
486 0.000473
487 0.000469
488 0.000464
489 0.000460
490 0.000451
491 0.000440
492 0.000430
493 0.000425
494 0.000425
495 0.000426
496 0.000428
497 0.000426
498 0.000425
499 0.000425
500 0.000425
501 0.000424
502 0.000421
503 0.000417
504 0.000415
505 0.000410
506 0.000403
507 0.000399
508 0.000394
509 0.000398
510 0.000403
511 0.000409
512 0.000408
513 0.000407
514 0.000406
515 0.000407
516 0.000407
517 0.000410
518 0.000409
519 0.000409
520 0.000398
521 0.000392
522 0.000388
523 0.000379
524 0.000374
525 0.000371
526 0.000372
527 0.000371
528 0.000366
529 0.000367
530 0.000366
531 0.000365
532 0.000374
533 0.000386
534 0.000396
535 0.000401
536 0.000406
537 0.000402
538 0.000397
539 0.000397
540 0.000390
541 0.000387
542 0.000385
543 0.000384
544 0.000379
545 0.000375
546 0.000374
547 0.000372
548 0.000365
549 0.000361
550 0.000357
551 0.000356
552 0.000357
553 0.000361
554 0.000357
555 0.000354
556 0.000354
557 0.000352
558 0.000350
559 0.000346
560 0.000341
561 0.000337
562 0.000329
563 0.000323
564 0.000317
565 0.000313
566 0.000318
567 0.000322
568 0.000332
569 0.000347
570 0.000361
571 0.000371
572 0.000378
573 0.000376
574 0.000375
575 0.000366
576 0.000361
577 0.000352
578 0.000347
579 0.000349
580 0.000347
581 0.000344
582 0.000335
583 0.000333
584 0.000333
585 0.000328
586 0.000327
587 0.000332
588 0.000334
589 0.000339
590 0.000339
591 0.000344
592 0.000345
593 0.000348
594 0.000355
595 0.000359
596 0.000362
597 0.000367
598 0.000366
599 0.000361
600 0.000359
601 0.000358
602 0.000357
603 0.000358
604 0.000358
605 0.000360
606 0.000362
607 0.000365
608 0.000368
609 0.000370
610 0.000368
611 0.000369
612 0.000374
613 0.000372
614 0.000364
615 0.000357
616 0.000357
617 0.000349
618 0.000344
619 0.000349
620 0.000343
621 0.000342
622 0.000341
623 0.000336
624 0.000331
625 0.000325
626 0.000325
627 0.000324
628 0.000319
629 0.000318
630 0.000315
631 0.000312
632 0.000308
633 0.000303
634 0.000299
635 0.000295
636 0.000286
637 0.000281
638 0.000277
639 0.000274
640 0.000280
641 0.000276
642 0.000277
643 0.000279
644 0.000278
645 0.000281
646 0.000286
647 0.000282
648 0.000276
649 0.000273
650 0.000265
651 0.000257
652 0.000253
653 0.000253
654 0.000251
655 0.000248
656 0.000251
657 0.000249
658 0.000245
659 0.000236
660 0.000228
661 0.000221
662 0.000214
663 0.000214
664 0.000216
665 0.000217
666 0.000216
667 0.000218
668 0.000224
669 0.000226
670 0.000229
671 0.000230
672 0.000230
673 0.000231
674 0.000234
675 0.000238
676 0.000239
677 0.000242
678 0.000251
679 0.000257
680 0.000264
681 0.000272
682 0.000280
683 0.000289
684 0.000291
685 0.000290
686 0.000288
687 0.000278
688 0.000275
689 0.000270
690 0.000271
691 0.000267
692 0.000262
693 0.000258
694 0.000259
695 0.000259
696 0.000258
697 0.000257
698 0.000249
699 0.000237
700 0.000233
701 0.000225
702 0.000221
703 0.000217
704 0.000211
705 0.000209
706 0.000207
707 0.000201
708 0.000202
709 0.000202
710 0.000201
711 0.000202
712 0.000202
713 0.000200
714 0.000196
715 0.000198
716 0.000197
717 0.000192
718 0.000188
719 0.000182
720 0.000177
721 0.000172
722 0.000173
723 0.000176
724 0.000171
725 0.000171
726 0.000167
727 0.000163
728 0.000166
729 0.000164
730 0.000167
731 0.000170
732 0.000173
733 0.000173
734 0.000170
735 0.000164
736 0.000160
737 0.000150
738 0.000147
739 0.000147
740 0.000143
741 0.000142
742 0.000142
743 0.000140
744 0.000137
745 0.000137
746 0.000133
747 0.000128
748 0.000124
749 0.000120
750 0.000115
751 0.000110
752 0.000109
753 0.000106
754 0.000101
755 0.000097
756 0.000101
757 0.000106
758 0.000111
759 0.000116
760 0.000123
761 0.000127
762 0.000129
763 0.000131
764 0.000133
765 0.000138
766 0.000142
767 0.000149
768 0.000154
769 0.000155
770 0.000158
771 0.000157
772 0.000152
773 0.000150
774 0.000145
775 0.000147
776 0.000149
777 0.000152
778 0.000153
779 0.000159
780 0.000166
781 0.000162
782 0.000162
783 0.000157
784 0.000149
785 0.000144
786 0.000140
787 0.000131
788 0.000122
789 0.000120
790 0.000116
791 0.000108
792 0.000105
793 0.000102
794 0.000097
795 0.000093
796 0.000087
797 0.000081
798 0.000081
799 0.000079
800 0.000075
801 0.000071
802 0.000065
803 0.000060
804 0.000058
805 0.000057
806 0.000057
807 0.000062
808 0.000065
809 0.000061
