# i correlation
1 0.001757
2 0.001684
3 0.001622
4 0.001573
5 0.001526
6 0.001492
7 0.001468
8 0.001452
9 0.001441
10 0.001429
11 0.001412
12 0.001409
13 0.001407
14 0.001407
15 0.001387
16 0.001372
17 0.001363
18 0.001355
19 0.001346
20 0.001328
21 0.001326
22 0.001335
23 0.001338
24 0.001334
25 0.001331
26 0.001325
27 0.001313
28 0.001294
29 0.001270
30 0.001246
31 0.001234
32 0.001214
33 0.001203
34 0.001199
35 0.001196
36 0.001189
37 0.001191
38 0.001192
39 0.001192
40 0.001191
41 0.001188
42 0.001185
43 0.001178
44 0.001175
45 0.001176
46 0.001170
47 0.001175
48 0.001178
49 0.001181
50 0.001178
51 0.001175
52 0.001174
53 0.001165
54 0.001155
55 0.001155
56 0.001158
57 0.001158
58 0.001155
59 0.001153
60 0.001144
61 0.001140
62 0.001136
63 0.001136
64 0.001140
65 0.001145
66 0.001141
67 0.001125
68 0.001110
69 0.001106
70 0.001102
71 0.001102
72 0.001096
73 0.001091
74 0.001090
75 0.001081
76 0.001066
77 0.001052
78 0.001042
79 0.001031
80 0.001023
81 0.001014
82 0.001007
83 0.001002
84 0.000998
85 0.000990
86 0.000985
87 0.000987
88 0.000988
89 0.000990
90 0.000999
91 0.001004
92 0.001014
93 0.001026
94 0.001029
95 0.001024
96 0.001022
97 0.001023
98 0.001025
99 0.001036
100 0.001043
101 0.001041
102 0.001039
103 0.001040
104 0.001033
105 0.001025
106 0.001019
107 0.001007
108 0.000996
109 0.000978
110 0.000963
111 0.000956
112 0.000957
113 0.000963
114 0.000968
115 0.000975
116 0.000980
117 0.000986
118 0.000989
119 0.000982
120 0.000969
121 0.000962
122 0.000953
123 0.000938
124 0.000931
125 0.000937
126 0.000942
127 0.000945
128 0.000936
129 0.000936
130 0.000945
131 0.000959
132 0.000955
133 0.000947
134 0.000936
135 0.000925
136 0.000914
137 0.000901
138 0.000887
139 0.000883
140 0.000875
141 0.000874
142 0.000867
143 0.000867
144 0.000864
145 0.000863
146 0.000858
147 0.000860
148 0.000872
149 0.000878
150 0.000879
151 0.000881
152 0.000892
153 0.000903
154 0.000904
155 0.000911
156 0.000922
157 0.000932
158 0.000938
159 0.000939
160 0.000929
161 0.000923
162 0.000918
163 0.000910
164 0.000905
165 0.000903
166 0.000904
167 0.000896
168 0.000882
169 0.000866
170 0.000867
171 0.000867
172 0.000864
173 0.000858
174 0.000863
175 0.000866
176 0.000863
177 0.000861
178 0.000864
179 0.000864
180 0.000870
181 0.000880
182 0.000895
183 0.000903
184 0.000905
185 0.000894
186 0.000884
187 0.000873
188 0.000862
189 0.000858
190 0.000857
191 0.000851
192 0.000852
193 0.000855
194 0.000851
195 0.000850
196 0.000851
197 0.000855
198 0.000863
199 0.000863
200 0.000860
201 0.000863
202 0.000863
203 0.000862
204 0.000866
205 0.000871
206 0.000873
207 0.000874
208 0.000875
209 0.000870
210 0.000868
211 0.000863
212 0.000857
213 0.000849
214 0.000843
215 0.000835
216 0.000825
217 0.000820
218 0.000813
219 0.000816
220 0.000821
221 0.000827
222 0.000833
223 0.000844
224 0.000851
225 0.000844
226 0.000840
227 0.000837
228 0.000834
229 0.000837
230 0.000842
231 0.000849
232 0.000849
233 0.000846
234 0.000833
235 0.000817
236 0.000804
237 0.000795
238 0.000781
239 0.000770
240 0.000757
241 0.000748
242 0.000744
243 0.000740
244 0.000741
245 0.000749
246 0.000762
247 0.000767
248 0.000773
249 0.000777
250 0.000780
251 0.000779
252 0.000781
253 0.000779
254 0.000774
255 0.000770
256 0.000773
257 0.000777
258 0.000778
259 0.000778
260 0.000778
261 0.000771
262 0.000764
263 0.000761
264 0.000760
265 0.000755
266 0.000745
267 0.000740
268 0.000739
269 0.000738
270 0.000740
271 0.000745
272 0.000750
273 0.000754
274 0.000755
275 0.000747
276 0.000738
277 0.000735
278 0.000730
279 0.000727
280 0.000723
281 0.000715
282 0.000719
283 0.000724
284 0.000731
285 0.000737
286 0.000741
287 0.000733
288 0.000724
289 0.000708
290 0.000691
291 0.000680
292 0.000671
293 0.000663
294 0.000659
295 0.000665
296 0.000673
297 0.000681
298 0.000677
299 0.000664
300 0.000654
301 0.000654
302 0.000646
303 0.000637
304 0.000630
305 0.000630
306 0.000625
307 0.000627
308 0.000629
309 0.000639
310 0.000644
311 0.000647
312 0.000640
313 0.000637
314 0.000636
315 0.000632
316 0.000628
317 0.000626
318 0.000619
319 0.000623
320 0.000624
321 0.000621
322 0.000619
323 0.000620
324 0.000621
325 0.000618
326 0.000611
327 0.000601
328 0.000595
329 0.000588
330 0.000579
331 0.000568
332 0.000563
333 0.000556
334 0.000554
335 0.000554
336 0.000554
337 0.000556
338 0.000558
339 0.000556
340 0.000550
341 0.000544
342 0.000538
343 0.000533
344 0.000527
345 0.000525
346 0.000524
347 0.000517
348 0.000519
349 0.000519
350 0.000519
351 0.000516
352 0.000514
353 0.000511
354 0.000510
355 0.000505
356 0.000497
357 0.000495
358 0.000493
359 0.000489
360 0.000492
361 0.000486
362 0.000483
363 0.000480
364 0.000479
365 0.000477
366 0.000472
367 0.000472
368 0.000464
369 0.000458
370 0.000449
371 0.000444
372 0.000444
373 0.000443
374 0.000443
375 0.000440
376 0.000444
377 0.000451
378 0.000455
379 0.000462
380 0.000464
381 0.000464
382 0.000462
383 0.000459
384 0.000456
385 0.000459
386 0.000462
387 0.000460
388 0.000463
389 0.000467
390 0.000477
391 0.000487
392 0.000482
393 0.000471
394 0.000464
395 0.000452
396 0.000444
397 0.000432
398 0.000425
399 0.000414
400 0.000411
401 0.000407
402 0.000408
403 0.000413
404 0.000424
405 0.000432
406 0.000431
407 0.000430
408 0.000429
409 0.000432
410 0.000431
411 0.000428
412 0.000433
413 0.000438
414 0.000444
415 0.000446
416 0.000452
417 0.000453
418 0.000456
419 0.000461
420 0.000460
421 0.000459
422 0.000460
423 0.000456
424 0.000444
425 0.000434
426 0.000429
427 0.000429
428 0.000436
429 0.000445
430 0.000450
431 0.000453
432 0.000459
433 0.000462
434 0.000461
435 0.000464
436 0.000464
437 0.000463
438 0.000466
439 0.000466
440 0.000463
441 0.000461
442 0.000460
443 0.000468
444 0.000473
445 0.000481
446 0.000485
447 0.000483
448 0.000478
449 0.000471
450 0.000465
451 0.000460
452 0.000459
453 0.000460
454 0.000464
455 0.000474
456 0.000480
457 0.000485
458 0.000482
459 0.000478
460 0.000479
461 0.000480
462 0.000477
463 0.000473
464 0.000462
465 0.000450
466 0.000444
467 0.000447
468 0.000448
469 0.000447
470 0.000446
471 0.000444
472 0.000444
473 0.000441
474 0.000440
475 0.000441
476 0.000447
477 0.000456
478 0.000467
479 0.000478
480 0.000488
481 0.000495
482 0.000497
483 0.000497
484 0.000502
485 0.000505
486 0.000503
487 0.000502
488 0.000494
489 0.000485
490 0.000485
491 0.000491
492 0.000493
493 0.000492
494 0.000498
495 0.000502
496 0.000505
497 0.000503
498 0.000501
499 0.000502
500 0.000496
501 0.000490
502 0.000492
503 0.000496
504 0.000503
505 0.000511
506 0.000515
507 0.000517
508 0.000518
509 0.000523
510 0.000526
511 0.000524
512 0.000526
513 0.000524
514 0.000516
515 0.000505
516 0.000495
517 0.000490
518 0.000488
519 0.000491
520 0.000491
521 0.000497
522 0.000501
523 0.000497
524 0.000486
525 0.000480
526 0.000474
527 0.000472
528 0.000470
529 0.000467
530 0.000462
531 0.000460
532 0.000454
533 0.000451
534 0.000450
535 0.000449
536 0.000450
537 0.000452
538 0.000451
539 0.000453
540 0.000454
541 0.000454
542 0.000453
543 0.000453
544 0.000451
545 0.000446
546 0.000439
547 0.000437
548 0.000437
549 0.000436
550 0.000435
551 0.000433
552 0.000428
553 0.000424
554 0.000419
555 0.000415
556 0.000413
557 0.000409
558 0.000402
559 0.000396
560 0.000396
561 0.000398
562 0.000399
563 0.000395
564 0.000392
565 0.000391
566 0.000382
567 0.000370
568 0.000364
569 0.000363
570 0.000365
571 0.000366
572 0.000364
573 0.000359
574 0.000358
575 0.000363
576 0.000363
577 0.000365
578 0.000373
579 0.000376
580 0.000374
581 0.000372
582 0.000374
583 0.000373
584 0.000371
585 0.000368
586 0.000365
587 0.000363
588 0.000357
589 0.000350
590 0.000341
591 0.000341
592 0.000341
593 0.000343
594 0.000352
595 0.000358
596 0.000365
597 0.000368
598 0.000369
599 0.000366
600 0.000362
601 0.000356
602 0.000354
603 0.000349
604 0.000350
605 0.000355
606 0.000357
607 0.000352
608 0.000348
609 0.000345
610 0.000346
611 0.000344
612 0.000345
613 0.000347
614 0.000345
615 0.000342
616 0.000341
617 0.000343
618 0.000342
619 0.000344
620 0.000348
621 0.000349
622 0.000351
623 0.000348
624 0.000343
625 0.000336
626 0.000327
627 0.000324
628 0.000317
629 0.000311
630 0.000304
631 0.000298
632 0.000289
633 0.000284
634 0.000283
635 0.000287
636 0.000291
637 0.000294
638 0.000298
639 0.000305
640 0.000307
641 0.000305
642 0.000302
643 0.000305
644 0.000305
645 0.000301
646 0.000295
647 0.000285
648 0.000276
649 0.000269
650 0.000263
651 0.000255
652 0.000252
653 0.000255
654 0.000257
655 0.000257
656 0.000256
657 0.000257
658 0.000256
659 0.000254
660 0.000252
661 0.000252
662 0.000260
663 0.000262
664 0.000265
665 0.000269
666 0.000267
667 0.000263
668 0.000259
669 0.000261
670 0.000258
671 0.000255
672 0.000250
673 0.000242
674 0.000239
675 0.000237
676 0.000241
677 0.000247
678 0.000255
679 0.000261
680 0.000261
681 0.000260
682 0.000259
683 0.000258
684 0.000258
685 0.000259
686 0.000261
687 0.000262
688 0.000268
689 0.000269
690 0.000268
691 0.000270
692 0.000273
693 0.000273
694 0.000269
695 0.000268
696 0.000271
697 0.000273
698 0.000271
699 0.000270
700 0.000268
701 0.000271
702 0.000269
703 0.000267
704 0.000268
705 0.000270
706 0.000268
707 0.000266
708 0.000265
709 0.000268
710 0.000271
711 0.000274
712 0.000273
713 0.000272
714 0.000274
715 0.000273
716 0.000268
717 0.000261
718 0.000258
719 0.000255
720 0.000250
721 0.000242
722 0.000235
723 0.000235
724 0.000234
725 0.000233
726 0.000235
727 0.000238
728 0.000244
729 0.000242
730 0.000241
731 0.000239
732 0.000239
733 0.000237
734 0.000232
735 0.000230
736 0.000230
737 0.000229
738 0.000227
739 0.000224
740 0.000222
741 0.000221
742 0.000223
743 0.000221
744 0.000218
745 0.000209
746 0.000203
747 0.000194
748 0.000185
749 0.000185
750 0.000183
751 0.000181
752 0.000181
753 0.000184
754 0.000185
755 0.000183
756 0.000184
757 0.000183
758 0.000185
759 0.000184
760 0.000181
761 0.000177
762 0.000173
763 0.000174
764 0.000169
765 0.000162
766 0.000158
767 0.000152
768 0.000148
769 0.000146
770 0.000148
771 0.000150
772 0.000152
773 0.000148
774 0.000142
775 0.000142
776 0.000144
777 0.000145
778 0.000147
779 0.000145
780 0.000146
781 0.000145
782 0.000141
783 0.000138
784 0.000135
785 0.000133
786 0.000129
787 0.000124
788 0.000121
789 0.000119
790 0.000114
791 0.000113
792 0.000111
793 0.000109
794 0.000111
795 0.000112
796 0.000112
797 0.000111
798 0.000110
799 0.000107
800 0.000104
801 0.000106
802 0.000107
803 0.000107
804 0.000108
805 0.000109
806 0.000108
807 0.000108
808 0.000107
809 0.000105
