# i correlation
1 0.001870
2 0.001787
3 0.001715
4 0.001659
5 0.001614
6 0.001580
7 0.001549
8 0.001515
9 0.001481
10 0.001454
11 0.001426
12 0.001403
13 0.001381
14 0.001354
15 0.001323
16 0.001307
17 0.001290
18 0.001286
19 0.001284
20 0.001284
21 0.001275
22 0.001265
23 0.001258
24 0.001255
25 0.001265
26 0.001268
27 0.001277
28 0.001279
29 0.001277
30 0.001275
31 0.001274
32 0.001281
33 0.001280
34 0.001274
35 0.001267
36 0.001273
37 0.001281
38 0.001281
39 0.001276
40 0.001270
41 0.001262
42 0.001248
43 0.001232
44 0.001223
45 0.001209
46 0.001200
47 0.001196
48 0.001197
49 0.001188
50 0.001169
51 0.001145
52 0.001115
53 0.001089
54 0.001069
55 0.001049
56 0.001042
57 0.001038
58 0.001040
59 0.001028
60 0.001020
61 0.001012
62 0.001008
63 0.001000
64 0.000998
65 0.001004
66 0.001005
67 0.001010
68 0.001019
69 0.001019
70 0.001020
71 0.001025
72 0.001023
73 0.001028
74 0.001032
75 0.001037
76 0.001036
77 0.001029
78 0.001025
79 0.001016
80 0.001008
81 0.001000
82 0.000994
83 0.000989
84 0.000979
85 0.000975
86 0.000977
87 0.000978
88 0.000976
89 0.000959
90 0.000936
91 0.000910
92 0.000891
93 0.000872
94 0.000860
95 0.000860
96 0.000862
97 0.000864
98 0.000870
99 0.000876
100 0.000883
101 0.000887
102 0.000881
103 0.000872
104 0.000859
105 0.000855
106 0.000859
107 0.000863
108 0.000867
109 0.000859
110 0.000846
111 0.000827
112 0.000817
113 0.000812
114 0.000804
115 0.000794
116 0.000778
117 0.000763
118 0.000751
119 0.000748
120 0.000750
121 0.000750
122 0.000756
123 0.000755
124 0.000755
125 0.000749
126 0.000753
127 0.000753
128 0.000760
129 0.000762
130 0.000767
131 0.000774
132 0.000778
133 0.000785
134 0.000789
135 0.000792
136 0.000796
137 0.000789
138 0.000787
139 0.000777
140 0.000764
141 0.000763
142 0.000761
143 0.000753
144 0.000745
145 0.000742
146 0.000749
147 0.000751
148 0.000744
149 0.000742
150 0.000735
151 0.000724
152 0.000708
153 0.000704
154 0.000701
155 0.000690
156 0.000687
157 0.000681
158 0.000666
159 0.000659
160 0.000653
161 0.000651
162 0.000654
163 0.000658
164 0.000666
165 0.000665
166 0.000674
167 0.000681
168 0.000693
169 0.000705
170 0.000717
171 0.000719
172 0.000723
173 0.000734
174 0.000742
175 0.000758
176 0.000762
177 0.000762
178 0.000756
179 0.000751
180 0.000749
181 0.000740
182 0.000735
183 0.000731
184 0.000723
185 0.000709
186 0.000704
187 0.000698
188 0.000692
189 0.000691
190 0.000683
191 0.000666
192 0.000649
193 0.000633
194 0.000611
195 0.000592
196 0.000573
197 0.000557
198 0.000546
199 0.000534
200 0.000526
201 0.000513
202 0.000501
203 0.000495
204 0.000493
205 0.000490
206 0.000489
207 0.000491
208 0.000499
209 0.000504
210 0.000510
211 0.000515
212 0.000520
213 0.000516
214 0.000516
215 0.000515
216 0.000518
217 0.000517
218 0.000523
219 0.000521
220 0.000519
221 0.000517
222 0.000509
223 0.000499
224 0.000497
225 0.000492
226 0.000484
227 0.000475
228 0.000469
229 0.000460
230 0.000448
231 0.000436
232 0.000422
233 0.000406
234 0.000394
235 0.000383
236 0.000376
237 0.000377
238 0.000372
239 0.000367
240 0.000368
241 0.000369
242 0.000365
243 0.000370
244 0.000368
245 0.000366
246 0.000369
247 0.000374
248 0.000388
249 0.000401
250 0.000410
251 0.000409
252 0.000408
253 0.000411
254 0.000415
255 0.000420
256 0.000426
257 0.000424
258 0.000420
259 0.000420
260 0.000422
261 0.000420
262 0.000419
263 0.000421
264 0.000416
265 0.000412
266 0.000408
267 0.000406
268 0.000405
269 0.000409
270 0.000407
271 0.000396
272 0.000393
273 0.000386
274 0.000386
275 0.000382
276 0.000387
277 0.000389
278 0.000392
279 0.000396
280 0.000397
281 0.000394
282 0.000386
283 0.000379
284 0.000370
285 0.000360
286 0.000351
287 0.000346
288 0.000347
289 0.000343
290 0.000345
291 0.000352
292 0.000359
293 0.000363
294 0.000365
295 0.000369
296 0.000369
297 0.000376
298 0.000377
299 0.000385
300 0.000388
301 0.000394
302 0.000399
303 0.000408
304 0.000417
305 0.000422
306 0.000425
307 0.000428
308 0.000433
309 0.000427
310 0.000425
311 0.000434
312 0.000437
313 0.000444
314 0.000443
315 0.000437
316 0.000439
317 0.000441
318 0.000443
319 0.000442
320 0.000440
321 0.000443
322 0.000441
323 0.000441
324 0.000447
325 0.000450
326 0.000448
327 0.000449
328 0.000448
329 0.000447
330 0.000445
331 0.000447
332 0.000453
333 0.000453
334 0.000454
335 0.000454
336 0.000459
337 0.000461
338 0.000466
339 0.000472
340 0.000472
341 0.000468
342 0.000461
343 0.000460
344 0.000461
345 0.000455
346 0.000453
347 0.000448
348 0.000445
349 0.000448
350 0.000452
351 0.000460
352 0.000465
353 0.000471
354 0.000476
355 0.000480
356 0.000490
357 0.000510
358 0.000516
359 0.000519
360 0.000517
361 0.000517
362 0.000521
363 0.000528
364 0.000533
365 0.000534
366 0.000530
367 0.000524
368 0.000512
369 0.000503
370 0.000501
371 0.000500
372 0.000505
373 0.000506
374 0.000499
375 0.000498
376 0.000498
377 0.000500
378 0.000500
379 0.000498
380 0.000498
381 0.000491
382 0.000491
383 0.000484
384 0.000479
385 0.000473
386 0.000470
387 0.000471
388 0.000466
389 0.000459
390 0.000452
391 0.000440
392 0.000434
393 0.000430
394 0.000430
395 0.000430
396 0.000430
397 0.000433
398 0.000438
399 0.000440
400 0.000445
401 0.000451
402 0.000457
403 0.000458
404 0.000461
405 0.000467
406 0.000468
407 0.000464
408 0.000454
409 0.000450
410 0.000446
411 0.000447
412 0.000445
413 0.000442
414 0.000441
415 0.000440
416 0.000432
417 0.000422
418 0.000411
419 0.000401
420 0.000384
421 0.000371
422 0.000362
423 0.000360
424 0.000365
425 0.000366
426 0.000366
427 0.000371
428 0.000373
429 0.000388
430 0.000395
431 0.000403
432 0.000410
433 0.000414
434 0.000420
435 0.000424
436 0.000433
437 0.000442
438 0.000458
439 0.000469
440 0.000477
441 0.000478
442 0.000480
443 0.000480
444 0.000478
445 0.000480
446 0.000474
447 0.000469
448 0.000459
449 0.000456
450 0.000445
451 0.000436
452 0.000430
453 0.000422
454 0.000421
455 0.000421
456 0.000415
457 0.000403
458 0.000396
459 0.000390
460 0.000384
461 0.000388
462 0.000382
463 0.000377
464 0.000368
465 0.000366
466 0.000364
467 0.000365
468 0.000366
469 0.000369
470 0.000378
471 0.000387
472 0.000405
473 0.000419
474 0.000437
475 0.000448
476 0.000456
477 0.000465
478 0.000465
479 0.000466
480 0.000473
481 0.000479
482 0.000481
483 0.000482
484 0.000479
485 0.000476
486 0.000477
487 0.000482
488 0.000483
489 0.000476
490 0.000471
491 0.000462
492 0.000457
493 0.000447
494 0.000438
495 0.000424
496 0.000411
497 0.000400
498 0.000397
499 0.000387
500 0.000384
501 0.000380
502 0.000383
503 0.000384
504 0.000388
505 0.000383
506 0.000383
507 0.000383
508 0.000385
509 0.000380
510 0.000384
511 0.000394
512 0.000402
513 0.000408
514 0.000411
515 0.000408
516 0.000406
517 0.000402
518 0.000396
519 0.000397
520 0.000401
521 0.000400
522 0.000401
523 0.000399
524 0.000402
525 0.000399
526 0.000403
527 0.000403
528 0.000403
529 0.000405
530 0.000397
531 0.000387
532 0.000377
533 0.000360
534 0.000342
535 0.000324
536 0.000317
537 0.000313
538 0.000306
539 0.000305
540 0.000305
541 0.000301
542 0.000295
543 0.000294
544 0.000292
545 0.000285
546 0.000280
547 0.000284
548 0.000294
549 0.000298
550 0.000305
551 0.000309
552 0.000311
553 0.000310
554 0.000305
555 0.000298
556 0.000295
557 0.000293
558 0.000286
559 0.000275
560 0.000275
561 0.000277
562 0.000284
563 0.000286
564 0.000286
565 0.000283
566 0.000272
567 0.000264
568 0.000264
569 0.000260
570 0.000255
571 0.000246
572 0.000235
573 0.000229
574 0.000224
575 0.000225
576 0.000220
577 0.000214
578 0.000205
579 0.000195
580 0.000196
581 0.000196
582 0.000191
583 0.000181
584 0.000175
585 0.000169
586 0.000161
587 0.000158
588 0.000157
589 0.000158
590 0.000155
591 0.000151
592 0.000141
593 0.000136
594 0.000137
595 0.000130
596 0.000120
597 0.000114
598 0.000114
599 0.000109
600 0.000103
601 0.000098
602 0.000093
603 0.000082
604 0.000080
605 0.000082
606 0.000087
607 0.000095
608 0.000101
609 0.000101
610 0.000100
611 0.000102
612 0.000107
613 0.000114
614 0.000120
615 0.000127
616 0.000134
617 0.000138
618 0.000147
619 0.000151
620 0.000148
621 0.000147
622 0.000144
623 0.000139
624 0.000139
625 0.000146
626 0.000160
627 0.000172
628 0.000178
629 0.000175
630 0.000170
631 0.000164
632 0.000161
633 0.000153
634 0.000142
635 0.000135
636 0.000132
637 0.000125
638 0.000126
639 0.000123
640 0.000122
641 0.000112
642 0.000103
643 0.000102
644 0.000101
645 0.000105
646 0.000107
647 0.000104
648 0.000106
649 0.000111
650 0.000118
651 0.000130
652 0.000143
653 0.000151
654 0.000158
655 0.000166
656 0.000172
657 0.000180
658 0.000186
659 0.000195
660 0.000200
661 0.000195
662 0.000189
663 0.000180
664 0.000175
665 0.000176
666 0.000174
667 0.000169
668 0.000163
669 0.000154
670 0.000151
671 0.000142
672 0.000134
673 0.000130
674 0.000123
675 0.000121
676 0.000124
677 0.000124
678 0.000121
679 0.000117
680 0.000111
681 0.000109
682 0.000108
683 0.000105
684 0.000104
685 0.000100
686 0.000102
687 0.000102
688 0.000103
689 0.000100
690 0.000103
691 0.000099
692 0.000097
693 0.000102
694 0.000109
695 0.000112
696 0.000111
697 0.000109
698 0.000109
699 0.000110
700 0.000107
701 0.000108
702 0.000109
703 0.000107
704 0.000111
705 0.000108
706 0.000109
707 0.000104
708 0.000098
709 0.000087
710 0.000079
711 0.000071
712 0.000060
713 0.000052
714 0.000054
715 0.000053
716 0.000055
717 0.000054
718 0.000055
719 0.000048
720 0.000046
721 0.000044
722 0.000043
723 0.000040
724 0.000040
725 0.000035
726 0.000035
727 0.000037
728 0.000035
729 0.000030
730 0.000029
731 0.000026
732 0.000022
733 0.000021
734 0.000020
735 0.000020
736 0.000022
737 0.000026
738 0.000027
739 0.000028
740 0.000030
741 0.000035
742 0.000031
743 0.000026
744 0.000023
745 0.000014
746 0.000006
747 0.000002
748 0.000003
749 -0.000001
750 -0.000007
751 -0.000007
752 -0.000008
753 -0.000007
754 -0.000006
755 -0.000005
756 -0.000009
757 -0.000010
758 -0.000007
759 -0.000009
760 -0.000007
761 -0.000008
762 -0.000008
763 -0.000010
764 -0.000008
765 -0.000013
766 -0.000016
767 -0.000018
768 -0.000017
769 -0.000021
770 -0.000029
771 -0.000040
772 -0.000046
773 -0.000052
774 -0.000049
775 -0.000053
776 -0.000059
777 -0.000067
778 -0.000072
779 -0.000076
780 -0.000079
781 -0.000075
782 -0.000066
783 -0.000068
784 -0.000072
785 -0.000077
786 -0.000079
787 -0.000078
788 -0.000075
789 -0.000071
790 -0.000068
791 -0.000064
792 -0.000063
793 -0.000064
794 -0.000064
795 -0.000061
796 -0.000059
797 -0.000061
798 -0.000065
799 -0.000066
800 -0.000066
801 -0.000061
802 -0.000057
803 -0.000055
804 -0.000053
805 -0.000051
806 -0.000044
807 -0.000040
808 -0.000037
809 -0.000036
