# i correlation
1 0.001863
2 0.001788
3 0.001732
4 0.001677
5 0.001636
6 0.001594
7 0.001556
8 0.001534
9 0.001515
10 0.001501
11 0.001486
12 0.001463
13 0.001450
14 0.001438
15 0.001424
16 0.001414
17 0.001401
18 0.001376
19 0.001357
20 0.001345
21 0.001323
22 0.001305
23 0.001290
24 0.001283
25 0.001274
26 0.001269
27 0.001264
28 0.001269
29 0.001272
30 0.001276
31 0.001276
32 0.001278
33 0.001276
34 0.001275
35 0.001279
36 0.001277
37 0.001276
38 0.001268
39 0.001269
40 0.001267
41 0.001271
42 0.001276
43 0.001272
44 0.001265
45 0.001265
46 0.001255
47 0.001247
48 0.001238
49 0.001225
50 0.001216
51 0.001210
52 0.001200
53 0.001194
54 0.001184
55 0.001173
56 0.001174
57 0.001167
58 0.001161
59 0.001159
60 0.001155
61 0.001154
62 0.001155
63 0.001152
64 0.001143
65 0.001137
66 0.001134
67 0.001124
68 0.001108
69 0.001097
70 0.001086
71 0.001073
72 0.001063
73 0.001055
74 0.001052
75 0.001052
76 0.001054
77 0.001058
78 0.001053
79 0.001057
80 0.001053
81 0.001044
82 0.001038
83 0.001030
84 0.001031
85 0.001027
86 0.001030
87 0.001026
88 0.001028
89 0.001034
90 0.001034
91 0.001027
92 0.001025
93 0.001022
94 0.001025
95 0.001025
96 0.001019
97 0.001009
98 0.000998
99 0.000999
100 0.001002
101 0.001001
102 0.000990
103 0.000971
104 0.000953
105 0.000949
106 0.000942
107 0.000940
108 0.000929
109 0.000922
110 0.000923
111 0.000918
112 0.000915
113 0.000912
114 0.000900
115 0.000889
116 0.000880
117 0.000877
118 0.000878
119 0.000878
120 0.000877
121 0.000878
122 0.000884
123 0.000886
124 0.000888
125 0.000895
126 0.000897
127 0.000904
128 0.000904
129 0.000910
130 0.000915
131 0.000928
132 0.000932
133 0.000934
134 0.000930
135 0.000934
136 0.000945
137 0.000947
138 0.000944
139 0.000938
140 0.000930
141 0.000928
142 0.000924
143 0.000917
144 0.000913
145 0.000911
146 0.000909
147 0.000902
148 0.000892
149 0.000888
150 0.000881
151 0.000880
152 0.000885
153 0.000890
154 0.000887
155 0.000890
156 0.000893
157 0.000887
158 0.000887
159 0.000877
160 0.000865
161 0.000855
162 0.000842
163 0.000836
164 0.000829
165 0.000822
166 0.000824
167 0.000827
168 0.000829
169 0.000827
170 0.000814
171 0.000810
172 0.000810
173 0.000813
174 0.000815
175 0.000823
176 0.000833
177 0.000831
178 0.000833
179 0.000831
180 0.000826
181 0.000828
182 0.000821
183 0.000812
184 0.000804
185 0.000799
186 0.000801
187 0.000795
188 0.000791
189 0.000796
190 0.000802
191 0.000810
192 0.000818
193 0.000817
194 0.000817
195 0.000823
196 0.000822
197 0.000821
198 0.000819
199 0.000818
200 0.000807
201 0.000790
202 0.000776
203 0.000761
204 0.000743
205 0.000730
206 0.000723
207 0.000715
208 0.000710
209 0.000710
210 0.000717
211 0.000724
212 0.000732
213 0.000723
214 0.000714
215 0.000709
216 0.000694
217 0.000680
218 0.000672
219 0.000668
220 0.000673
221 0.000677
222 0.000673
223 0.000667
224 0.000663
225 0.000661
226 0.000660
227 0.000659
228 0.000656
229 0.000654
230 0.000661
231 0.000669
232 0.000682
233 0.000682
234 0.000682
235 0.000685
236 0.000681
237 0.000688
238 0.000691
239 0.000687
240 0.000689
241 0.000697
242 0.000713
243 0.000715
244 0.000713
245 0.000714
246 0.000714
247 0.000707
248 0.000697
249 0.000684
250 0.000668
251 0.000665
252 0.000658
253 0.000651
254 0.000637
255 0.000632
256 0.000621
257 0.000614
258 0.000612
259 0.000609
260 0.000607
261 0.000604
262 0.000606
263 0.000611
264 0.000602
265 0.000599
266 0.000600
267 0.000598
268 0.000603
269 0.000607
270 0.000604
271 0.000607
272 0.000613
273 0.000606
274 0.000609
275 0.000610
276 0.000609
277 0.000618
278 0.000625
279 0.000634
280 0.000643
281 0.000651
282 0.000660
283 0.000668
284 0.000674
285 0.000678
286 0.000682
287 0.000682
288 0.000685
289 0.000688
290 0.000682
291 0.000677
292 0.000673
293 0.000659
294 0.000650
295 0.000639
296 0.000626
297 0.000615
298 0.000610
299 0.000604
300 0.000602
301 0.000588
302 0.000572
303 0.000564
304 0.000561
305 0.000554
306 0.000545
307 0.000546
308 0.000543
309 0.000540
310 0.000534
311 0.000529
312 0.000526
313 0.000512
314 0.000502
315 0.000495
316 0.000486
317 0.000475
318 0.000473
319 0.000478
320 0.000486
321 0.000496
322 0.000509
323 0.000513
324 0.000519
325 0.000523
326 0.000524
327 0.000528
328 0.000530
329 0.000528
330 0.000528
331 0.000536
332 0.000548
333 0.000556
334 0.000562
335 0.000571
336 0.000570
337 0.000569
338 0.000564
339 0.000565
340 0.000567
341 0.000568
342 0.000573
343 0.000578
344 0.000581
345 0.000585
346 0.000585
347 0.000591
348 0.000595
349 0.000594
350 0.000586
351 0.000576
352 0.000571
353 0.000564
354 0.000562
355 0.000562
356 0.000561
357 0.000562
358 0.000559
359 0.000554
360 0.000549
361 0.000538
362 0.000526
363 0.000519
364 0.000516
365 0.000517
366 0.000514
367 0.000510
368 0.000511
369 0.000504
370 0.000502
371 0.000502
372 0.000501
373 0.000511
374 0.000517
375 0.000519
376 0.000524
377 0.000520
378 0.000522
379 0.000522
380 0.000514
381 0.000509
382 0.000507
383 0.000498
384 0.000501
385 0.000501
386 0.000499
387 0.000505
388 0.000517
389 0.000528
390 0.000540
391 0.000542
392 0.000540
393 0.000539
394 0.000535
395 0.000530
396 0.000523
397 0.000518
398 0.000516
399 0.000513
400 0.000511
401 0.000509
402 0.000505
403 0.000501
404 0.000503
405 0.000512
406 0.000523
407 0.000532
408 0.000538
409 0.000539
410 0.000539
411 0.000539
412 0.000530
413 0.000523
414 0.000519
415 0.000514
416 0.000511
417 0.000511
418 0.000507
419 0.000507
420 0.000508
421 0.000515
422 0.000521
423 0.000525
424 0.000529
425 0.000529
426 0.000523
427 0.000524
428 0.000513
429 0.000502
430 0.000493
431 0.000484
432 0.000476
433 0.000471
434 0.000471
435 0.000474
436 0.000480
437 0.000488
438 0.000490
439 0.000488
440 0.000485
441 0.000486
442 0.000486
443 0.000481
444 0.000478
445 0.000474
446 0.000463
447 0.000454
448 0.000439
449 0.000425
450 0.000409
451 0.000393
452 0.000385
453 0.000382
454 0.000378
455 0.000374
456 0.000374
457 0.000379
458 0.000383
459 0.000377
460 0.000376
461 0.000377
462 0.000379
463 0.000378
464 0.000378
465 0.000376
466 0.000379
467 0.000386
468 0.000387
469 0.000384
470 0.000386
471 0.000387
472 0.000394
473 0.000399
474 0.000408
475 0.000415
476 0.000423
477 0.000430
478 0.000443
479 0.000451
480 0.000456
481 0.000459
482 0.000452
483 0.000450
484 0.000446
485 0.000438
486 0.000431
487 0.000427
488 0.000419
489 0.000416
490 0.000411
491 0.000403
492 0.000394
493 0.000388
494 0.000385
495 0.000382
496 0.000377
497 0.000366
498 0.000357
499 0.000351
500 0.000346
501 0.000344
502 0.000347
503 0.000352
504 0.000352
505 0.000345
506 0.000349
507 0.000352
508 0.000351
509 0.000351
510 0.000348
511 0.000352
512 0.000349
513 0.000349
514 0.000351
515 0.000352
516 0.000355
517 0.000358
518 0.000363
519 0.000369
520 0.000374
521 0.000376
522 0.000377
523 0.000383
524 0.000389
525 0.000391
526 0.000393
527 0.000391
528 0.000391
529 0.000389
530 0.000392
531 0.000396
532 0.000402
533 0.000407
534 0.000416
535 0.000419
536 0.000419
537 0.000422
538 0.000420
539 0.000420
540 0.000415
541 0.000412
542 0.000411
543 0.000407
544 0.000407
545 0.000406
546 0.000408
547 0.000409
548 0.000403
549 0.000402
550 0.000395
551 0.000387
552 0.000386
553 0.000383
554 0.000383
555 0.000385
556 0.000389
557 0.000394
558 0.000396
559 0.000395
560 0.000396
561 0.000396
562 0.000394
563 0.000391
564 0.000388
565 0.000386
566 0.000392
567 0.000402
568 0.000405
569 0.000413
570 0.000418
571 0.000422
572 0.000427
573 0.000437
574 0.000445
575 0.000454
576 0.000455
577 0.000454
578 0.000451
579 0.000448
580 0.000446
581 0.000445
582 0.000442
583 0.000443
584 0.000441
585 0.000438
586 0.000431
587 0.000422
588 0.000414
589 0.000405
590 0.000398
591 0.000392
592 0.000383
593 0.000380
594 0.000380
595 0.000377
596 0.000375
597 0.000371
598 0.000368
599 0.000369
600 0.000367
601 0.000367
602 0.000368
603 0.000373
604 0.000372
605 0.000377
606 0.000369
607 0.000363
608 0.000365
609 0.000367
610 0.000367
611 0.000366
612 0.000368
613 0.000369
614 0.000371
615 0.000372
616 0.000376
617 0.000378
618 0.000383
619 0.000392
620 0.000397
621 0.000403
622 0.000402
623 0.000395
624 0.000384
625 0.000379
626 0.000374
627 0.000371
628 0.000368
629 0.000367
630 0.000366
631 0.000370
632 0.000374
633 0.000382
634 0.000389
635 0.000394
636 0.000402
637 0.000407
638 0.000408
639 0.000411
640 0.000404
641 0.000399
642 0.000395
643 0.000390
644 0.000389
645 0.000381
646 0.000373
647 0.000378
648 0.000378
649 0.000376
650 0.000376
651 0.000372
652 0.000369
653 0.000370
654 0.000368
655 0.000369
656 0.000371
657 0.000374
658 0.000368
659 0.000368
660 0.000368
661 0.000366
662 0.000365
663 0.000363
664 0.000366
665 0.000365
666 0.000363
667 0.000367
668 0.000367
669 0.000369
670 0.000370
671 0.000370
672 0.000372
673 0.000372
674 0.000375
675 0.000382
676 0.000393
677 0.000400
678 0.000407
679 0.000418
680 0.000430
681 0.000435
682 0.000438
683 0.000441
684 0.000443
685 0.000440
686 0.000436
687 0.000432
688 0.000431
689 0.000433
690 0.000430
691 0.000426
692 0.000425
693 0.000421
694 0.000419
695 0.000416
696 0.000410
697 0.000405
698 0.000400
699 0.000393
700 0.000390
701 0.000384
702 0.000377
703 0.000364
704 0.000353
705 0.000353
706 0.000352
707 0.000349
708 0.000351
709 0.000354
710 0.000355
711 0.000360
712 0.000363
713 0.000367
714 0.000369
715 0.000373
716 0.000377
717 0.000379
718 0.000376
719 0.000370
720 0.000370
721 0.000367
722 0.000368
723 0.000367
724 0.000365
725 0.000367
726 0.000370
727 0.000371
728 0.000372
729 0.000368
730 0.000364
731 0.000364
732 0.000358
733 0.000354
734 0.000351
735 0.000344
736 0.000340
737 0.000334
738 0.000331
739 0.000329
740 0.000323
741 0.000320
742 0.000317
743 0.000310
744 0.000311
745 0.000308
746 0.000307
747 0.000301
748 0.000297
749 0.000296
750 0.000296
751 0.000292
752 0.000291
753 0.000292
754 0.000298
755 0.000303
756 0.000306
757 0.000308
758 0.000309
759 0.000310
760 0.000304
761 0.000302
762 0.000300
763 0.000296
764 0.000291
765 0.000287
766 0.000291
767 0.000292
768 0.000294
769 0.000296
770 0.000297
771 0.000299
772 0.000305
773 0.000306
774 0.000307
775 0.000299
776 0.000293
777 0.000287
778 0.000279
779 0.000273
780 0.000262
781 0.000255
782 0.000247
783 0.000239
784 0.000230
785 0.000224
786 0.000217
787 0.000210
788 0.000204
789 0.000196
790 0.000188
791 0.000179
792 0.000167
793 0.000158
794 0.000151
795 0.000145
796 0.000140
797 0.000136
798 0.000131
799 0.000126
800 0.000123
801 0.000122
802 0.000121
803 0.000121
804 0.000118
805 0.000115
806 0.000115
807 0.000117
808 0.000118
809 0.000120
