# i correlation
1 0.001897
2 0.001817
3 0.001744
4 0.001677
5 0.001607
6 0.001551
7 0.001501
8 0.001458
9 0.001422
10 0.001393
11 0.001375
12 0.001356
13 0.001340
14 0.001321
15 0.001304
16 0.001289
17 0.001267
18 0.001251
19 0.001236
20 0.001233
21 0.001215
22 0.001200
23 0.001183
24 0.001159
25 0.001130
26 0.001110
27 0.001091
28 0.001071
29 0.001050
30 0.001037
31 0.001018
32 0.001007
33 0.000995
34 0.000987
35 0.000993
36 0.001005
37 0.001015
38 0.001027
39 0.001033
40 0.001041
41 0.001044
42 0.001047
43 0.001041
44 0.001032
45 0.001022
46 0.001016
47 0.001003
48 0.001003
49 0.001008
50 0.001009
51 0.001019
52 0.001039
53 0.001052
54 0.001062
55 0.001075
56 0.001090
57 0.001104
58 0.001110
59 0.001120
60 0.001127
61 0.001127
62 0.001128
63 0.001123
64 0.001118
65 0.001114
66 0.001108
67 0.001094
68 0.001091
69 0.001082
70 0.001082
71 0.001078
72 0.001079
73 0.001083
74 0.001086
75 0.001086
76 0.001089
77 0.001093
78 0.001091
79 0.001086
80 0.001087
81 0.001083
82 0.001081
83 0.001069
84 0.001061
85 0.001049
86 0.001042
87 0.001032
88 0.001018
89 0.001016
90 0.001007
91 0.001000
92 0.000995
93 0.000988
94 0.000980
95 0.000971
96 0.000966
97 0.000965
98 0.000963
99 0.000960
100 0.000955
101 0.000951
102 0.000943
103 0.000938
104 0.000931
105 0.000920
106 0.000908
107 0.000895
108 0.000880
109 0.000876
110 0.000875
111 0.000870
112 0.000871
113 0.000873
114 0.000880
115 0.000880
116 0.000889
117 0.000895
118 0.000892
119 0.000885
120 0.000876
121 0.000862
122 0.000854
123 0.000842
124 0.000827
125 0.000816
126 0.000797
127 0.000786
128 0.000779
129 0.000777
130 0.000780
131 0.000776
132 0.000782
133 0.000787
134 0.000789
135 0.000784
136 0.000779
137 0.000778
138 0.000784
139 0.000794
140 0.000796
141 0.000801
142 0.000808
143 0.000817
144 0.000816
145 0.000820
146 0.000826
147 0.000816
148 0.000805
149 0.000802
150 0.000794
151 0.000782
152 0.000778
153 0.000774
154 0.000770
155 0.000766
156 0.000760
157 0.000763
158 0.000770
159 0.000774
160 0.000780
161 0.000781
162 0.000793
163 0.000803
164 0.000806
165 0.000805
166 0.000807
167 0.000792
168 0.000779
169 0.000780
170 0.000774
171 0.000777
172 0.000783
173 0.000786
174 0.000781
175 0.000773
176 0.000767
177 0.000751
178 0.000737
179 0.000730
180 0.000718
181 0.000706
182 0.000700
183 0.000694
184 0.000694
185 0.000699
186 0.000703
187 0.000706
188 0.000706
189 0.000700
190 0.000692
191 0.000679
192 0.000672
193 0.000664
194 0.000661
195 0.000656
196 0.000652
197 0.000643
198 0.000644
199 0.000644
200 0.000651
201 0.000651
202 0.000660
203 0.000663
204 0.000669
205 0.000672
206 0.000681
207 0.000676
208 0.000666
209 0.000661
210 0.000658
211 0.000658
212 0.000649
213 0.000637
214 0.000641
215 0.000647
216 0.000648
217 0.000646
218 0.000644
219 0.000643
220 0.000637
221 0.000629
222 0.000627
223 0.000628
224 0.000630
225 0.000637
226 0.000643
227 0.000650
228 0.000656
229 0.000659
230 0.000669
231 0.000674
232 0.000680
233 0.000680
234 0.000680
235 0.000669
236 0.000661
237 0.000649
238 0.000642
239 0.000635
240 0.000623
241 0.000613
242 0.000611
243 0.000606
244 0.000610
245 0.000610
246 0.000613
247 0.000607
248 0.000603
249 0.000599
250 0.000597
251 0.000597
252 0.000604
253 0.000611
254 0.000608
255 0.000611
256 0.000612
257 0.000601
258 0.000589
259 0.000578
260 0.000567
261 0.000559
262 0.000560
263 0.000558
264 0.000549
265 0.000539
266 0.000538
267 0.000534
268 0.000532
269 0.000521
270 0.000508
271 0.000487
272 0.000477
273 0.000462
274 0.000450
275 0.000438
276 0.000429
277 0.000416
278 0.000404
279 0.000394
280 0.000386
281 0.000380
282 0.000385
283 0.000392
284 0.000391
285 0.000390
286 0.000389
287 0.000395
288 0.000401
289 0.000402
290 0.000406
291 0.000412
292 0.000422
293 0.000425
294 0.000432
295 0.000437
296 0.000444
297 0.000446
298 0.000453
299 0.000459
300 0.000459
301 0.000460
302 0.000462
303 0.000476
304 0.000496
305 0.000511
306 0.000523
307 0.000535
308 0.000553
309 0.000568
310 0.000582
311 0.000586
312 0.000599
313 0.000597
314 0.000598
315 0.000601
316 0.000608
317 0.000612
318 0.000616
319 0.000624
320 0.000629
321 0.000634
322 0.000637
323 0.000635
324 0.000632
325 0.000629
326 0.000630
327 0.000625
328 0.000623
329 0.000616
330 0.000603
331 0.000596
332 0.000584
333 0.000565
334 0.000546
335 0.000532
336 0.000520
337 0.000507
338 0.000491
339 0.000476
340 0.000462
341 0.000444
342 0.000436
343 0.000424
344 0.000411
345 0.000403
346 0.000397
347 0.000397
348 0.000409
349 0.000422
350 0.000430
351 0.000437
352 0.000446
353 0.000441
354 0.000431
355 0.000420
356 0.000405
357 0.000393
358 0.000388
359 0.000376
360 0.000367
361 0.000363
362 0.000359
363 0.000342
364 0.000327
365 0.000317
366 0.000307
367 0.000292
368 0.000283
369 0.000287
370 0.000285
371 0.000284
372 0.000296
373 0.000313
374 0.000323
375 0.000335
376 0.000342
377 0.000351
378 0.000369
379 0.000375
380 0.000377
381 0.000377
382 0.000381
383 0.000368
384 0.000358
385 0.000356
386 0.000352
387 0.000346
388 0.000340
389 0.000331
390 0.000327
391 0.000326
392 0.000328
393 0.000327
394 0.000328
395 0.000324
396 0.000327
397 0.000328
398 0.000333
399 0.000337
400 0.000336
401 0.000336
402 0.000345
403 0.000344
404 0.000351
405 0.000349
406 0.000345
407 0.000337
408 0.000331
409 0.000323
410 0.000317
411 0.000315
412 0.000304
413 0.000301
414 0.000301
415 0.000310
416 0.000316
417 0.000327
418 0.000340
419 0.000348
420 0.000356
421 0.000359
422 0.000366
423 0.000362
424 0.000365
425 0.000362
426 0.000361
427 0.000357
428 0.000356
429 0.000352
430 0.000348
431 0.000342
432 0.000338
433 0.000333
434 0.000332
435 0.000335
436 0.000334
437 0.000338
438 0.000348
439 0.000351
440 0.000357
441 0.000362
442 0.000367
443 0.000365
444 0.000362
445 0.000350
446 0.000339
447 0.000324
448 0.000314
449 0.000306
450 0.000296
451 0.000288
452 0.000277
453 0.000272
454 0.000266
455 0.000264
456 0.000265
457 0.000263
458 0.000258
459 0.000255
460 0.000254
461 0.000252
462 0.000253
463 0.000250
464 0.000247
465 0.000239
466 0.000232
467 0.000226
468 0.000221
469 0.000213
470 0.000211
471 0.000203
472 0.000202
473 0.000201
474 0.000203
475 0.000206
476 0.000212
477 0.000216
478 0.000223
479 0.000231
480 0.000238
481 0.000248
482 0.000251
483 0.000254
484 0.000254
485 0.000250
486 0.000246
487 0.000240
488 0.000240
489 0.000240
490 0.000241
491 0.000244
492 0.000256
493 0.000262
494 0.000272
495 0.000283
496 0.000291
497 0.000297
498 0.000298
499 0.000293
500 0.000292
501 0.000291
502 0.000286
503 0.000276
504 0.000268
505 0.000260
506 0.000255
507 0.000248
508 0.000250
509 0.000241
510 0.000239
511 0.000238
512 0.000239
513 0.000234
514 0.000238
515 0.000249
516 0.000257
517 0.000256
518 0.000257
519 0.000262
520 0.000266
521 0.000276
522 0.000279
523 0.000282
524 0.000292
525 0.000295
526 0.000291
527 0.000288
528 0.000284
529 0.000277
530 0.000268
531 0.000266
532 0.000263
533 0.000257
534 0.000255
535 0.000255
536 0.000257
537 0.000257
538 0.000265
539 0.000267
540 0.000267
541 0.000269
542 0.000272
543 0.000269
544 0.000267
545 0.000267
546 0.000267
547 0.000267
548 0.000265
549 0.000264
550 0.000262
551 0.000264
552 0.000263
553 0.000261
554 0.000266
555 0.000261
556 0.000260
557 0.000259
558 0.000259
559 0.000256
560 0.000250
561 0.000244
562 0.000239
563 0.000233
564 0.000224
565 0.000219
566 0.000217
567 0.000222
568 0.000221
569 0.000217
570 0.000212
571 0.000208
572 0.000208
573 0.000213
574 0.000216
575 0.000218
576 0.000218
577 0.000219
578 0.000216
579 0.000213
580 0.000213
581 0.000217
582 0.000219
583 0.000220
584 0.000224
585 0.000221
586 0.000217
587 0.000216
588 0.000216
589 0.000212
590 0.000206
591 0.000202
592 0.000200
593 0.000198
594 0.000196
595 0.000199
596 0.000195
597 0.000188
598 0.000178
599 0.000170
600 0.000159
601 0.000146
602 0.000137
603 0.000134
604 0.000140
605 0.000148
606 0.000158
607 0.000164
608 0.000169
609 0.000172
610 0.000171
611 0.000166
612 0.000163
613 0.000163
614 0.000167
615 0.000170
616 0.000172
617 0.000172
618 0.000177
619 0.000182
620 0.000187
621 0.000187
622 0.000187
623 0.000184
624 0.000185
625 0.000191
626 0.000197
627 0.000201
628 0.000201
629 0.000199
630 0.000201
631 0.000204
632 0.000208
633 0.000203
634 0.000203
635 0.000211
636 0.000215
637 0.000211
638 0.000208
639 0.000200
640 0.000196
641 0.000196
642 0.000190
643 0.000187
644 0.000186
645 0.000187
646 0.000194
647 0.000203
648 0.000212
649 0.000220
650 0.000224
651 0.000219
652 0.000215
653 0.000209
654 0.000210
655 0.000214
656 0.000215
657 0.000217
658 0.000220
659 0.000223
660 0.000225
661 0.000228
662 0.000227
663 0.000225
664 0.000223
665 0.000220
666 0.000216
667 0.000207
668 0.000205
669 0.000199
670 0.000197
671 0.000193
672 0.000191
673 0.000188
674 0.000188
675 0.000178
676 0.000172
677 0.000166
678 0.000165
679 0.000163
680 0.000160
681 0.000162
682 0.000157
683 0.000158
684 0.000163
685 0.000165
686 0.000168
687 0.000175
688 0.000181
689 0.000184
690 0.000189
691 0.000193
692 0.000196
693 0.000189
694 0.000188
695 0.000185
696 0.000186
697 0.000185
698 0.000187
699 0.000184
700 0.000189
701 0.000192
702 0.000195
703 0.000196
704 0.000200
705 0.000203
706 0.000212
707 0.000220
708 0.000225
709 0.000230
710 0.000233
711 0.000234
712 0.000237
713 0.000235
714 0.000233
715 0.000223
716 0.000211
717 0.000197
718 0.000182
719 0.000166
720 0.000158
721 0.000152
722 0.000150
723 0.000149
724 0.000147
725 0.000145
726 0.000150
727 0.000158
728 0.000162
729 0.000167
730 0.000178
731 0.000187
732 0.000193
733 0.000196
734 0.000194
735 0.000189
736 0.000187
737 0.000180
738 0.000176
739 0.000173
740 0.000173
741 0.000174
742 0.000175
743 0.000174
744 0.000180
745 0.000183
746 0.000189
747 0.000196
748 0.000207
749 0.000215
750 0.000224
751 0.000227
752 0.000230
753 0.000232
754 0.000235
755 0.000232
756 0.000229
757 0.000225
758 0.000221
759 0.000219
760 0.000220
761 0.000221
762 0.000217
763 0.000214
764 0.000213
765 0.000217
766 0.000219
767 0.000222
768 0.000228
769 0.000236
770 0.000240
771 0.000237
772 0.000236
773 0.000230
774 0.000224
775 0.000218
776 0.000212
777 0.000210
778 0.000206
779 0.000204
780 0.000201
781 0.000195
782 0.000187
783 0.000178
784 0.000173
785 0.000167
786 0.000159
787 0.000154
788 0.000151
789 0.000148
790 0.000149
791 0.000150
792 0.000154
793 0.000158
794 0.000152
795 0.000146
796 0.000139
797 0.000133
798 0.000128
799 0.000126
800 0.000125
801 0.000128
802 0.000127
803 0.000127
804 0.000133
805 0.000136
806 0.000139
807 0.000145
808 0.000148
809 0.000148
