# i correlation
1 0.002170
2 0.002086
3 0.002016
4 0.001952
5 0.001900
6 0.001854
7 0.001823
8 0.001786
9 0.001752
10 0.001721
11 0.001693
12 0.001672
13 0.001650
14 0.001631
15 0.001614
16 0.001598
17 0.001571
18 0.001536
19 0.001507
20 0.001486
21 0.001465
22 0.001447
23 0.001438
24 0.001426
25 0.001417
26 0.001403
27 0.001393
28 0.001384
29 0.001373
30 0.001367
31 0.001356
32 0.001340
33 0.001323
34 0.001307
35 0.001299
36 0.001294
37 0.001302
38 0.001307
39 0.001309
40 0.001298
41 0.001280
42 0.001267
43 0.001250
44 0.001227
45 0.001213
46 0.001200
47 0.001189
48 0.001178
49 0.001171
50 0.001172
51 0.001182
52 0.001182
53 0.001190
54 0.001197
55 0.001196
56 0.001200
57 0.001198
58 0.001187
59 0.001176
60 0.001170
61 0.001167
62 0.001161
63 0.001159
64 0.001160
65 0.001160
66 0.001164
67 0.001169
68 0.001170
69 0.001167
70 0.001166
71 0.001169
72 0.001170
73 0.001172
74 0.001170
75 0.001169
76 0.001165
77 0.001168
78 0.001155
79 0.001144
80 0.001136
81 0.001125
82 0.001119
83 0.001113
84 0.001106
85 0.001098
86 0.001096
87 0.001092
88 0.001089
89 0.001084
90 0.001075
91 0.001065
92 0.001057
93 0.001055
94 0.001047
95 0.001044
96 0.001051
97 0.001048
98 0.001050
99 0.001051
100 0.001045
101 0.001039
102 0.001038
103 0.001035
104 0.001035
105 0.001037
106 0.001035
107 0.001031
108 0.001026
109 0.001015
110 0.001007
111 0.001003
112 0.001003
113 0.001003
114 0.001002
115 0.001005
116 0.001012
117 0.001011
118 0.001012
119 0.001002
120 0.000995
121 0.000987
122 0.000984
123 0.000983
124 0.000981
125 0.000982
126 0.000980
127 0.000979
128 0.000982
129 0.000976
130 0.000965
131 0.000949
132 0.000940
133 0.000937
134 0.000929
135 0.000923
136 0.000923
137 0.000919
138 0.000927
139 0.000939
140 0.000946
141 0.000954
142 0.000956
143 0.000963
144 0.000971
145 0.000969
146 0.000980
147 0.000986
148 0.000989
149 0.000990
150 0.000987
151 0.000979
152 0.000971
153 0.000973
154 0.000970
155 0.000973
156 0.000970
157 0.000966
158 0.000968
159 0.000973
160 0.000979
161 0.000982
162 0.000982
163 0.000988
164 0.000994
165 0.001000
166 0.001003
167 0.001007
168 0.001006
169 0.001007
170 0.000998
171 0.000989
172 0.000986
173 0.000986
174 0.000985
175 0.000986
176 0.000987
177 0.000977
178 0.000970
179 0.000963
180 0.000959
181 0.000952
182 0.000943
183 0.000934
184 0.000922
185 0.000922
186 0.000918
187 0.000911
188 0.000896
189 0.000887
190 0.000879
191 0.000868
192 0.000867
193 0.000868
194 0.000863
195 0.000858
196 0.000846
197 0.000846
198 0.000834
199 0.000828
200 0.000820
201 0.000812
202 0.000803
203 0.000791
204 0.000787
205 0.000777
206 0.000766
207 0.000759
208 0.000745
209 0.000733
210 0.000725
211 0.000721
212 0.000711
213 0.000701
214 0.000695
215 0.000691
216 0.000692
217 0.000680
218 0.000669
219 0.000658
220 0.000650
221 0.000646
222 0.000643
223 0.000645
224 0.000647
225 0.000641
226 0.000636
227 0.000636
228 0.000641
229 0.000640
230 0.000641
231 0.000638
232 0.000649
233 0.000643
234 0.000635
235 0.000629
236 0.000629
237 0.000632
238 0.000633
239 0.000642
240 0.000645
241 0.000637
242 0.000642
243 0.000648
244 0.000659
245 0.000667
246 0.000677
247 0.000679
248 0.000681
249 0.000685
250 0.000688
251 0.000696
252 0.000706
253 0.000720
254 0.000727
255 0.000732
256 0.000729
257 0.000724
258 0.000718
259 0.000707
260 0.000700
261 0.000696
262 0.000701
263 0.000704
264 0.000708
265 0.000720
266 0.000733
267 0.000744
268 0.000751
269 0.000763
270 0.000772
271 0.000776
272 0.000778
273 0.000771
274 0.000769
275 0.000772
276 0.000775
277 0.000774
278 0.000777
279 0.000782
280 0.000778
281 0.000784
282 0.000790
283 0.000801
284 0.000803
285 0.000803
286 0.000805
287 0.000798
288 0.000789
289 0.000777
290 0.000770
291 0.000774
292 0.000775
293 0.000777
294 0.000771
295 0.000773
296 0.000773
297 0.000765
298 0.000758
299 0.000751
300 0.000745
301 0.000733
302 0.000715
303 0.000704
304 0.000696
305 0.000695
306 0.000697
307 0.000700
308 0.000703
309 0.000708
310 0.000714
311 0.000712
312 0.000702
313 0.000696
314 0.000682
315 0.000673
316 0.000669
317 0.000658
318 0.000651
319 0.000643
320 0.000639
321 0.000636
322 0.000638
323 0.000643
324 0.000641
325 0.000645
326 0.000654
327 0.000657
328 0.000659
329 0.000663
330 0.000659
331 0.000655
332 0.000654
333 0.000654
334 0.000653
335 0.000660
336 0.000671
337 0.000672
338 0.000672
339 0.000669
340 0.000670
341 0.000670
342 0.000673
343 0.000683
344 0.000687
345 0.000693
346 0.000697
347 0.000704
348 0.000717
349 0.000725
350 0.000732
351 0.000737
352 0.000744
353 0.000741
354 0.000732
355 0.000725
356 0.000716
357 0.000701
358 0.000691
359 0.000679
360 0.000669
361 0.000662
362 0.000655
363 0.000645
364 0.000639
365 0.000630
366 0.000620
367 0.000607
368 0.000605
369 0.000601
370 0.000588
371 0.000582
372 0.000576
373 0.000569
374 0.000564
375 0.000563
376 0.000566
377 0.000562
378 0.000559
379 0.000556
380 0.000552
381 0.000547
382 0.000539
383 0.000532
384 0.000522
385 0.000507
386 0.000497
387 0.000487
388 0.000480
389 0.000474
390 0.000470
391 0.000476
392 0.000483
393 0.000486
394 0.000487
395 0.000480
396 0.000477
397 0.000476
398 0.000478
399 0.000488
400 0.000494
401 0.000502
402 0.000502
403 0.000501
404 0.000509
405 0.000512
406 0.000520
407 0.000525
408 0.000536
409 0.000549
410 0.000551
411 0.000554
412 0.000556
413 0.000566
414 0.000572
415 0.000591
416 0.000605
417 0.000618
418 0.000635
419 0.000647
420 0.000655
421 0.000657
422 0.000661
423 0.000661
424 0.000660
425 0.000668
426 0.000672
427 0.000671
428 0.000667
429 0.000672
430 0.000674
431 0.000684
432 0.000691
433 0.000693
434 0.000698
435 0.000697
436 0.000693
437 0.000683
438 0.000672
439 0.000668
440 0.000654
441 0.000641
442 0.000630
443 0.000626
444 0.000625
445 0.000622
446 0.000621
447 0.000619
448 0.000617
449 0.000610
450 0.000603
451 0.000600
452 0.000596
453 0.000589
454 0.000588
455 0.000588
456 0.000588
457 0.000584
458 0.000578
459 0.000574
460 0.000571
461 0.000569
462 0.000563
463 0.000555
464 0.000555
465 0.000550
466 0.000547
467 0.000540
468 0.000541
469 0.000542
470 0.000538
471 0.000541
472 0.000539
473 0.000539
474 0.000537
475 0.000534
476 0.000538
477 0.000534
478 0.000527
479 0.000519
480 0.000509
481 0.000501
482 0.000493
483 0.000483
484 0.000472
485 0.000464
486 0.000459
487 0.000451
488 0.000443
489 0.000432
490 0.000426
491 0.000425
492 0.000427
493 0.000429
494 0.000431
495 0.000433
496 0.000440
497 0.000451
498 0.000454
499 0.000451
500 0.000439
501 0.000424
502 0.000414
503 0.000407
504 0.000402
505 0.000396
506 0.000391
507 0.000385
508 0.000381
509 0.000375
510 0.000366
511 0.000364
512 0.000361
513 0.000354
514 0.000347
515 0.000340
516 0.000331
517 0.000323
518 0.000318
519 0.000316
520 0.000316
521 0.000321
522 0.000328
523 0.000334
524 0.000339
525 0.000345
526 0.000341
527 0.000345
528 0.000346
529 0.000349
530 0.000352
531 0.000352
532 0.000350
533 0.000356
534 0.000364
535 0.000370
536 0.000371
537 0.000371
538 0.000371
539 0.000372
540 0.000373
541 0.000371
542 0.000373
543 0.000373
544 0.000373
545 0.000380
546 0.000383
547 0.000389
548 0.000397
549 0.000403
550 0.000407
551 0.000408
552 0.000407
553 0.000407
554 0.000406
555 0.000403
556 0.000395
557 0.000385
558 0.000379
559 0.000375
560 0.000373
561 0.000373
562 0.000378
563 0.000382
564 0.000385
565 0.000388
566 0.000381
567 0.000371
568 0.000361
569 0.000356
570 0.000351
571 0.000341
572 0.000342
573 0.000347
574 0.000347
575 0.000342
576 0.000336
577 0.000330
578 0.000326
579 0.000326
580 0.000331
581 0.000336
582 0.000344
583 0.000346
584 0.000351
585 0.000356
586 0.000358
587 0.000361
588 0.000361
589 0.000363
590 0.000361
591 0.000361
592 0.000363
593 0.000370
594 0.000377
595 0.000380
596 0.000380
597 0.000381
598 0.000384
599 0.000385
600 0.000388
601 0.000394
602 0.000400
603 0.000404
604 0.000408
605 0.000407
606 0.000397
607 0.000387
608 0.000377
609 0.000366
610 0.000359
611 0.000356
612 0.000355
613 0.000357
614 0.000363
615 0.000366
616 0.000367
617 0.000362
618 0.000357
619 0.000355
620 0.000362
621 0.000364
622 0.000360
623 0.000359
624 0.000359
625 0.000356
626 0.000358
627 0.000358
628 0.000356
629 0.000358
630 0.000356
631 0.000359
632 0.000357
633 0.000349
634 0.000344
635 0.000339
636 0.000341
637 0.000341
638 0.000340
639 0.000337
640 0.000331
641 0.000329
642 0.000323
643 0.000320
644 0.000317
645 0.000314
646 0.000313
647 0.000319
648 0.000320
649 0.000318
650 0.000313
651 0.000313
652 0.000314
653 0.000313
654 0.000308
655 0.000305
656 0.000299
657 0.000296
658 0.000294
659 0.000294
660 0.000294
661 0.000301
662 0.000301
663 0.000297
664 0.000294
665 0.000289
666 0.000283
667 0.000277
668 0.000276
669 0.000277
670 0.000276
671 0.000279
672 0.000279
673 0.000272
674 0.000266
675 0.000262
676 0.000255
677 0.000247
678 0.000241
679 0.000230
680 0.000224
681 0.000212
682 0.000204
683 0.000197
684 0.000195
685 0.000195
686 0.000199
687 0.000207
688 0.000218
689 0.000225
690 0.000230
691 0.000237
692 0.000245
693 0.000248
694 0.000250
695 0.000248
696 0.000243
697 0.000245
698 0.000250
699 0.000257
700 0.000274
701 0.000293
702 0.000311
703 0.000328
704 0.000342
705 0.000351
706 0.000354
707 0.000353
708 0.000358
709 0.000360
710 0.000358
711 0.000356
712 0.000351
713 0.000346
714 0.000347
715 0.000349
716 0.000344
717 0.000336
718 0.000330
719 0.000324
720 0.000317
721 0.000314
722 0.000316
723 0.000311
724 0.000308
725 0.000309
726 0.000309
727 0.000312
728 0.000316
729 0.000321
730 0.000326
731 0.000330
732 0.000330
733 0.000324
734 0.000314
735 0.000303
736 0.000292
737 0.000280
738 0.000273
739 0.000266
740 0.000261
741 0.000261
742 0.000263
743 0.000270
744 0.000277
745 0.000285
746 0.000290
747 0.000292
748 0.000295
749 0.000298
750 0.000294
751 0.000285
752 0.000282
753 0.000279
754 0.000276
755 0.000270
756 0.000262
757 0.000261
758 0.000256
759 0.000257
760 0.000260
761 0.000261
762 0.000263
763 0.000264
764 0.000265
765 0.000262
766 0.000257
767 0.000255
768 0.000251
769 0.000248
770 0.000245
771 0.000239
772 0.000233
773 0.000225
774 0.000219
775 0.000215
776 0.000212
777 0.000215
778 0.000216
779 0.000219
780 0.000223
781 0.000224
782 0.000224
783 0.000220
784 0.000215
785 0.000210
786 0.000206
787 0.000200
788 0.000195
789 0.000190
790 0.000184
791 0.000178
792 0.000171
793 0.000162
794 0.000153
795 0.000146
796 0.000137
797 0.000129
798 0.000122
799 0.000114
800 0.000108
801 0.000101
802 0.000096
803 0.000090
804 0.000086
805 0.000083
806 0.000079
807 0.000075
808 0.000069
809 0.000067
