# i correlation
1 0.001729
2 0.001643
3 0.001570
4 0.001509
5 0.001461
6 0.001424
7 0.001387
8 0.001352
9 0.001328
10 0.001308
11 0.001293
12 0.001281
13 0.001262
14 0.001260
15 0.001255
16 0.001251
17 0.001254
18 0.001252
19 0.001252
20 0.001264
21 0.001278
22 0.001277
23 0.001277
24 0.001268
25 0.001250
26 0.001230
27 0.001218
28 0.001206
29 0.001197
30 0.001184
31 0.001166
32 0.001145
33 0.001124
34 0.001114
35 0.001104
36 0.001094
37 0.001085
38 0.001079
39 0.001077
40 0.001078
41 0.001076
42 0.001069
43 0.001057
44 0.001044
45 0.001030
46 0.001022
47 0.001021
48 0.001028
49 0.001032
50 0.001032
51 0.001042
52 0.001045
53 0.001051
54 0.001047
55 0.001043
56 0.001045
57 0.001040
58 0.001031
59 0.001026
60 0.001016
61 0.001004
62 0.000991
63 0.000983
64 0.000964
65 0.000952
66 0.000941
67 0.000931
68 0.000927
69 0.000933
70 0.000942
71 0.000952
72 0.000964
73 0.000973
74 0.000978
75 0.000978
76 0.000972
77 0.000968
78 0.000960
79 0.000957
80 0.000959
81 0.000956
82 0.000948
83 0.000941
84 0.000928
85 0.000919
86 0.000909
87 0.000907
88 0.000905
89 0.000904
90 0.000909
91 0.000912
92 0.000911
93 0.000912
94 0.000910
95 0.000910
96 0.000902
97 0.000900
98 0.000896
99 0.000895
100 0.000891
101 0.000895
102 0.000899
103 0.000892
104 0.000885
105 0.000882
106 0.000875
107 0.000868
108 0.000860
109 0.000850
110 0.000838
111 0.000829
112 0.000822
113 0.000817
114 0.000816
115 0.000810
116 0.000812
117 0.000806
118 0.000802
119 0.000793
120 0.000794
121 0.000791
122 0.000786
123 0.000777
124 0.000772
125 0.000776
126 0.000776
127 0.000774
128 0.000776
129 0.000777
130 0.000780
131 0.000789
132 0.000800
133 0.000798
134 0.000798
135 0.000789
136 0.000778
137 0.000765
138 0.000753
139 0.000751
140 0.000741
141 0.000734
142 0.000737
143 0.000735
144 0.000730
145 0.000731
146 0.000736
147 0.000741
148 0.000749
149 0.000759
150 0.000769
151 0.000778
152 0.000776
153 0.000767
154 0.000757
155 0.000748
156 0.000735
157 0.000725
158 0.000715
159 0.000707
160 0.000698
161 0.000696
162 0.000698
163 0.000695
164 0.000694
165 0.000691
166 0.000694
167 0.000686
168 0.000681
169 0.000673
170 0.000663
171 0.000668
172 0.000681
173 0.000695
174 0.000701
175 0.000697
176 0.000685
177 0.000680
178 0.000681
179 0.000687
180 0.000699
181 0.000709
182 0.000723
183 0.000733
184 0.000734
185 0.000735
186 0.000731
187 0.000722
188 0.000718
189 0.000725
190 0.000733
191 0.000736
192 0.000733
193 0.000732
194 0.000723
195 0.000719
196 0.000708
197 0.000696
198 0.000680
199 0.000666
200 0.000661
201 0.000661
202 0.000670
203 0.000676
204 0.000679
205 0.000681
206 0.000682
207 0.000682
208 0.000686
209 0.000683
210 0.000682
211 0.000677
212 0.000675
213 0.000673
214 0.000673
215 0.000670
216 0.000662
217 0.000660
218 0.000651
219 0.000640
220 0.000636
221 0.000633
222 0.000638
223 0.000638
224 0.000638
225 0.000638
226 0.000632
227 0.000627
228 0.000614
229 0.000613
230 0.000611
231 0.000615
232 0.000618
233 0.000623
234 0.000625
235 0.000626
236 0.000631
237 0.000642
238 0.000652
239 0.000650
240 0.000645
241 0.000634
242 0.000634
243 0.000630
244 0.000634
245 0.000636
246 0.000636
247 0.000632
248 0.000634
249 0.000630
250 0.000619
251 0.000610
252 0.000600
253 0.000597
254 0.000599
255 0.000600
256 0.000602
257 0.000600
258 0.000592
259 0.000587
260 0.000587
261 0.000586
262 0.000579
263 0.000582
264 0.000585
265 0.000586
266 0.000587
267 0.000578
268 0.000575
269 0.000574
270 0.000576
271 0.000572
272 0.000571
273 0.000569
274 0.000573
275 0.000573
276 0.000566
277 0.000561
278 0.000560
279 0.000551
280 0.000550
281 0.000550
282 0.000551
283 0.000550
284 0.000555
285 0.000562
286 0.000569
287 0.000571
288 0.000567
289 0.000561
290 0.000552
291 0.000547
292 0.000541
293 0.000531
294 0.000528
295 0.000529
296 0.000523
297 0.000522
298 0.000524
299 0.000526
300 0.000520
301 0.000519
302 0.000511
303 0.000512
304 0.000518
305 0.000521
306 0.000516
307 0.000512
308 0.000508
309 0.000506
310 0.000502
311 0.000496
312 0.000490
313 0.000480
314 0.000470
315 0.000460
316 0.000456
317 0.000456
318 0.000454
319 0.000454
320 0.000450
321 0.000450
322 0.000454
323 0.000461
324 0.000466
325 0.000466
326 0.000468
327 0.000471
328 0.000481
329 0.000489
330 0.000491
331 0.000491
332 0.000490
333 0.000488
334 0.000488
335 0.000488
336 0.000490
337 0.000487
338 0.000481
339 0.000479
340 0.000476
341 0.000468
342 0.000457
343 0.000456
344 0.000456
345 0.000454
346 0.000455
347 0.000456
348 0.000457
349 0.000449
350 0.000435
351 0.000434
352 0.000431
353 0.000423
354 0.000417
355 0.000408
356 0.000396
357 0.000392
358 0.000388
359 0.000391
360 0.000391
361 0.000387
362 0.000383
363 0.000386
364 0.000388
365 0.000391
366 0.000383
367 0.000370
368 0.000359
369 0.000357
370 0.000352
371 0.000345
372 0.000341
373 0.000336
374 0.000334
375 0.000339
376 0.000347
377 0.000353
378 0.000346
379 0.000340
380 0.000332
381 0.000323
382 0.000323
383 0.000318
384 0.000314
385 0.000320
386 0.000323
387 0.000325
388 0.000335
389 0.000340
390 0.000341
391 0.000341
392 0.000339
393 0.000335
394 0.000332
395 0.000325
396 0.000316
397 0.000314
398 0.000308
399 0.000311
400 0.000307
401 0.000295
402 0.000285
403 0.000283
404 0.000282
405 0.000285
406 0.000290
407 0.000292
408 0.000294
409 0.000296
410 0.000299
411 0.000306
412 0.000312
413 0.000315
414 0.000310
415 0.000305
416 0.000300
417 0.000296
418 0.000289
419 0.000288
420 0.000296
421 0.000298
422 0.000298
423 0.000302
424 0.000300
425 0.000295
426 0.000298
427 0.000301
428 0.000312
429 0.000326
430 0.000334
431 0.000343
432 0.000352
433 0.000360
434 0.000370
435 0.000381
436 0.000390
437 0.000403
438 0.000411
439 0.000411
440 0.000406
441 0.000400
442 0.000391
443 0.000383
444 0.000380
445 0.000375
446 0.000375
447 0.000368
448 0.000370
449 0.000377
450 0.000390
451 0.000392
452 0.000393
453 0.000394
454 0.000396
455 0.000403
456 0.000406
457 0.000410
458 0.000412
459 0.000408
460 0.000414
461 0.000417
462 0.000419
463 0.000414
464 0.000414
465 0.000414
466 0.000413
467 0.000414
468 0.000415
469 0.000416
470 0.000422
471 0.000430
472 0.000432
473 0.000428
474 0.000423
475 0.000418
476 0.000411
477 0.000413
478 0.000415
479 0.000418
480 0.000425
481 0.000426
482 0.000428
483 0.000422
484 0.000417
485 0.000416
486 0.000416
487 0.000421
488 0.000419
489 0.000414
490 0.000415
491 0.000415
492 0.000417
493 0.000417
494 0.000424
495 0.000425
496 0.000422
497 0.000421
498 0.000418
499 0.000413
500 0.000404
501 0.000405
502 0.000407
503 0.000403
504 0.000392
505 0.000387
506 0.000387
507 0.000385
508 0.000390
509 0.000399
510 0.000403
511 0.000411
512 0.000422
513 0.000428
514 0.000427
515 0.000422
516 0.000415
517 0.000408
518 0.000406
519 0.000404
520 0.000404
521 0.000405
522 0.000402
523 0.000402
524 0.000400
525 0.000400
526 0.000402
527 0.000410
528 0.000411
529 0.000414
530 0.000417
531 0.000422
532 0.000418
533 0.000412
534 0.000408
535 0.000402
536 0.000400
537 0.000403
538 0.000405
539 0.000401
540 0.000394
541 0.000394
542 0.000388
543 0.000390
544 0.000391
545 0.000391
546 0.000389
547 0.000389
548 0.000389
549 0.000387
550 0.000387
551 0.000389
552 0.000387
553 0.000378
554 0.000373
555 0.000377
556 0.000374
557 0.000371
558 0.000371
559 0.000368
560 0.000370
561 0.000372
562 0.000379
563 0.000379
564 0.000378
565 0.000380
566 0.000377
567 0.000375
568 0.000374
569 0.000377
570 0.000374
571 0.000373
572 0.000370
573 0.000360
574 0.000349
575 0.000339
576 0.000328
577 0.000319
578 0.000316
579 0.000315
580 0.000310
581 0.000310
582 0.000315
583 0.000320
584 0.000326
585 0.000335
586 0.000342
587 0.000347
588 0.000349
589 0.000351
590 0.000356
591 0.000351
592 0.000348
593 0.000345
594 0.000338
595 0.000326
596 0.000318
597 0.000303
598 0.000290
599 0.000290
600 0.000292
601 0.000294
602 0.000301
603 0.000304
604 0.000305
605 0.000300
606 0.000295
607 0.000291
608 0.000288
609 0.000284
610 0.000282
611 0.000280
612 0.000278
613 0.000276
614 0.000281
615 0.000281
616 0.000278
617 0.000281
618 0.000284
619 0.000281
620 0.000280
621 0.000280
622 0.000282
623 0.000285
624 0.000286
625 0.000283
626 0.000283
627 0.000280
628 0.000279
629 0.000281
630 0.000283
631 0.000281
632 0.000281
633 0.000283
634 0.000283
635 0.000281
636 0.000271
637 0.000261
638 0.000259
639 0.000259
640 0.000257
641 0.000258
642 0.000256
643 0.000259
644 0.000265
645 0.000270
646 0.000267
647 0.000262
648 0.000255
649 0.000245
650 0.000237
651 0.000228
652 0.000224
653 0.000224
654 0.000229
655 0.000232
656 0.000231
657 0.000228
658 0.000222
659 0.000219
660 0.000221
661 0.000224
662 0.000227
663 0.000233
664 0.000234
665 0.000234
666 0.000230
667 0.000225
668 0.000218
669 0.000213
670 0.000212
671 0.000210
672 0.000210
673 0.000208
674 0.000207
675 0.000208
676 0.000203
677 0.000203
678 0.000196
679 0.000190
680 0.000191
681 0.000187
682 0.000181
683 0.000183
684 0.000186
685 0.000189
686 0.000191
687 0.000196
688 0.000193
689 0.000191
690 0.000187
691 0.000180
692 0.000176
693 0.000173
694 0.000178
695 0.000188
696 0.000193
697 0.000197
698 0.000197
699 0.000194
700 0.000190
701 0.000183
702 0.000179
703 0.000176
704 0.000177
705 0.000171
706 0.000166
707 0.000157
708 0.000151
709 0.000148
710 0.000143
711 0.000139
712 0.000132
713 0.000125
714 0.000124
715 0.000122
716 0.000129
717 0.000137
718 0.000145
719 0.000151
720 0.000158
721 0.000159
722 0.000158
723 0.000158
724 0.000164
725 0.000161
726 0.000156
727 0.000146
728 0.000139
729 0.000129
730 0.000123
731 0.000117
732 0.000111
733 0.000106
734 0.000106
735 0.000107
736 0.000112
737 0.000115
738 0.000120
739 0.000125
740 0.000134
741 0.000144
742 0.000151
743 0.000157
744 0.000157
745 0.000157
746 0.000159
747 0.000162
748 0.000160
749 0.000158
750 0.000157
751 0.000156
752 0.000156
753 0.000158
754 0.000157
755 0.000152
756 0.000150
757 0.000147
758 0.000145
759 0.000149
760 0.000154
761 0.000156
762 0.000157
763 0.000157
764 0.000157
765 0.000162
766 0.000166
767 0.000173
768 0.000179
769 0.000184
770 0.000187
771 0.000191
772 0.000201
773 0.000211
774 0.000222
775 0.000230
776 0.000236
777 0.000238
778 0.000233
779 0.000227
780 0.000222
781 0.000219
782 0.000218
783 0.000215
784 0.000209
785 0.000203
786 0.000196
787 0.000189
788 0.000184
789 0.000182
790 0.000177
791 0.000172
792 0.000169
793 0.000173
794 0.000180
795 0.000190
796 0.000199
797 0.000208
798 0.000212
799 0.000212
800 0.000209
801 0.000208
802 0.000202
803 0.000195
804 0.000188
805 0.000179
806 0.000171
807 0.000163
808 0.000152
809 0.000143
