# i correlation
1 0.002074
2 0.001999
3 0.001931
4 0.001887
5 0.001847
6 0.001811
7 0.001787
8 0.001759
9 0.001724
10 0.001688
11 0.001668
12 0.001650
13 0.001626
14 0.001602
15 0.001581
16 0.001565
17 0.001553
18 0.001537
19 0.001525
20 0.001508
21 0.001489
22 0.001470
23 0.001450
24 0.001440
25 0.001423
26 0.001414
27 0.001394
28 0.001386
29 0.001386
30 0.001385
31 0.001387
32 0.001384
33 0.001382
34 0.001377
35 0.001372
36 0.001367
37 0.001358
38 0.001348
39 0.001334
40 0.001323
41 0.001314
42 0.001301
43 0.001289
44 0.001274
45 0.001260
46 0.001249
47 0.001248
48 0.001252
49 0.001244
50 0.001239
51 0.001229
52 0.001212
53 0.001209
54 0.001213
55 0.001220
56 0.001218
57 0.001205
58 0.001183
59 0.001170
60 0.001153
61 0.001147
62 0.001147
63 0.001150
64 0.001155
65 0.001164
66 0.001175
67 0.001196
68 0.001195
69 0.001187
70 0.001172
71 0.001163
72 0.001161
73 0.001161
74 0.001167
75 0.001172
76 0.001165
77 0.001153
78 0.001139
79 0.001132
80 0.001123
81 0.001107
82 0.001100
83 0.001097
84 0.001092
85 0.001087
86 0.001086
87 0.001078
88 0.001074
89 0.001062
90 0.001054
91 0.001039
92 0.001027
93 0.001017
94 0.001009
95 0.001010
96 0.001004
97 0.001008
98 0.001005
99 0.000999
100 0.000991
101 0.000988
102 0.000989
103 0.000989
104 0.000999
105 0.001004
106 0.001007
107 0.001002
108 0.000997
109 0.000987
110 0.000983
111 0.000977
112 0.000974
113 0.000968
114 0.000960
115 0.000954
116 0.000945
117 0.000929
118 0.000913
119 0.000897
120 0.000885
121 0.000872
122 0.000869
123 0.000864
124 0.000858
125 0.000847
126 0.000834
127 0.000816
128 0.000804
129 0.000799
130 0.000799
131 0.000801
132 0.000799
133 0.000801
134 0.000804
135 0.000801
136 0.000814
137 0.000829
138 0.000842
139 0.000854
140 0.000862
141 0.000880
142 0.000891
143 0.000900
144 0.000896
145 0.000895
146 0.000897
147 0.000899
148 0.000898
149 0.000902
150 0.000915
151 0.000926
152 0.000931
153 0.000933
154 0.000931
155 0.000933
156 0.000932
157 0.000927
158 0.000925
159 0.000923
160 0.000919
161 0.000916
162 0.000918
163 0.000919
164 0.000917
165 0.000910
166 0.000906
167 0.000905
168 0.000899
169 0.000886
170 0.000877
171 0.000870
172 0.000864
173 0.000855
174 0.000843
175 0.000834
176 0.000820
177 0.000809
178 0.000806
179 0.000809
180 0.000812
181 0.000821
182 0.000824
183 0.000827
184 0.000826
185 0.000821
186 0.000812
187 0.000811
188 0.000809
189 0.000807
190 0.000811
191 0.000809
192 0.000810
193 0.000801
194 0.000793
195 0.000775
196 0.000768
197 0.000768
198 0.000782
199 0.000781
200 0.000781
201 0.000783
202 0.000786
203 0.000786
204 0.000787
205 0.000791
206 0.000799
207 0.000801
208 0.000803
209 0.000803
210 0.000809
211 0.000811
212 0.000807
213 0.000804
214 0.000805
215 0.000808
216 0.000810
217 0.000803
218 0.000798
219 0.000791
220 0.000787
221 0.000784
222 0.000783
223 0.000783
224 0.000778
225 0.000758
226 0.000754
227 0.000747
228 0.000737
229 0.000729
230 0.000729
231 0.000732
232 0.000731
233 0.000724
234 0.000727
235 0.000733
236 0.000737
237 0.000733
238 0.000740
239 0.000750
240 0.000756
241 0.000765
242 0.000771
243 0.000774
244 0.000771
245 0.000775
246 0.000779
247 0.000794
248 0.000800
249 0.000800
250 0.000796
251 0.000793
252 0.000793
253 0.000797
254 0.000801
255 0.000802
256 0.000807
257 0.000802
258 0.000805
259 0.000804
260 0.000797
261 0.000787
262 0.000773
263 0.000763
264 0.000755
265 0.000752
266 0.000749
267 0.000747
268 0.000734
269 0.000733
270 0.000732
271 0.000735
272 0.000728
273 0.000730
274 0.000731
275 0.000729
276 0.000726
277 0.000730
278 0.000747
279 0.000755
280 0.000758
281 0.000754
282 0.000744
283 0.000725
284 0.000709
285 0.000693
286 0.000684
287 0.000681
288 0.000681
289 0.000685
290 0.000683
291 0.000677
292 0.000667
293 0.000663
294 0.000659
295 0.000659
296 0.000658
297 0.000655
298 0.000649
299 0.000646
300 0.000639
301 0.000634
302 0.000630
303 0.000631
304 0.000630
305 0.000627
306 0.000627
307 0.000618
308 0.000610
309 0.000608
310 0.000611
311 0.000607
312 0.000601
313 0.000594
314 0.000598
315 0.000592
316 0.000583
317 0.000575
318 0.000568
319 0.000561
320 0.000551
321 0.000550
322 0.000551
323 0.000548
324 0.000539
325 0.000531
326 0.000524
327 0.000518
328 0.000512
329 0.000506
330 0.000505
331 0.000498
332 0.000489
333 0.000486
334 0.000484
335 0.000486
336 0.000482
337 0.000477
338 0.000472
339 0.000466
340 0.000464
341 0.000464
342 0.000463
343 0.000465
344 0.000466
345 0.000473
346 0.000485
347 0.000496
348 0.000507
349 0.000510
350 0.000510
351 0.000507
352 0.000510
353 0.000512
354 0.000524
355 0.000533
356 0.000545
357 0.000552
358 0.000553
359 0.000546
360 0.000545
361 0.000547
362 0.000546
363 0.000542
364 0.000542
365 0.000540
366 0.000536
367 0.000529
368 0.000521
369 0.000516
370 0.000503
371 0.000493
372 0.000480
373 0.000470
374 0.000462
375 0.000450
376 0.000446
377 0.000442
378 0.000440
379 0.000437
380 0.000431
381 0.000428
382 0.000429
383 0.000436
384 0.000434
385 0.000438
386 0.000448
387 0.000447
388 0.000451
389 0.000455
390 0.000465
391 0.000470
392 0.000471
393 0.000469
394 0.000471
395 0.000469
396 0.000468
397 0.000470
398 0.000468
399 0.000459
400 0.000452
401 0.000445
402 0.000447
403 0.000448
404 0.000450
405 0.000447
406 0.000432
407 0.000419
408 0.000411
409 0.000405
410 0.000402
411 0.000399
412 0.000394
413 0.000387
414 0.000391
415 0.000392
416 0.000394
417 0.000395
418 0.000390
419 0.000386
420 0.000389
421 0.000392
422 0.000396
423 0.000400
424 0.000405
425 0.000405
426 0.000401
427 0.000390
428 0.000387
429 0.000379
430 0.000374
431 0.000367
432 0.000364
433 0.000364
434 0.000363
435 0.000359
436 0.000352
437 0.000350
438 0.000344
439 0.000340
440 0.000344
441 0.000344
442 0.000345
443 0.000343
444 0.000341
445 0.000345
446 0.000350
447 0.000351
448 0.000349
449 0.000345
450 0.000345
451 0.000337
452 0.000332
453 0.000334
454 0.000334
455 0.000337
456 0.000334
457 0.000335
458 0.000340
459 0.000348
460 0.000353
461 0.000364
462 0.000374
463 0.000381
464 0.000386
465 0.000389
466 0.000385
467 0.000378
468 0.000367
469 0.000363
470 0.000366
471 0.000378
472 0.000382
473 0.000379
474 0.000373
475 0.000356
476 0.000345
477 0.000334
478 0.000322
479 0.000310
480 0.000302
481 0.000300
482 0.000298
483 0.000290
484 0.000286
485 0.000279
486 0.000274
487 0.000269
488 0.000266
489 0.000266
490 0.000269
491 0.000274
492 0.000275
493 0.000279
494 0.000286
495 0.000297
496 0.000297
497 0.000302
498 0.000305
499 0.000310
500 0.000321
501 0.000332
502 0.000341
503 0.000351
504 0.000363
505 0.000373
506 0.000379
507 0.000388
508 0.000396
509 0.000402
510 0.000400
511 0.000397
512 0.000402
513 0.000400
514 0.000403
515 0.000398
516 0.000397
517 0.000391
518 0.000382
519 0.000379
520 0.000385
521 0.000388
522 0.000387
523 0.000383
524 0.000377
525 0.000378
526 0.000375
527 0.000379
528 0.000380
529 0.000383
530 0.000382
531 0.000379
532 0.000377
533 0.000382
534 0.000378
535 0.000374
536 0.000373
537 0.000378
538 0.000388
539 0.000397
540 0.000406
541 0.000410
542 0.000404
543 0.000395
544 0.000389
545 0.000390
546 0.000391
547 0.000394
548 0.000400
549 0.000408
550 0.000416
551 0.000425
552 0.000425
553 0.000429
554 0.000430
555 0.000427
556 0.000430
557 0.000435
558 0.000436
559 0.000439
560 0.000441
561 0.000443
562 0.000445
563 0.000440
564 0.000432
565 0.000423
566 0.000423
567 0.000422
568 0.000425
569 0.000429
570 0.000438
571 0.000440
572 0.000442
573 0.000443
574 0.000445
575 0.000452
576 0.000457
577 0.000463
578 0.000463
579 0.000461
580 0.000455
581 0.000455
582 0.000448
583 0.000444
584 0.000443
585 0.000432
586 0.000422
587 0.000415
588 0.000418
589 0.000416
590 0.000411
591 0.000399
592 0.000397
593 0.000390
594 0.000381
595 0.000375
596 0.000372
597 0.000361
598 0.000350
599 0.000339
600 0.000335
601 0.000333
602 0.000330
603 0.000326
604 0.000330
605 0.000332
606 0.000330
607 0.000328
608 0.000328
609 0.000323
610 0.000321
611 0.000316
612 0.000317
613 0.000318
614 0.000315
615 0.000314
616 0.000309
617 0.000305
618 0.000298
619 0.000285
620 0.000271
621 0.000259
622 0.000250
623 0.000242
624 0.000244
625 0.000243
626 0.000245
627 0.000250
628 0.000252
629 0.000248
630 0.000241
631 0.000236
632 0.000235
633 0.000236
634 0.000237
635 0.000236
636 0.000237
637 0.000238
638 0.000237
639 0.000230
640 0.000220
641 0.000215
642 0.000210
643 0.000204
644 0.000204
645 0.000209
646 0.000218
647 0.000216
648 0.000216
649 0.000215
650 0.000211
651 0.000213
652 0.000214
653 0.000215
654 0.000210
655 0.000212
656 0.000212
657 0.000214
658 0.000213
659 0.000215
660 0.000214
661 0.000215
662 0.000214
663 0.000221
664 0.000228
665 0.000234
666 0.000236
667 0.000242
668 0.000245
669 0.000247
670 0.000250
671 0.000253
672 0.000258
673 0.000257
674 0.000255
675 0.000252
676 0.000250
677 0.000243
678 0.000239
679 0.000235
680 0.000231
681 0.000229
682 0.000232
683 0.000230
684 0.000223
685 0.000216
686 0.000207
687 0.000200
688 0.000193
689 0.000190
690 0.000188
691 0.000187
692 0.000186
693 0.000185
694 0.000181
695 0.000174
696 0.000170
697 0.000168
698 0.000163
699 0.000160
700 0.000159
701 0.000163
702 0.000171
703 0.000174
704 0.000183
705 0.000186
706 0.000191
707 0.000193
708 0.000191
709 0.000191
710 0.000194
711 0.000196
712 0.000201
713 0.000205
714 0.000210
715 0.000212
716 0.000212
717 0.000215
718 0.000219
719 0.000226
720 0.000235
721 0.000245
722 0.000252
723 0.000259
724 0.000261
725 0.000261
726 0.000264
727 0.000263
728 0.000261
729 0.000255
730 0.000253
731 0.000251
732 0.000247
733 0.000242
734 0.000239
735 0.000235
736 0.000229
737 0.000225
738 0.000230
739 0.000235
740 0.000242
741 0.000249
742 0.000255
743 0.000263
744 0.000265
745 0.000267
746 0.000266
747 0.000268
748 0.000264
749 0.000258
750 0.000259
751 0.000264
752 0.000268
753 0.000266
754 0.000264
755 0.000262
756 0.000259
757 0.000256
758 0.000251
759 0.000251
760 0.000254
761 0.000251
762 0.000247
763 0.000242
764 0.000242
765 0.000239
766 0.000236
767 0.000231
768 0.000228
769 0.000226
770 0.000222
771 0.000223
772 0.000219
773 0.000216
774 0.000214
775 0.000214
776 0.000216
777 0.000217
778 0.000216
779 0.000214
780 0.000213
781 0.000210
782 0.000208
783 0.000206
784 0.000204
785 0.000202
786 0.000201
787 0.000202
788 0.000205
789 0.000206
790 0.000209
791 0.000210
792 0.000211
793 0.000213
794 0.000217
795 0.000217
796 0.000219
797 0.000216
798 0.000215
799 0.000212
800 0.000206
801 0.000201
802 0.000194
803 0.000187
804 0.000179
805 0.000175
806 0.000171
807 0.000168
808 0.000165
809 0.000166
