# i correlation
1 0.001773
2 0.001702
3 0.001640
4 0.001594
5 0.001547
6 0.001507
7 0.001478
8 0.001454
9 0.001439
10 0.001422
11 0.001404
12 0.001397
13 0.001380
14 0.001368
15 0.001354
16 0.001339
17 0.001322
18 0.001309
19 0.001299
20 0.001288
21 0.001277
22 0.001267
23 0.001252
24 0.001232
25 0.001214
26 0.001192
27 0.001176
28 0.001158
29 0.001144
30 0.001139
31 0.001129
32 0.001126
33 0.001114
34 0.001107
35 0.001101
36 0.001095
37 0.001098
38 0.001094
39 0.001087
40 0.001080
41 0.001081
42 0.001082
43 0.001081
44 0.001078
45 0.001063
46 0.001050
47 0.001035
48 0.001031
49 0.001033
50 0.001027
51 0.001021
52 0.001017
53 0.001014
54 0.001004
55 0.000998
56 0.000986
57 0.000961
58 0.000943
59 0.000927
60 0.000912
61 0.000899
62 0.000892
63 0.000881
64 0.000874
65 0.000868
66 0.000865
67 0.000860
68 0.000859
69 0.000861
70 0.000861
71 0.000858
72 0.000860
73 0.000857
74 0.000853
75 0.000834
76 0.000827
77 0.000819
78 0.000819
79 0.000809
80 0.000802
81 0.000798
82 0.000786
83 0.000779
84 0.000768
85 0.000763
86 0.000751
87 0.000745
88 0.000735
89 0.000726
90 0.000721
91 0.000715
92 0.000708
93 0.000706
94 0.000705
95 0.000701
96 0.000705
97 0.000716
98 0.000727
99 0.000734
100 0.000742
101 0.000749
102 0.000747
103 0.000746
104 0.000750
105 0.000749
106 0.000739
107 0.000737
108 0.000736
109 0.000735
110 0.000740
111 0.000743
112 0.000735
113 0.000727
114 0.000716
115 0.000716
116 0.000716
117 0.000707
118 0.000700
119 0.000698
120 0.000700
121 0.000700
122 0.000701
123 0.000703
124 0.000704
125 0.000710
126 0.000714
127 0.000718
128 0.000715
129 0.000708
130 0.000703
131 0.000697
132 0.000688
133 0.000673
134 0.000664
135 0.000659
136 0.000648
137 0.000639
138 0.000630
139 0.000620
140 0.000616
141 0.000624
142 0.000630
143 0.000632
144 0.000637
145 0.000642
146 0.000645
147 0.000646
148 0.000651
149 0.000651
150 0.000651
151 0.000648
152 0.000656
153 0.000657
154 0.000658
155 0.000648
156 0.000647
157 0.000644
158 0.000628
159 0.000621
160 0.000626
161 0.000628
162 0.000628
163 0.000625
164 0.000625
165 0.000619
166 0.000615
167 0.000608
168 0.000603
169 0.000604
170 0.000603
171 0.000601
172 0.000606
173 0.000606
174 0.000608
175 0.000603
176 0.000594
177 0.000591
178 0.000584
179 0.000575
180 0.000569
181 0.000556
182 0.000554
183 0.000550
184 0.000547
185 0.000539
186 0.000538
187 0.000534
188 0.000532
189 0.000529
190 0.000527
191 0.000523
192 0.000515
193 0.000510
194 0.000510
195 0.000513
196 0.000522
197 0.000537
198 0.000547
199 0.000547
200 0.000554
201 0.000555
202 0.000556
203 0.000557
204 0.000564
205 0.000570
206 0.000572
207 0.000574
208 0.000572
209 0.000579
210 0.000582
211 0.000583
212 0.000590
213 0.000593
214 0.000594
215 0.000599
216 0.000603
217 0.000601
218 0.000595
219 0.000580
220 0.000569
221 0.000572
222 0.000574
223 0.000570
224 0.000571
225 0.000573
226 0.000578
227 0.000572
228 0.000563
229 0.000551
230 0.000551
231 0.000548
232 0.000549
233 0.000547
234 0.000544
235 0.000543
236 0.000545
237 0.000538
238 0.000528
239 0.000520
240 0.000515
241 0.000511
242 0.000506
243 0.000493
244 0.000482
245 0.000472
246 0.000465
247 0.000463
248 0.000464
249 0.000462
250 0.000466
251 0.000471
252 0.000473
253 0.000478
254 0.000474
255 0.000468
256 0.000464
257 0.000458
258 0.000446
259 0.000438
260 0.000428
261 0.000422
262 0.000419
263 0.000410
264 0.000404
265 0.000400
266 0.000391
267 0.000390
268 0.000382
269 0.000377
270 0.000379
271 0.000386
272 0.000386
273 0.000380
274 0.000374
275 0.000367
276 0.000363
277 0.000357
278 0.000349
279 0.000341
280 0.000337
281 0.000333
282 0.000331
283 0.000335
284 0.000345
285 0.000353
286 0.000355
287 0.000357
288 0.000360
289 0.000363
290 0.000363
291 0.000365
292 0.000357
293 0.000357
294 0.000362
295 0.000364
296 0.000360
297 0.000354
298 0.000350
299 0.000349
300 0.000348
301 0.000342
302 0.000338
303 0.000337
304 0.000344
305 0.000354
306 0.000358
307 0.000359
308 0.000358
309 0.000359
310 0.000355
311 0.000347
312 0.000339
313 0.000330
314 0.000328
315 0.000322
316 0.000316
317 0.000309
318 0.000297
319 0.000285
320 0.000276
321 0.000276
322 0.000277
323 0.000276
324 0.000275
325 0.000274
326 0.000281
327 0.000284
328 0.000284
329 0.000280
330 0.000276
331 0.000272
332 0.000274
333 0.000271
334 0.000273
335 0.000271
336 0.000279
337 0.000294
338 0.000309
339 0.000317
340 0.000327
341 0.000334
342 0.000341
343 0.000343
344 0.000337
345 0.000327
346 0.000319
347 0.000311
348 0.000304
349 0.000306
350 0.000304
351 0.000299
352 0.000297
353 0.000298
354 0.000294
355 0.000283
356 0.000276
357 0.000273
358 0.000278
359 0.000280
360 0.000286
361 0.000292
362 0.000296
363 0.000300
364 0.000300
365 0.000301
366 0.000297
367 0.000291
368 0.000282
369 0.000276
370 0.000272
371 0.000270
372 0.000268
373 0.000264
374 0.000262
375 0.000262
376 0.000259
377 0.000262
378 0.000264
379 0.000263
380 0.000262
381 0.000258
382 0.000257
383 0.000259
384 0.000264
385 0.000273
386 0.000287
387 0.000295
388 0.000296
389 0.000296
390 0.000291
391 0.000285
392 0.000282
393 0.000274
394 0.000263
395 0.000256
396 0.000254
397 0.000242
398 0.000240
399 0.000230
400 0.000225
401 0.000218
402 0.000216
403 0.000215
404 0.000218
405 0.000226
406 0.000230
407 0.000234
408 0.000234
409 0.000233
410 0.000234
411 0.000233
412 0.000235
413 0.000235
414 0.000238
415 0.000241
416 0.000248
417 0.000249
418 0.000249
419 0.000256
420 0.000254
421 0.000252
422 0.000244
423 0.000238
424 0.000228
425 0.000214
426 0.000207
427 0.000202
428 0.000199
429 0.000192
430 0.000192
431 0.000192
432 0.000194
433 0.000193
434 0.000191
435 0.000184
436 0.000182
437 0.000183
438 0.000177
439 0.000183
440 0.000186
441 0.000190
442 0.000193
443 0.000190
444 0.000183
445 0.000176
446 0.000170
447 0.000170
448 0.000172
449 0.000182
450 0.000190
451 0.000208
452 0.000216
453 0.000226
454 0.000236
455 0.000240
456 0.000239
457 0.000246
458 0.000254
459 0.000256
460 0.000256
461 0.000257
462 0.000262
463 0.000263
464 0.000263
465 0.000260
466 0.000254
467 0.000252
468 0.000260
469 0.000266
470 0.000265
471 0.000262
472 0.000262
473 0.000260
474 0.000259
475 0.000255
476 0.000253
477 0.000250
478 0.000245
479 0.000230
480 0.000216
481 0.000210
482 0.000202
483 0.000197
484 0.000191
485 0.000190
486 0.000196
487 0.000199
488 0.000207
489 0.000216
490 0.000229
491 0.000233
492 0.000234
493 0.000237
494 0.000241
495 0.000242
496 0.000239
497 0.000236
498 0.000232
499 0.000226
500 0.000214
501 0.000205
502 0.000197
503 0.000192
504 0.000186
505 0.000184
506 0.000190
507 0.000195
508 0.000192
509 0.000189
510 0.000191
511 0.000190
512 0.000190
513 0.000192
514 0.000193
515 0.000197
516 0.000194
517 0.000193
518 0.000195
519 0.000189
520 0.000195
521 0.000198
522 0.000193
523 0.000191
524 0.000187
525 0.000179
526 0.000170
527 0.000173
528 0.000173
529 0.000172
530 0.000171
531 0.000173
532 0.000181
533 0.000183
534 0.000186
535 0.000191
536 0.000199
537 0.000211
538 0.000216
539 0.000220
540 0.000218
541 0.000216
542 0.000222
543 0.000220
544 0.000216
545 0.000207
546 0.000203
547 0.000205
548 0.000207
549 0.000211
550 0.000212
551 0.000209
552 0.000204
553 0.000192
554 0.000183
555 0.000174
556 0.000169
557 0.000162
558 0.000159
559 0.000158
560 0.000159
561 0.000160
562 0.000169
563 0.000167
564 0.000172
565 0.000174
566 0.000175
567 0.000173
568 0.000168
569 0.000167
570 0.000160
571 0.000155
572 0.000148
573 0.000146
574 0.000147
575 0.000149
576 0.000150
577 0.000146
578 0.000143
579 0.000149
580 0.000157
581 0.000159
582 0.000156
583 0.000154
584 0.000159
585 0.000157
586 0.000158
587 0.000165
588 0.000174
589 0.000185
590 0.000191
591 0.000196
592 0.000200
593 0.000211
594 0.000220
595 0.000224
596 0.000229
597 0.000228
598 0.000228
599 0.000227
600 0.000224
601 0.000222
602 0.000222
603 0.000228
604 0.000230
605 0.000233
606 0.000234
607 0.000231
608 0.000225
609 0.000218
610 0.000218
611 0.000216
612 0.000216
613 0.000213
614 0.000212
615 0.000211
616 0.000210
617 0.000209
618 0.000210
619 0.000211
620 0.000211
621 0.000208
622 0.000210
623 0.000207
624 0.000208
625 0.000205
626 0.000202
627 0.000196
628 0.000196
629 0.000191
630 0.000189
631 0.000192
632 0.000198
633 0.000202
634 0.000202
635 0.000198
636 0.000196
637 0.000198
638 0.000201
639 0.000201
640 0.000202
641 0.000200
642 0.000203
643 0.000211
644 0.000217
645 0.000221
646 0.000221
647 0.000226
648 0.000233
649 0.000233
650 0.000229
651 0.000226
652 0.000223
653 0.000221
654 0.000221
655 0.000227
656 0.000230
657 0.000224
658 0.000227
659 0.000230
660 0.000231
661 0.000227
662 0.000225
663 0.000228
664 0.000232
665 0.000237
666 0.000239
667 0.000246
668 0.000245
669 0.000245
670 0.000245
671 0.000237
672 0.000230
673 0.000228
674 0.000228
675 0.000229
676 0.000230
677 0.000234
678 0.000235
679 0.000236
680 0.000239
681 0.000243
682 0.000239
683 0.000237
684 0.000235
685 0.000233
686 0.000233
687 0.000235
688 0.000235
689 0.000240
690 0.000244
691 0.000246
692 0.000249
693 0.000255
694 0.000258
695 0.000260
696 0.000262
697 0.000262
698 0.000264
699 0.000269
700 0.000271
701 0.000271
702 0.000271
703 0.000276
704 0.000283
705 0.000289
706 0.000292
707 0.000292
708 0.000293
709 0.000293
710 0.000292
711 0.000293
712 0.000290
713 0.000285
714 0.000284
715 0.000283
716 0.000280
717 0.000279
718 0.000275
719 0.000269
720 0.000263
721 0.000257
722 0.000252
723 0.000249
724 0.000245
725 0.000249
726 0.000252
727 0.000251
728 0.000251
729 0.000253
730 0.000251
731 0.000246
732 0.000243
733 0.000242
734 0.000235
735 0.000233
736 0.000232
737 0.000229
738 0.000225
739 0.000225
740 0.000225
741 0.000224
742 0.000225
743 0.000218
744 0.000216
745 0.000215
746 0.000219
747 0.000225
748 0.000235
749 0.000241
750 0.000242
751 0.000244
752 0.000246
753 0.000247
754 0.000248
755 0.000250
756 0.000249
757 0.000249
758 0.000255
759 0.000260
760 0.000263
761 0.000266
762 0.000267
763 0.000271
764 0.000280
765 0.000283
766 0.000286
767 0.000283
768 0.000283
769 0.000282
770 0.000278
771 0.000278
772 0.000274
773 0.000271
774 0.000269
775 0.000261
776 0.000255
777 0.000255
778 0.000258
779 0.000259
780 0.000261
781 0.000260
782 0.000258
783 0.000254
784 0.000248
785 0.000246
786 0.000242
787 0.000235
788 0.000229
789 0.000224
790 0.000228
791 0.000232
792 0.000236
793 0.000237
794 0.000240
795 0.000241
796 0.000244
797 0.000249
798 0.000252
799 0.000252
800 0.000254
801 0.000257
802 0.000260
803 0.000264
804 0.000272
805 0.000282
806 0.000289
807 0.000292
808 0.000296
809 0.000302
