# i correlation
1 0.002039
2 0.001965
3 0.001901
4 0.001853
5 0.001805
6 0.001755
7 0.001717
8 0.001681
9 0.001654
10 0.001632
11 0.001608
12 0.001592
13 0.001575
14 0.001561
15 0.001546
16 0.001527
17 0.001518
18 0.001512
19 0.001503
20 0.001503
21 0.001500
22 0.001496
23 0.001494
24 0.001479
25 0.001467
26 0.001452
27 0.001436
28 0.001422
29 0.001412
30 0.001416
31 0.001420
32 0.001417
33 0.001416
34 0.001415
35 0.001414
36 0.001403
37 0.001398
38 0.001393
39 0.001391
40 0.001381
41 0.001365
42 0.001351
43 0.001347
44 0.001337
45 0.001330
46 0.001327
47 0.001320
48 0.001316
49 0.001309
50 0.001304
51 0.001297
52 0.001292
53 0.001288
54 0.001273
55 0.001255
56 0.001236
57 0.001218
58 0.001210
59 0.001204
60 0.001193
61 0.001186
62 0.001178
63 0.001176
64 0.001175
65 0.001188
66 0.001200
67 0.001205
68 0.001207
69 0.001214
70 0.001226
71 0.001241
72 0.001254
73 0.001263
74 0.001269
75 0.001275
76 0.001279
77 0.001280
78 0.001281
79 0.001287
80 0.001292
81 0.001293
82 0.001289
83 0.001272
84 0.001258
85 0.001247
86 0.001244
87 0.001240
88 0.001228
89 0.001227
90 0.001222
91 0.001218
92 0.001207
93 0.001205
94 0.001201
95 0.001192
96 0.001181
97 0.001170
98 0.001175
99 0.001174
100 0.001171
101 0.001166
102 0.001165
103 0.001168
104 0.001171
105 0.001174
106 0.001173
107 0.001172
108 0.001173
109 0.001175
110 0.001185
111 0.001184
112 0.001185
113 0.001180
114 0.001174
115 0.001161
116 0.001146
117 0.001129
118 0.001103
119 0.001080
120 0.001067
121 0.001060
122 0.001048
123 0.001035
124 0.001027
125 0.001026
126 0.001017
127 0.001001
128 0.000989
129 0.000980
130 0.000972
131 0.000960
132 0.000959
133 0.000949
134 0.000941
135 0.000928
136 0.000915
137 0.000907
138 0.000896
139 0.000887
140 0.000882
141 0.000873
142 0.000867
143 0.000868
144 0.000871
145 0.000872
146 0.000874
147 0.000876
148 0.000875
149 0.000871
150 0.000860
151 0.000847
152 0.000839
153 0.000835
154 0.000828
155 0.000813
156 0.000803
157 0.000793
158 0.000787
159 0.000777
160 0.000776
161 0.000783
162 0.000788
163 0.000789
164 0.000793
165 0.000798
166 0.000804
167 0.000813
168 0.000825
169 0.000830
170 0.000828
171 0.000824
172 0.000815
173 0.000801
174 0.000791
175 0.000787
176 0.000788
177 0.000790
178 0.000790
179 0.000803
180 0.000820
181 0.000836
182 0.000842
183 0.000849
184 0.000850
185 0.000852
186 0.000846
187 0.000852
188 0.000853
189 0.000854
190 0.000853
191 0.000859
192 0.000864
193 0.000862
194 0.000853
195 0.000845
196 0.000826
197 0.000813
198 0.000794
199 0.000779
200 0.000767
201 0.000765
202 0.000765
203 0.000770
204 0.000776
205 0.000781
206 0.000785
207 0.000777
208 0.000767
209 0.000749
210 0.000737
211 0.000731
212 0.000732
213 0.000734
214 0.000742
215 0.000751
216 0.000753
217 0.000749
218 0.000758
219 0.000767
220 0.000773
221 0.000770
222 0.000768
223 0.000770
224 0.000768
225 0.000764
226 0.000773
227 0.000776
228 0.000777
229 0.000773
230 0.000766
231 0.000752
232 0.000737
233 0.000732
234 0.000735
235 0.000744
236 0.000752
237 0.000753
238 0.000754
239 0.000749
240 0.000745
241 0.000743
242 0.000732
243 0.000722
244 0.000709
245 0.000690
246 0.000672
247 0.000661
248 0.000649
249 0.000639
250 0.000631
251 0.000627
252 0.000620
253 0.000618
254 0.000623
255 0.000622
256 0.000622
257 0.000630
258 0.000638
259 0.000643
260 0.000650
261 0.000653
262 0.000655
263 0.000657
264 0.000658
265 0.000647
266 0.000644
267 0.000642
268 0.000640
269 0.000635
270 0.000629
271 0.000623
272 0.000628
273 0.000626
274 0.000628
275 0.000626
276 0.000618
277 0.000616
278 0.000620
279 0.000619
280 0.000616
281 0.000611
282 0.000608
283 0.000607
284 0.000609
285 0.000609
286 0.000616
287 0.000622
288 0.000627
289 0.000633
290 0.000634
291 0.000639
292 0.000646
293 0.000660
294 0.000670
295 0.000671
296 0.000665
297 0.000665
298 0.000664
299 0.000665
300 0.000661
301 0.000658
302 0.000656
303 0.000652
304 0.000647
305 0.000644
306 0.000648
307 0.000650
308 0.000659
309 0.000672
310 0.000673
311 0.000671
312 0.000660
313 0.000653
314 0.000644
315 0.000645
316 0.000645
317 0.000648
318 0.000647
319 0.000638
320 0.000632
321 0.000628
322 0.000622
323 0.000615
324 0.000607
325 0.000603
326 0.000597
327 0.000587
328 0.000581
329 0.000585
330 0.000581
331 0.000574
332 0.000575
333 0.000578
334 0.000579
335 0.000575
336 0.000574
337 0.000573
338 0.000577
339 0.000587
340 0.000599
341 0.000611
342 0.000619
343 0.000628
344 0.000633
345 0.000635
346 0.000634
347 0.000632
348 0.000636
349 0.000636
350 0.000633
351 0.000630
352 0.000630
353 0.000628
354 0.000621
355 0.000615
356 0.000609
357 0.000601
358 0.000598
359 0.000592
360 0.000595
361 0.000600
362 0.000606
363 0.000607
364 0.000612
365 0.000609
366 0.000608
367 0.000612
368 0.000618
369 0.000616
370 0.000620
371 0.000623
372 0.000624
373 0.000627
374 0.000629
375 0.000628
376 0.000623
377 0.000606
378 0.000595
379 0.000580
380 0.000571
381 0.000559
382 0.000556
383 0.000555
384 0.000556
385 0.000559
386 0.000561
387 0.000568
388 0.000576
389 0.000573
390 0.000570
391 0.000565
392 0.000560
393 0.000556
394 0.000550
395 0.000547
396 0.000538
397 0.000534
398 0.000528
399 0.000516
400 0.000509
401 0.000502
402 0.000495
403 0.000491
404 0.000484
405 0.000485
406 0.000486
407 0.000496
408 0.000502
409 0.000504
410 0.000507
411 0.000509
412 0.000497
413 0.000483
414 0.000471
415 0.000464
416 0.000460
417 0.000453
418 0.000455
419 0.000457
420 0.000467
421 0.000478
422 0.000477
423 0.000481
424 0.000483
425 0.000488
426 0.000488
427 0.000480
428 0.000479
429 0.000473
430 0.000462
431 0.000459
432 0.000459
433 0.000464
434 0.000466
435 0.000461
436 0.000459
437 0.000453
438 0.000455
439 0.000455
440 0.000461
441 0.000473
442 0.000486
443 0.000492
444 0.000492
445 0.000492
446 0.000494
447 0.000494
448 0.000488
449 0.000488
450 0.000485
451 0.000490
452 0.000488
453 0.000489
454 0.000492
455 0.000498
456 0.000504
457 0.000508
458 0.000508
459 0.000503
460 0.000503
461 0.000501
462 0.000495
463 0.000495
464 0.000494
465 0.000490
466 0.000485
467 0.000483
468 0.000477
469 0.000475
470 0.000472
471 0.000470
472 0.000473
473 0.000477
474 0.000484
475 0.000485
476 0.000489
477 0.000496
478 0.000499
479 0.000499
480 0.000491
481 0.000488
482 0.000479
483 0.000466
484 0.000455
485 0.000442
486 0.000440
487 0.000435
488 0.000429
489 0.000418
490 0.000412
491 0.000404
492 0.000399
493 0.000394
494 0.000390
495 0.000382
496 0.000373
497 0.000365
498 0.000359
499 0.000351
500 0.000347
501 0.000348
502 0.000346
503 0.000341
504 0.000336
505 0.000336
506 0.000329
507 0.000328
508 0.000325
509 0.000320
510 0.000318
511 0.000316
512 0.000314
513 0.000316
514 0.000322
515 0.000328
516 0.000329
517 0.000330
518 0.000327
519 0.000320
520 0.000314
521 0.000311
522 0.000315
523 0.000319
524 0.000327
525 0.000331
526 0.000338
527 0.000347
528 0.000358
529 0.000367
530 0.000368
531 0.000367
532 0.000370
533 0.000378
534 0.000385
535 0.000394
536 0.000401
537 0.000407
538 0.000410
539 0.000405
540 0.000404
541 0.000400
542 0.000389
543 0.000377
544 0.000374
545 0.000376
546 0.000376
547 0.000380
548 0.000381
549 0.000380
550 0.000382
551 0.000387
552 0.000392
553 0.000399
554 0.000405
555 0.000408
556 0.000406
557 0.000407
558 0.000406
559 0.000401
560 0.000393
561 0.000388
562 0.000380
563 0.000378
564 0.000371
565 0.000364
566 0.000357
567 0.000354
568 0.000352
569 0.000347
570 0.000342
571 0.000337
572 0.000335
573 0.000332
574 0.000331
575 0.000329
576 0.000331
577 0.000337
578 0.000337
579 0.000338
580 0.000331
581 0.000328
582 0.000324
583 0.000320
584 0.000317
585 0.000311
586 0.000310
587 0.000313
588 0.000320
589 0.000324
590 0.000327
591 0.000323
592 0.000317
593 0.000306
594 0.000295
595 0.000278
596 0.000262
597 0.000246
598 0.000231
599 0.000222
600 0.000216
601 0.000218
602 0.000219
603 0.000221
604 0.000222
605 0.000221
606 0.000222
607 0.000218
608 0.000217
609 0.000220
610 0.000223
611 0.000224
612 0.000223
613 0.000228
614 0.000231
615 0.000234
616 0.000233
617 0.000233
618 0.000234
619 0.000230
620 0.000222
621 0.000215
622 0.000216
623 0.000221
624 0.000227
625 0.000234
626 0.000242
627 0.000250
628 0.000258
629 0.000266
630 0.000269
631 0.000270
632 0.000269
633 0.000263
634 0.000261
635 0.000258
636 0.000253
637 0.000245
638 0.000239
639 0.000240
640 0.000240
641 0.000234
642 0.000230
643 0.000232
644 0.000238
645 0.000240
646 0.000237
647 0.000237
648 0.000244
649 0.000250
650 0.000255
651 0.000255
652 0.000256
653 0.000250
654 0.000250
655 0.000249
656 0.000250
657 0.000253
658 0.000257
659 0.000257
660 0.000257
661 0.000263
662 0.000276
663 0.000281
664 0.000284
665 0.000288
666 0.000293
667 0.000299
668 0.000302
669 0.000307
670 0.000305
671 0.000301
672 0.000298
673 0.000293
674 0.000282
675 0.000272
676 0.000262
677 0.000257
678 0.000250
679 0.000248
680 0.000244
681 0.000241
682 0.000243
683 0.000243
684 0.000241
685 0.000235
686 0.000223
687 0.000219
688 0.000213
689 0.000208
690 0.000200
691 0.000189
692 0.000181
693 0.000178
694 0.000177
695 0.000179
696 0.000183
697 0.000187
698 0.000192
699 0.000193
700 0.000197
701 0.000198
702 0.000200
703 0.000198
704 0.000201
705 0.000202
706 0.000202
707 0.000197
708 0.000197
709 0.000197
710 0.000197
711 0.000197
712 0.000194
713 0.000194
714 0.000194
715 0.000199
716 0.000203
717 0.000204
718 0.000206
719 0.000206
720 0.000208
721 0.000207
722 0.000206
723 0.000204
724 0.000199
725 0.000191
726 0.000183
727 0.000180
728 0.000177
729 0.000173
730 0.000171
731 0.000168
732 0.000169
733 0.000169
734 0.000171
735 0.000177
736 0.000180
737 0.000182
738 0.000182
739 0.000182
740 0.000182
741 0.000185
742 0.000188
743 0.000192
744 0.000193
745 0.000194
746 0.000193
747 0.000191
748 0.000192
749 0.000195
750 0.000199
751 0.000200
752 0.000199
753 0.000199
754 0.000201
755 0.000203
756 0.000205
757 0.000205
758 0.000208
759 0.000211
760 0.000214
761 0.000216
762 0.000215
763 0.000213
764 0.000213
765 0.000211
766 0.000209
767 0.000203
768 0.000202
769 0.000201
770 0.000196
771 0.000195
772 0.000191
773 0.000190
774 0.000185
775 0.000184
776 0.000180
777 0.000176
778 0.000171
779 0.000166
780 0.000163
781 0.000162
782 0.000159
783 0.000157
784 0.000151
785 0.000144
786 0.000134
787 0.000125
788 0.000119
789 0.000114
790 0.000106
791 0.000097
792 0.000090
793 0.000089
794 0.000094
795 0.000097
796 0.000100
797 0.000101
798 0.000104
799 0.000107
800 0.000103
801 0.000099
802 0.000097
803 0.000093
804 0.000088
805 0.000080
806 0.000075
807 0.000069
808 0.000063
809 0.000059
