# i correlation
1 0.001869
2 0.001789
3 0.001724
4 0.001673
5 0.001631
6 0.001588
7 0.001555
8 0.001521
9 0.001494
10 0.001462
11 0.001437
12 0.001406
13 0.001392
14 0.001381
15 0.001368
16 0.001338
17 0.001322
18 0.001306
19 0.001292
20 0.001277
21 0.001254
22 0.001231
23 0.001200
24 0.001171
25 0.001148
26 0.001129
27 0.001113
28 0.001110
29 0.001106
30 0.001095
31 0.001074
32 0.001053
33 0.001035
34 0.001025
35 0.001018
36 0.001014
37 0.001007
38 0.000998
39 0.000987
40 0.000990
41 0.000990
42 0.000984
43 0.000984
44 0.000989
45 0.001000
46 0.000996
47 0.000991
48 0.000984
49 0.000987
50 0.000990
51 0.001000
52 0.001007
53 0.001007
54 0.001012
55 0.001016
56 0.001015
57 0.001015
58 0.001014
59 0.001008
60 0.001013
61 0.001008
62 0.001001
63 0.000991
64 0.000982
65 0.000971
66 0.000965
67 0.000967
68 0.000963
69 0.000962
70 0.000950
71 0.000942
72 0.000931
73 0.000918
74 0.000908
75 0.000904
76 0.000902
77 0.000898
78 0.000889
79 0.000878
80 0.000868
81 0.000857
82 0.000845
83 0.000834
84 0.000834
85 0.000838
86 0.000845
87 0.000847
88 0.000850
89 0.000862
90 0.000871
91 0.000882
92 0.000891
93 0.000895
94 0.000896
95 0.000893
96 0.000889
97 0.000885
98 0.000887
99 0.000887
100 0.000880
101 0.000875
102 0.000871
103 0.000864
104 0.000861
105 0.000867
106 0.000876
107 0.000886
108 0.000900
109 0.000908
110 0.000907
111 0.000909
112 0.000906
113 0.000904
114 0.000906
115 0.000907
116 0.000906
117 0.000903
118 0.000899
119 0.000903
120 0.000910
121 0.000905
122 0.000902
123 0.000889
124 0.000876
125 0.000854
126 0.000838
127 0.000831
128 0.000818
129 0.000810
130 0.000796
131 0.000789
132 0.000773
133 0.000756
134 0.000751
135 0.000746
136 0.000746
137 0.000750
138 0.000760
139 0.000765
140 0.000764
141 0.000760
142 0.000755
143 0.000744
144 0.000732
145 0.000717
146 0.000700
147 0.000686
148 0.000677
149 0.000682
150 0.000681
151 0.000674
152 0.000664
153 0.000663
154 0.000662
155 0.000660
156 0.000661
157 0.000664
158 0.000674
159 0.000681
160 0.000691
161 0.000696
162 0.000709
163 0.000709
164 0.000705
165 0.000698
166 0.000695
167 0.000698
168 0.000709
169 0.000718
170 0.000710
171 0.000711
172 0.000702
173 0.000698
174 0.000692
175 0.000679
176 0.000671
177 0.000670
178 0.000669
179 0.000671
180 0.000674
181 0.000685
182 0.000695
183 0.000697
184 0.000701
185 0.000696
186 0.000701
187 0.000704
188 0.000712
189 0.000706
190 0.000700
191 0.000700
192 0.000685
193 0.000677
194 0.000674
195 0.000678
196 0.000683
197 0.000678
198 0.000676
199 0.000676
200 0.000675
201 0.000665
202 0.000647
203 0.000640
204 0.000626
205 0.000618
206 0.000611
207 0.000608
208 0.000611
209 0.000615
210 0.000612
211 0.000608
212 0.000596
213 0.000596
214 0.000595
215 0.000593
216 0.000595
217 0.000596
218 0.000596
219 0.000598
220 0.000601
221 0.000601
222 0.000602
223 0.000598
224 0.000591
225 0.000587
226 0.000587
227 0.000588
228 0.000589
229 0.000592
230 0.000597
231 0.000601
232 0.000595
233 0.000591
234 0.000591
235 0.000600
236 0.000601
237 0.000599
238 0.000593
239 0.000579
240 0.000578
241 0.000574
242 0.000565
243 0.000562
244 0.000561
245 0.000559
246 0.000561
247 0.000556
248 0.000556
249 0.000563
250 0.000576
251 0.000586
252 0.000594
253 0.000595
254 0.000597
255 0.000596
256 0.000587
257 0.000581
258 0.000579
259 0.000573
260 0.000568
261 0.000554
262 0.000536
263 0.000532
264 0.000520
265 0.000508
266 0.000500
267 0.000492
268 0.000480
269 0.000462
270 0.000445
271 0.000443
272 0.000441
273 0.000434
274 0.000427
275 0.000421
276 0.000416
277 0.000415
278 0.000416
279 0.000420
280 0.000432
281 0.000448
282 0.000468
283 0.000464
284 0.000455
285 0.000449
286 0.000443
287 0.000433
288 0.000429
289 0.000434
290 0.000431
291 0.000425
292 0.000424
293 0.000419
294 0.000411
295 0.000410
296 0.000403
297 0.000393
298 0.000387
299 0.000383
300 0.000385
301 0.000387
302 0.000388
303 0.000393
304 0.000408
305 0.000417
306 0.000417
307 0.000422
308 0.000430
309 0.000437
310 0.000441
311 0.000447
312 0.000449
313 0.000446
314 0.000436
315 0.000432
316 0.000426
317 0.000419
318 0.000423
319 0.000423
320 0.000416
321 0.000404
322 0.000398
323 0.000400
324 0.000399
325 0.000393
326 0.000393
327 0.000392
328 0.000386
329 0.000380
330 0.000372
331 0.000355
332 0.000332
333 0.000316
334 0.000296
335 0.000285
336 0.000273
337 0.000273
338 0.000271
339 0.000267
340 0.000268
341 0.000259
342 0.000256
343 0.000253
344 0.000258
345 0.000259
346 0.000262
347 0.000253
348 0.000250
349 0.000250
350 0.000251
351 0.000251
352 0.000255
353 0.000251
354 0.000238
355 0.000224
356 0.000221
357 0.000227
358 0.000230
359 0.000233
360 0.000232
361 0.000227
362 0.000222
363 0.000215
364 0.000209
365 0.000212
366 0.000216
367 0.000224
368 0.000224
369 0.000224
370 0.000236
371 0.000252
372 0.000264
373 0.000272
374 0.000278
375 0.000277
376 0.000266
377 0.000254
378 0.000249
379 0.000241
380 0.000244
381 0.000246
382 0.000247
383 0.000233
384 0.000225
385 0.000217
386 0.000205
387 0.000200
388 0.000195
389 0.000196
390 0.000191
391 0.000188
392 0.000181
393 0.000174
394 0.000172
395 0.000178
396 0.000179
397 0.000180
398 0.000176
399 0.000177
400 0.000176
401 0.000172
402 0.000172
403 0.000180
404 0.000191
405 0.000189
406 0.000182
407 0.000174
408 0.000173
409 0.000177
410 0.000179
411 0.000177
412 0.000177
413 0.000179
414 0.000180
415 0.000180
416 0.000180
417 0.000189
418 0.000197
419 0.000201
420 0.000205
421 0.000204
422 0.000207
423 0.000209
424 0.000216
425 0.000221
426 0.000220
427 0.000221
428 0.000218
429 0.000214
430 0.000206
431 0.000210
432 0.000211
433 0.000213
434 0.000219
435 0.000228
436 0.000230
437 0.000223
438 0.000219
439 0.000215
440 0.000211
441 0.000207
442 0.000209
443 0.000211
444 0.000208
445 0.000209
446 0.000207
447 0.000202
448 0.000201
449 0.000202
450 0.000208
451 0.000214
452 0.000212
453 0.000206
454 0.000202
455 0.000193
456 0.000177
457 0.000168
458 0.000154
459 0.000144
460 0.000137
461 0.000126
462 0.000120
463 0.000125
464 0.000130
465 0.000135
466 0.000138
467 0.000137
468 0.000144
469 0.000146
470 0.000143
471 0.000143
472 0.000144
473 0.000148
474 0.000147
475 0.000134
476 0.000128
477 0.000123
478 0.000121
479 0.000123
480 0.000125
481 0.000127
482 0.000126
483 0.000121
484 0.000113
485 0.000110
486 0.000110
487 0.000114
488 0.000121
489 0.000124
490 0.000130
491 0.000136
492 0.000137
493 0.000137
494 0.000131
495 0.000128
496 0.000122
497 0.000114
498 0.000114
499 0.000113
500 0.000112
501 0.000110
502 0.000109
503 0.000109
504 0.000115
505 0.000119
506 0.000118
507 0.000116
508 0.000118
509 0.000131
510 0.000135
511 0.000141
512 0.000147
513 0.000146
514 0.000144
515 0.000141
516 0.000135
517 0.000126
518 0.000121
519 0.000123
520 0.000122
521 0.000117
522 0.000110
523 0.000104
524 0.000101
525 0.000096
526 0.000096
527 0.000097
528 0.000106
529 0.000112
530 0.000116
531 0.000118
532 0.000121
533 0.000127
534 0.000142
535 0.000152
536 0.000160
537 0.000160
538 0.000164
539 0.000173
540 0.000181
541 0.000187
542 0.000190
543 0.000198
544 0.000206
545 0.000218
546 0.000222
547 0.000228
548 0.000229
549 0.000235
550 0.000233
551 0.000225
552 0.000213
553 0.000212
554 0.000214
555 0.000216
556 0.000219
557 0.000222
558 0.000233
559 0.000242
560 0.000250
561 0.000254
562 0.000262
563 0.000269
564 0.000274
565 0.000279
566 0.000285
567 0.000289
568 0.000286
569 0.000280
570 0.000273
571 0.000267
572 0.000261
573 0.000257
574 0.000253
575 0.000249
576 0.000241
577 0.000236
578 0.000225
579 0.000220
580 0.000215
581 0.000210
582 0.000201
583 0.000191
584 0.000184
585 0.000173
586 0.000169
587 0.000167
588 0.000160
589 0.000153
590 0.000153
591 0.000150
592 0.000147
593 0.000140
594 0.000140
595 0.000138
596 0.000134
597 0.000130
598 0.000126
599 0.000124
600 0.000119
601 0.000116
602 0.000113
603 0.000113
604 0.000110
605 0.000117
606 0.000120
607 0.000127
608 0.000136
609 0.000137
610 0.000137
611 0.000139
612 0.000147
613 0.000150
614 0.000148
615 0.000146
616 0.000141
617 0.000136
618 0.000129
619 0.000128
620 0.000131
621 0.000127
622 0.000129
623 0.000130
624 0.000131
625 0.000132
626 0.000134
627 0.000131
628 0.000129
629 0.000128
630 0.000128
631 0.000129
632 0.000133
633 0.000135
634 0.000140
635 0.000146
636 0.000150
637 0.000150
638 0.000150
639 0.000149
640 0.000145
641 0.000143
642 0.000141
643 0.000139
644 0.000133
645 0.000122
646 0.000112
647 0.000104
648 0.000101
649 0.000099
650 0.000099
651 0.000100
652 0.000098
653 0.000100
654 0.000102
655 0.000108
656 0.000115
657 0.000116
658 0.000115
659 0.000111
660 0.000104
661 0.000101
662 0.000098
663 0.000093
664 0.000087
665 0.000080
666 0.000079
667 0.000080
668 0.000081
669 0.000082
670 0.000079
671 0.000075
672 0.000072
673 0.000066
674 0.000067
675 0.000067
676 0.000071
677 0.000077
678 0.000080
679 0.000081
680 0.000079
681 0.000083
682 0.000085
683 0.000091
684 0.000094
685 0.000098
686 0.000106
687 0.000107
688 0.000103
689 0.000104
690 0.000100
691 0.000098
692 0.000098
693 0.000096
694 0.000090
695 0.000087
696 0.000089
697 0.000091
698 0.000094
699 0.000098
700 0.000107
701 0.000111
702 0.000110
703 0.000110
704 0.000109
705 0.000104
706 0.000097
707 0.000089
708 0.000078
709 0.000075
710 0.000073
711 0.000069
712 0.000066
713 0.000061
714 0.000056
715 0.000056
716 0.000056
717 0.000060
718 0.000066
719 0.000068
720 0.000069
721 0.000063
722 0.000059
723 0.000057
724 0.000058
725 0.000057
726 0.000058
727 0.000060
728 0.000064
729 0.000072
730 0.000077
731 0.000087
732 0.000094
733 0.000100
734 0.000109
735 0.000116
736 0.000120
737 0.000123
738 0.000118
739 0.000116
740 0.000113
741 0.000111
742 0.000106
743 0.000102
744 0.000100
745 0.000103
746 0.000109
747 0.000108
748 0.000107
749 0.000107
750 0.000105
751 0.000102
752 0.000099
753 0.000099
754 0.000102
755 0.000108
756 0.000110
757 0.000108
758 0.000105
759 0.000093
760 0.000086
761 0.000083
762 0.000078
763 0.000075
764 0.000069
765 0.000063
766 0.000053
767 0.000045
768 0.000037
769 0.000029
770 0.000028
771 0.000024
772 0.000017
773 0.000010
774 0.000002
775 -0.000003
776 -0.000008
777 -0.000010
778 -0.000016
779 -0.000026
780 -0.000031
781 -0.000034
782 -0.000037
783 -0.000044
784 -0.000050
785 -0.000053
786 -0.000052
787 -0.000053
788 -0.000056
789 -0.000059
790 -0.000057
791 -0.000050
792 -0.000044
793 -0.000040
794 -0.000035
795 -0.000031
796 -0.000027
797 -0.000021
798 -0.000017
799 -0.000016
800 -0.000015
801 -0.000011
802 -0.000009
803 -0.000005
804 -0.000004
805 -0.000003
806 0.000004
807 0.000012
808 0.000017
809 0.000021
