# i correlation
1 0.001616
2 0.001537
3 0.001473
4 0.001419
5 0.001375
6 0.001340
7 0.001306
8 0.001279
9 0.001255
10 0.001247
11 0.001235
12 0.001228
13 0.001217
14 0.001208
15 0.001193
16 0.001181
17 0.001165
18 0.001150
19 0.001134
20 0.001118
21 0.001100
22 0.001089
23 0.001086
24 0.001084
25 0.001080
26 0.001069
27 0.001066
28 0.001055
29 0.001056
30 0.001054
31 0.001047
32 0.001046
33 0.001040
34 0.001028
35 0.001012
36 0.001005
37 0.000999
38 0.000992
39 0.000980
40 0.000966
41 0.000946
42 0.000923
43 0.000908
44 0.000905
45 0.000901
46 0.000895
47 0.000890
48 0.000877
49 0.000873
50 0.000865
51 0.000848
52 0.000835
53 0.000832
54 0.000836
55 0.000832
56 0.000826
57 0.000828
58 0.000825
59 0.000829
60 0.000836
61 0.000840
62 0.000839
63 0.000832
64 0.000823
65 0.000813
66 0.000808
67 0.000799
68 0.000792
69 0.000792
70 0.000794
71 0.000795
72 0.000792
73 0.000797
74 0.000802
75 0.000800
76 0.000791
77 0.000783
78 0.000772
79 0.000759
80 0.000757
81 0.000746
82 0.000740
83 0.000733
84 0.000725
85 0.000721
86 0.000722
87 0.000724
88 0.000724
89 0.000733
90 0.000744
91 0.000753
92 0.000752
93 0.000753
94 0.000750
95 0.000743
96 0.000739
97 0.000730
98 0.000728
99 0.000739
100 0.000752
101 0.000756
102 0.000754
103 0.000750
104 0.000747
105 0.000740
106 0.000733
107 0.000726
108 0.000706
109 0.000688
110 0.000670
111 0.000664
112 0.000663
113 0.000670
114 0.000666
115 0.000665
116 0.000670
117 0.000672
118 0.000667
119 0.000674
120 0.000671
121 0.000663
122 0.000656
123 0.000661
124 0.000666
125 0.000664
126 0.000660
127 0.000653
128 0.000651
129 0.000650
130 0.000653
131 0.000657
132 0.000653
133 0.000650
134 0.000642
135 0.000636
136 0.000628
137 0.000618
138 0.000604
139 0.000593
140 0.000587
141 0.000581
142 0.000570
143 0.000566
144 0.000563
145 0.000562
146 0.000549
147 0.000545
148 0.000540
149 0.000544
150 0.000551
151 0.000559
152 0.000554
153 0.000550
154 0.000536
155 0.000528
156 0.000517
157 0.000515
158 0.000504
159 0.000497
160 0.000496
161 0.000490
162 0.000492
163 0.000496
164 0.000492
165 0.000483
166 0.000480
167 0.000474
168 0.000473
169 0.000473
170 0.000472
171 0.000467
172 0.000459
173 0.000454
174 0.000456
175 0.000455
176 0.000458
177 0.000456
178 0.000455
179 0.000447
180 0.000444
181 0.000441
182 0.000434
183 0.000427
184 0.000425
185 0.000422
186 0.000425
187 0.000431
188 0.000432
189 0.000430
190 0.000430
191 0.000432
192 0.000430
193 0.000432
194 0.000438
195 0.000429
196 0.000427
197 0.000424
198 0.000418
199 0.000416
200 0.000402
201 0.000389
202 0.000370
203 0.000352
204 0.000345
205 0.000340
206 0.000343
207 0.000342
208 0.000349
209 0.000347
210 0.000345
211 0.000353
212 0.000358
213 0.000367
214 0.000372
215 0.000373
216 0.000375
217 0.000377
218 0.000381
219 0.000384
220 0.000384
221 0.000383
222 0.000390
223 0.000400
224 0.000414
225 0.000431
226 0.000446
227 0.000455
228 0.000458
229 0.000452
230 0.000455
231 0.000460
232 0.000461
233 0.000458
234 0.000458
235 0.000461
236 0.000457
237 0.000455
238 0.000460
239 0.000455
240 0.000455
241 0.000451
242 0.000446
243 0.000445
244 0.000454
245 0.000455
246 0.000455
247 0.000452
248 0.000439
249 0.000426
250 0.000417
251 0.000417
252 0.000417
253 0.000415
254 0.000409
255 0.000407
256 0.000420
257 0.000437
258 0.000456
259 0.000464
260 0.000469
261 0.000468
262 0.000468
263 0.000470
264 0.000475
265 0.000475
266 0.000472
267 0.000467
268 0.000468
269 0.000473
270 0.000473
271 0.000470
272 0.000465
273 0.000456
274 0.000454
275 0.000449
276 0.000445
277 0.000437
278 0.000420
279 0.000415
280 0.000408
281 0.000400
282 0.000390
283 0.000387
284 0.000379
285 0.000375
286 0.000376
287 0.000378
288 0.000379
289 0.000378
290 0.000383
291 0.000396
292 0.000406
293 0.000418
294 0.000425
295 0.000427
296 0.000427
297 0.000424
298 0.000423
299 0.000419
300 0.000418
301 0.000421
302 0.000421
303 0.000410
304 0.000402
305 0.000400
306 0.000401
307 0.000398
308 0.000391
309 0.000386
310 0.000381
311 0.000372
312 0.000368
313 0.000371
314 0.000365
315 0.000364
316 0.000364
317 0.000362
318 0.000366
319 0.000366
320 0.000362
321 0.000360
322 0.000346
323 0.000334
324 0.000327
325 0.000325
326 0.000330
327 0.000335
328 0.000336
329 0.000341
330 0.000350
331 0.000356
332 0.000356
333 0.000349
334 0.000346
335 0.000339
336 0.000330
337 0.000324
338 0.000316
339 0.000310
340 0.000312
341 0.000311
342 0.000306
343 0.000298
344 0.000294
345 0.000285
346 0.000280
347 0.000279
348 0.000264
349 0.000254
350 0.000250
351 0.000247
352 0.000242
353 0.000231
354 0.000228
355 0.000232
356 0.000230
357 0.000229
358 0.000230
359 0.000236
360 0.000240
361 0.000247
362 0.000252
363 0.000254
364 0.000255
365 0.000256
366 0.000259
367 0.000262
368 0.000256
369 0.000256
370 0.000260
371 0.000254
372 0.000247
373 0.000240
374 0.000235
375 0.000239
376 0.000245
377 0.000245
378 0.000236
379 0.000226
380 0.000214
381 0.000202
382 0.000203
383 0.000197
384 0.000188
385 0.000179
386 0.000173
387 0.000178
388 0.000187
389 0.000194
390 0.000202
391 0.000215
392 0.000227
393 0.000239
394 0.000246
395 0.000241
396 0.000233
397 0.000217
398 0.000203
399 0.000204
400 0.000210
401 0.000218
402 0.000226
403 0.000237
404 0.000240
405 0.000240
406 0.000245
407 0.000254
408 0.000249
409 0.000252
410 0.000256
411 0.000251
412 0.000242
413 0.000237
414 0.000233
415 0.000236
416 0.000241
417 0.000248
418 0.000241
419 0.000235
420 0.000242
421 0.000252
422 0.000257
423 0.000258
424 0.000258
425 0.000258
426 0.000264
427 0.000265
428 0.000266
429 0.000269
430 0.000266
431 0.000268
432 0.000275
433 0.000276
434 0.000269
435 0.000262
436 0.000265
437 0.000266
438 0.000270
439 0.000273
440 0.000275
441 0.000273
442 0.000273
443 0.000277
444 0.000275
445 0.000272
446 0.000269
447 0.000259
448 0.000253
449 0.000244
450 0.000240
451 0.000238
452 0.000235
453 0.000240
454 0.000245
455 0.000243
456 0.000251
457 0.000258
458 0.000260
459 0.000252
460 0.000253
461 0.000254
462 0.000260
463 0.000262
464 0.000266
465 0.000271
466 0.000274
467 0.000274
468 0.000270
469 0.000262
470 0.000260
471 0.000255
472 0.000250
473 0.000240
474 0.000234
475 0.000237
476 0.000238
477 0.000236
478 0.000236
479 0.000232
480 0.000230
481 0.000230
482 0.000237
483 0.000246
484 0.000251
485 0.000254
486 0.000253
487 0.000253
488 0.000245
489 0.000243
490 0.000249
491 0.000255
492 0.000267
493 0.000278
494 0.000292
495 0.000306
496 0.000308
497 0.000310
498 0.000307
499 0.000299
500 0.000294
501 0.000286
502 0.000279
503 0.000271
504 0.000264
505 0.000258
506 0.000260
507 0.000268
508 0.000263
509 0.000258
510 0.000258
511 0.000254
512 0.000251
513 0.000247
514 0.000247
515 0.000248
516 0.000248
517 0.000254
518 0.000258
519 0.000259
520 0.000266
521 0.000269
522 0.000271
523 0.000272
524 0.000271
525 0.000265
526 0.000263
527 0.000262
528 0.000263
529 0.000267
530 0.000267
531 0.000266
532 0.000265
533 0.000268
534 0.000266
535 0.000264
536 0.000258
537 0.000254
538 0.000247
539 0.000251
540 0.000248
541 0.000245
542 0.000243
543 0.000240
544 0.000243
545 0.000244
546 0.000242
547 0.000234
548 0.000227
549 0.000221
550 0.000210
551 0.000205
552 0.000207
553 0.000213
554 0.000219
555 0.000224
556 0.000226
557 0.000231
558 0.000234
559 0.000228
560 0.000225
561 0.000224
562 0.000222
563 0.000219
564 0.000214
565 0.000204
566 0.000198
567 0.000197
568 0.000193
569 0.000196
570 0.000195
571 0.000195
572 0.000192
573 0.000193
574 0.000194
575 0.000192
576 0.000186
577 0.000182
578 0.000178
579 0.000175
580 0.000172
581 0.000178
582 0.000180
583 0.000182
584 0.000187
585 0.000191
586 0.000197
587 0.000212
588 0.000226
589 0.000235
590 0.000241
591 0.000247
592 0.000249
593 0.000256
594 0.000260
595 0.000261
596 0.000260
597 0.000259
598 0.000259
599 0.000262
600 0.000265
601 0.000271
602 0.000272
603 0.000267
604 0.000263
605 0.000255
606 0.000246
607 0.000244
608 0.000241
609 0.000234
610 0.000227
611 0.000225
612 0.000219
613 0.000211
614 0.000207
615 0.000202
616 0.000196
617 0.000187
618 0.000182
619 0.000179
620 0.000180
621 0.000179
622 0.000175
623 0.000170
624 0.000166
625 0.000158
626 0.000158
627 0.000152
628 0.000155
629 0.000150
630 0.000143
631 0.000137
632 0.000131
633 0.000125
634 0.000129
635 0.000135
636 0.000131
637 0.000127
638 0.000124
639 0.000115
640 0.000104
641 0.000093
642 0.000082
643 0.000068
644 0.000058
645 0.000055
646 0.000053
647 0.000055
648 0.000054
649 0.000051
650 0.000045
651 0.000044
652 0.000046
653 0.000047
654 0.000044
655 0.000038
656 0.000028
657 0.000022
658 0.000018
659 0.000017
660 0.000011
661 0.000019
662 0.000021
663 0.000023
664 0.000025
665 0.000032
666 0.000037
667 0.000043
668 0.000052
669 0.000059
670 0.000063
671 0.000069
672 0.000067
673 0.000073
674 0.000076
675 0.000080
676 0.000082
677 0.000082
678 0.000082
679 0.000081
680 0.000080
681 0.000081
682 0.000083
683 0.000086
684 0.000088
685 0.000088
686 0.000089
687 0.000084
688 0.000085
689 0.000083
690 0.000082
691 0.000080
692 0.000080
693 0.000079
694 0.000077
695 0.000075
696 0.000072
697 0.000070
698 0.000071
699 0.000072
700 0.000075
701 0.000084
702 0.000089
703 0.000090
704 0.000090
705 0.000088
706 0.000094
707 0.000096
708 0.000103
709 0.000107
710 0.000110
711 0.000112
712 0.000114
713 0.000114
714 0.000117
715 0.000119
716 0.000120
717 0.000117
718 0.000113
719 0.000114
720 0.000117
721 0.000120
722 0.000127
723 0.000133
724 0.000137
725 0.000141
726 0.000139
727 0.000137
728 0.000136
729 0.000138
730 0.000141
731 0.000144
732 0.000146
733 0.000148
734 0.000151
735 0.000153
736 0.000150
737 0.000149
738 0.000154
739 0.000157
740 0.000152
741 0.000151
742 0.000147
743 0.000141
744 0.000136
745 0.000132
746 0.000124
747 0.000120
748 0.000116
749 0.000108
750 0.000100
751 0.000095
752 0.000091
753 0.000086
754 0.000087
755 0.000087
756 0.000082
757 0.000081
758 0.000081
759 0.000083
760 0.000081
761 0.000085
762 0.000087
763 0.000089
764 0.000086
765 0.000085
766 0.000082
767 0.000079
768 0.000079
769 0.000079
770 0.000082
771 0.000083
772 0.000083
773 0.000083
774 0.000077
775 0.000078
776 0.000074
777 0.000073
778 0.000072
779 0.000071
780 0.000068
781 0.000064
782 0.000062
783 0.000060
784 0.000059
785 0.000058
786 0.000058
787 0.000059
788 0.000062
789 0.000061
790 0.000060
791 0.000055
792 0.000053
793 0.000050
794 0.000048
795 0.000048
796 0.000046
797 0.000040
798 0.000037
799 0.000037
800 0.000040
801 0.000042
802 0.000045
803 0.000046
804 0.000045
805 0.000044
806 0.000041
807 0.000038
808 0.000041
809 0.000045
