# i correlation
1 0.002849
2 0.002661
3 0.002482
4 0.002321
5 0.002192
6 0.002089
7 0.002009
8 0.001943
9 0.001894
10 0.001860
11 0.001827
12 0.001808
13 0.001776
14 0.001734
15 0.001703
16 0.001663
17 0.001618
18 0.001583
19 0.001545
20 0.001495
21 0.001431
22 0.001398
23 0.001360
24 0.001351
25 0.001338
26 0.001321
27 0.001316
28 0.001320
29 0.001327
30 0.001316
31 0.001289
32 0.001269
33 0.001239
34 0.001220
35 0.001220
36 0.001211
37 0.001210
38 0.001221
39 0.001244
40 0.001276
41 0.001291
42 0.001292
43 0.001287
44 0.001280
45 0.001273
46 0.001254
47 0.001246
48 0.001237
49 0.001222
50 0.001210
51 0.001196
52 0.001208
53 0.001236
54 0.001246
55 0.001251
56 0.001229
57 0.001218
58 0.001212
59 0.001205
60 0.001189
61 0.001186
62 0.001181
63 0.001182
64 0.001160
65 0.001142
66 0.001116
67 0.001099
68 0.001080
69 0.001067
70 0.001047
71 0.001030
72 0.001018
73 0.001011
74 0.000988
75 0.000982
76 0.000987
77 0.001015
78 0.001019
79 0.001032
80 0.001045
81 0.001043
82 0.001057
83 0.001073
84 0.001097
85 0.001115
86 0.001115
87 0.001112
88 0.001123
89 0.001125
90 0.001105
91 0.001105
92 0.001116
93 0.001120
94 0.001121
95 0.001096
96 0.001073
97 0.001051
98 0.001021
99 0.001006
100 0.000973
101 0.000958
102 0.000938
103 0.000917
104 0.000895
105 0.000894
106 0.000912
107 0.000918
108 0.000944
109 0.000953
110 0.000946
111 0.000948
112 0.000962
113 0.000964
114 0.000979
115 0.001014
116 0.001027
117 0.001043
118 0.001063
119 0.001060
120 0.001049
121 0.001041
122 0.001011
123 0.001002
124 0.001011
125 0.001018
126 0.001036
127 0.001052
128 0.001069
129 0.001067
130 0.001071
131 0.001067
132 0.001066
133 0.001078
134 0.001105
135 0.001113
136 0.001113
137 0.001099
138 0.001092
139 0.001072
140 0.001056
141 0.001044
142 0.001029
143 0.001020
144 0.000997
145 0.000990
146 0.000999
147 0.001007
148 0.000998
149 0.000987
150 0.000977
151 0.000970
152 0.000973
153 0.000953
154 0.000945
155 0.000942
156 0.000938
157 0.000942
158 0.000948
159 0.000955
160 0.000949
161 0.000929
162 0.000898
163 0.000877
164 0.000862
165 0.000854
166 0.000836
167 0.000817
168 0.000810
169 0.000810
170 0.000806
171 0.000809
172 0.000791
173 0.000777
174 0.000768
175 0.000741
176 0.000723
177 0.000692
178 0.000675
179 0.000669
180 0.000655
181 0.000628
182 0.000596
183 0.000593
184 0.000576
185 0.000556
186 0.000553
187 0.000556
188 0.000565
189 0.000555
190 0.000550
191 0.000540
192 0.000521
193 0.000507
194 0.000498
195 0.000477
196 0.000459
197 0.000462
198 0.000485
199 0.000511
200 0.000545
201 0.000573
202 0.000595
203 0.000619
204 0.000645
205 0.000674
206 0.000686
207 0.000685
208 0.000681
209 0.000689
210 0.000687
211 0.000679
212 0.000674
213 0.000674
214 0.000681
215 0.000679
216 0.000672
217 0.000662
218 0.000662
219 0.000667
220 0.000684
221 0.000696
222 0.000716
223 0.000743
224 0.000748
225 0.000731
226 0.000735
227 0.000743
228 0.000725
229 0.000717
230 0.000703
231 0.000691
232 0.000677
233 0.000676
234 0.000691
235 0.000703
236 0.000712
237 0.000712
238 0.000694
239 0.000677
240 0.000670
241 0.000672
242 0.000673
243 0.000676
244 0.000686
245 0.000699
246 0.000711
247 0.000710
248 0.000705
249 0.000709
