# i correlation
1 0.002677
2 0.002499
3 0.002363
4 0.002242
5 0.002116
6 0.002020
7 0.001943
8 0.001876
9 0.001819
10 0.001754
11 0.001683
12 0.001643
13 0.001571
14 0.001512
15 0.001428
16 0.001352
17 0.001302
18 0.001291
19 0.001275
20 0.001279
21 0.001279
22 0.001259
23 0.001243
24 0.001233
25 0.001214
26 0.001212
27 0.001209
28 0.001197
29 0.001195
30 0.001188
31 0.001185
32 0.001183
33 0.001176
34 0.001175
35 0.001155
36 0.001145
37 0.001115
38 0.001097
39 0.001089
40 0.001081
41 0.001079
42 0.001082
43 0.001076
44 0.001076
45 0.001099
46 0.001111
47 0.001122
48 0.001157
49 0.001177
50 0.001210
51 0.001248
52 0.001282
53 0.001291
54 0.001306
55 0.001295
56 0.001279
57 0.001267
58 0.001237
59 0.001219
60 0.001194
61 0.001169
62 0.001154
63 0.001142
64 0.001112
65 0.001084
66 0.001063
67 0.001031
68 0.001008
69 0.000995
70 0.000957
71 0.000929
72 0.000902
73 0.000883
74 0.000868
75 0.000848
76 0.000819
77 0.000813
78 0.000808
79 0.000800
80 0.000798
81 0.000808
82 0.000805
83 0.000794
84 0.000779
85 0.000759
86 0.000748
87 0.000732
88 0.000715
89 0.000690
90 0.000681
91 0.000660
92 0.000645
93 0.000637
94 0.000625
95 0.000632
96 0.000626
97 0.000613
98 0.000621
99 0.000619
100 0.000629
101 0.000657
102 0.000692
103 0.000713
104 0.000739
105 0.000772
106 0.000781
107 0.000802
108 0.000830
109 0.000840
110 0.000837
111 0.000851
112 0.000860
113 0.000866
114 0.000873
115 0.000877
116 0.000880
117 0.000884
118 0.000878
119 0.000888
120 0.000892
121 0.000877
122 0.000850
123 0.000823
124 0.000776
125 0.000736
126 0.000715
127 0.000701
128 0.000709
129 0.000705
130 0.000680
131 0.000670
132 0.000671
133 0.000672
134 0.000672
135 0.000672
136 0.000657
137 0.000660
138 0.000657
139 0.000639
140 0.000636
141 0.000646
142 0.000633
143 0.000638
144 0.000621
145 0.000592
146 0.000577
147 0.000579
148 0.000551
149 0.000522
150 0.000511
151 0.000506
152 0.000511
153 0.000528
154 0.000535
155 0.000552
156 0.000562
157 0.000577
158 0.000582
159 0.000598
160 0.000611
161 0.000635
162 0.000648
163 0.000649
164 0.000655
165 0.000669
166 0.000656
167 0.000658
168 0.000665
169 0.000671
170 0.000691
171 0.000708
172 0.000710
173 0.000724
174 0.000734
175 0.000724
176 0.000712
177 0.000701
178 0.000677
179 0.000652
180 0.000638
181 0.000621
182 0.000599
183 0.000592
184 0.000573
185 0.000569
186 0.000555
187 0.000534
188 0.000523
189 0.000526
190 0.000544
191 0.000571
192 0.000581
193 0.000602
194 0.000624
195 0.000641
196 0.000625
197 0.000623
198 0.000616
199 0.000625
200 0.000617
201 0.000605
202 0.000583
203 0.000578
204 0.000576
205 0.000561
206 0.000536
207 0.000508
208 0.000468
209 0.000437
210 0.000421
211 0.000411
212 0.000403
213 0.000393
214 0.000384
215 0.000391
216 0.000390
217 0.000394
218 0.000397
219 0.000413
220 0.000426
221 0.000456
222 0.000485
223 0.000511
224 0.000552
225 0.000594
226 0.000641
227 0.000679
228 0.000707
229 0.000725
230 0.000746
231 0.000777
232 0.000782
233 0.000796
234 0.000789
235 0.000794
236 0.000800
237 0.000784
238 0.000767
239 0.000765
240 0.000762
241 0.000743
242 0.000710
243 0.000665
244 0.000630
245 0.000615
246 0.000597
247 0.000610
248 0.000614
249 0.000635
