# i correlation
1 0.002400
2 0.002221
3 0.002081
4 0.001953
5 0.001839
6 0.001771
7 0.001707
8 0.001647
9 0.001608
10 0.001562
11 0.001527
12 0.001483
13 0.001440
14 0.001392
15 0.001356
16 0.001316
17 0.001282
18 0.001230
19 0.001208
20 0.001195
21 0.001178
22 0.001185
23 0.001203
24 0.001207
25 0.001216
26 0.001236
27 0.001238
28 0.001246
29 0.001241
30 0.001239
31 0.001238
32 0.001223
33 0.001211
34 0.001216
35 0.001229
36 0.001236
37 0.001246
38 0.001237
39 0.001220
40 0.001191
41 0.001152
42 0.001123
43 0.001111
44 0.001081
45 0.001061
46 0.001043
47 0.001021
48 0.000992
49 0.000974
50 0.000966
51 0.000950
52 0.000933
53 0.000920
54 0.000928
55 0.000935
56 0.000942
57 0.000942
58 0.000947
59 0.000951
60 0.000947
61 0.000921
62 0.000910
63 0.000904
64 0.000890
65 0.000884
66 0.000896
67 0.000905
68 0.000929
69 0.000942
70 0.000953
71 0.000968
72 0.000976
73 0.000997
74 0.001006
75 0.001008
76 0.001010
77 0.001029
78 0.001022
79 0.001015
80 0.001004
81 0.000987
82 0.000968
83 0.000969
84 0.000954
85 0.000937
86 0.000929
87 0.000916
88 0.000875
89 0.000849
90 0.000855
91 0.000872
92 0.000890
93 0.000906
94 0.000931
95 0.000935
96 0.000955
97 0.000949
98 0.000938
99 0.000933
100 0.000924
101 0.000915
102 0.000901
103 0.000894
104 0.000887
105 0.000892
106 0.000884
107 0.000903
108 0.000905
109 0.000888
110 0.000886
111 0.000909
112 0.000903
113 0.000894
114 0.000901
115 0.000906
116 0.000893
117 0.000890
118 0.000898
119 0.000904
120 0.000921
121 0.000931
122 0.000944
123 0.000935
124 0.000923
125 0.000904
126 0.000889
127 0.000877
128 0.000875
129 0.000873
130 0.000870
131 0.000863
132 0.000845
133 0.000857
134 0.000882
135 0.000913
136 0.000917
137 0.000944
138 0.000938
139 0.000911
140 0.000878
141 0.000875
142 0.000855
143 0.000854
144 0.000863
145 0.000851
146 0.000862
147 0.000872
148 0.000893
149 0.000914
150 0.000940
151 0.000954
152 0.000960
153 0.000962
154 0.000951
155 0.000920
156 0.000876
157 0.000858
158 0.000837
159 0.000814
160 0.000811
161 0.000795
162 0.000767
163 0.000757
164 0.000764
165 0.000749
166 0.000731
167 0.000732
168 0.000718
169 0.000728
170 0.000748
171 0.000765
172 0.000772
173 0.000770
174 0.000770
175 0.000751
176 0.000730
177 0.000724
178 0.000733
179 0.000734
180 0.000732
181 0.000728
182 0.000711
183 0.000700
184 0.000705
185 0.000681
186 0.000675
187 0.000671
188 0.000667
189 0.000652
190 0.000630
191 0.000611
192 0.000594
193 0.000580
194 0.000566
195 0.000562
196 0.000566
197 0.000587
198 0.000602
199 0.000609
200 0.000614
201 0.000613
202 0.000608
203 0.000613
204 0.000629
205 0.000654
206 0.000686
207 0.000716
208 0.000731
209 0.000760
210 0.000783
211 0.000779
212 0.000780
213 0.000777
214 0.000783
215 0.000783
216 0.000782
217 0.000785
218 0.000794
219 0.000797
220 0.000776
221 0.000760
222 0.000745
223 0.000702
224 0.000681
225 0.000668
226 0.000667
227 0.000669
228 0.000664
229 0.000680
230 0.000673
231 0.000667
232 0.000667
233 0.000668
234 0.000661
235 0.000653
236 0.000637
237 0.000615
238 0.000580
239 0.000552
240 0.000548
241 0.000581
242 0.000614
243 0.000638
244 0.000684
245 0.000709
246 0.000737
247 0.000741
248 0.000742
249 0.000736
