# i correlation
1 0.002512
2 0.002343
3 0.002206
4 0.002082
5 0.001984
6 0.001893
7 0.001820
8 0.001781
9 0.001733
10 0.001693
11 0.001657
12 0.001622
13 0.001592
14 0.001583
15 0.001574
16 0.001547
17 0.001522
18 0.001508
19 0.001487
20 0.001457
21 0.001434
22 0.001428
23 0.001420
24 0.001397
25 0.001364
26 0.001304
27 0.001238
28 0.001193
29 0.001157
30 0.001126
31 0.001075
32 0.001055
33 0.001050
34 0.001053
35 0.001035
36 0.001022
37 0.001032
38 0.001030
39 0.001028
40 0.001021
41 0.000999
42 0.000983
43 0.000965
44 0.000953
45 0.000928
46 0.000912
47 0.000891
48 0.000885
49 0.000856
50 0.000839
51 0.000816
52 0.000789
53 0.000780
54 0.000775
55 0.000759
56 0.000749
57 0.000745
58 0.000750
59 0.000753
60 0.000750
61 0.000751
62 0.000758
63 0.000769
64 0.000771
65 0.000771
66 0.000767
67 0.000764
68 0.000757
69 0.000738
70 0.000732
71 0.000727
72 0.000723
73 0.000737
74 0.000742
75 0.000740
76 0.000726
77 0.000716
78 0.000703
79 0.000696
80 0.000707
81 0.000700
82 0.000693
83 0.000682
84 0.000670
85 0.000646
86 0.000624
87 0.000615
88 0.000617
89 0.000615
90 0.000622
91 0.000625
92 0.000622
93 0.000619
94 0.000647
95 0.000673
96 0.000688
97 0.000717
98 0.000745
99 0.000766
100 0.000770
101 0.000761
102 0.000768
103 0.000769
104 0.000741
105 0.000723
106 0.000709
107 0.000699
108 0.000688
109 0.000675
110 0.000660
111 0.000661
112 0.000669
113 0.000664
114 0.000652
115 0.000627
116 0.000614
117 0.000613
118 0.000613
119 0.000633
120 0.000631
121 0.000639
122 0.000643
123 0.000640
124 0.000629
125 0.000621
126 0.000624
127 0.000624
128 0.000618
129 0.000603
130 0.000589
131 0.000582
132 0.000583
133 0.000591
134 0.000613
135 0.000624
136 0.000623
137 0.000623
138 0.000622
139 0.000617
140 0.000613
141 0.000617
142 0.000612
143 0.000596
144 0.000593
145 0.000591
146 0.000599
147 0.000617
148 0.000636
149 0.000647
150 0.000638
151 0.000620
152 0.000608
153 0.000609
154 0.000586
155 0.000565
156 0.000575
157 0.000584
158 0.000595
159 0.000595
160 0.000608
161 0.000604
162 0.000591
163 0.000578
164 0.000579
165 0.000579
166 0.000574
167 0.000570
168 0.000548
169 0.000522
170 0.000492
171 0.000476
172 0.000473
173 0.000470
174 0.000466
175 0.000464
176 0.000453
177 0.000450
178 0.000438
179 0.000418
180 0.000393
181 0.000378
182 0.000374
183 0.000382
184 0.000370
185 0.000359
186 0.000354
187 0.000354
188 0.000332
189 0.000335
190 0.000338
191 0.000334
192 0.000323
193 0.000308
194 0.000309
195 0.000330
196 0.000348
197 0.000359
198 0.000363
199 0.000356
200 0.000336
201 0.000301
202 0.000285
203 0.000269
204 0.000262
205 0.000247
206 0.000255
207 0.000259
208 0.000269
209 0.000273
210 0.000267
211 0.000261
212 0.000256
213 0.000249
214 0.000259
215 0.000260
216 0.000256
217 0.000246
218 0.000219
219 0.000187
220 0.000160
221 0.000151
222 0.000133
223 0.000118
224 0.000118
225 0.000127
226 0.000118
227 0.000111
228 0.000119
229 0.000119
230 0.000113
231 0.000108
232 0.000098
233 0.000096
234 0.000079
235 0.000064
236 0.000056
237 0.000046
238 0.000051
239 0.000057
240 0.000073
241 0.000061
242 0.000055
243 0.000042
244 0.000037
245 0.000025
246 0.000012
247 0.000019
248 0.000031
249 0.000026
