# i correlation
1 0.002423
2 0.002235
3 0.002087
4 0.001963
5 0.001856
6 0.001752
7 0.001650
8 0.001572
9 0.001500
10 0.001434
11 0.001372
12 0.001327
13 0.001295
14 0.001284
15 0.001270
16 0.001251
17 0.001245
18 0.001229
19 0.001250
20 0.001264
21 0.001287
22 0.001312
23 0.001332
24 0.001366
25 0.001389
26 0.001390
27 0.001396
28 0.001418
29 0.001422
30 0.001431
31 0.001430
32 0.001434
33 0.001443
34 0.001453
35 0.001447
36 0.001430
37 0.001390
38 0.001366
39 0.001329
40 0.001284
41 0.001255
42 0.001235
43 0.001193
44 0.001165
45 0.001159
46 0.001142
47 0.001136
48 0.001138
49 0.001138
50 0.001149
51 0.001176
52 0.001180
53 0.001183
54 0.001168
55 0.001151
56 0.001141
57 0.001138
58 0.001123
59 0.001127
60 0.001124
61 0.001139
62 0.001152
63 0.001136
64 0.001105
65 0.001082
66 0.001095
67 0.001106
68 0.001125
69 0.001136
70 0.001163
71 0.001176
72 0.001186
73 0.001183
74 0.001176
75 0.001161
76 0.001158
77 0.001154
78 0.001151
79 0.001120
80 0.001083
81 0.001059
82 0.001042
83 0.001016
84 0.000996
85 0.000994
86 0.001006
87 0.001017
88 0.001006
89 0.001018
90 0.001026
91 0.001032
92 0.001011
93 0.001014
94 0.001007
95 0.001001
96 0.000978
97 0.000927
98 0.000896
99 0.000868
100 0.000852
101 0.000851
102 0.000869
103 0.000882
104 0.000895
105 0.000899
106 0.000920
107 0.000930
108 0.000926
109 0.000910
110 0.000888
111 0.000882
112 0.000878
113 0.000864
114 0.000847
115 0.000844
116 0.000849
117 0.000870
118 0.000871
119 0.000878
120 0.000868
121 0.000852
122 0.000836
123 0.000839
124 0.000826
125 0.000822
126 0.000792
127 0.000793
128 0.000807
129 0.000799
130 0.000797
131 0.000785
132 0.000779
133 0.000760
134 0.000735
135 0.000708
136 0.000702
137 0.000694
138 0.000687
139 0.000673
140 0.000658
141 0.000654
142 0.000639
143 0.000627
144 0.000641
145 0.000655
146 0.000668
147 0.000681
148 0.000683
149 0.000676
150 0.000680
151 0.000686
152 0.000718
153 0.000742
154 0.000760
155 0.000786
156 0.000798
157 0.000803
158 0.000814
159 0.000809
160 0.000789
161 0.000766
162 0.000753
163 0.000752
164 0.000749
165 0.000762
166 0.000760
167 0.000729
168 0.000690
169 0.000662
170 0.000639
171 0.000600
172 0.000570
173 0.000536
174 0.000498
175 0.000486
176 0.000495
177 0.000489
178 0.000502
179 0.000520
180 0.000545
181 0.000556
182 0.000556
183 0.000544
184 0.000548
185 0.000559
186 0.000573
187 0.000591
188 0.000594
189 0.000606
190 0.000613
191 0.000623
192 0.000603
193 0.000597
194 0.000609
195 0.000623
196 0.000622
197 0.000635
198 0.000641
199 0.000646
200 0.000641
201 0.000644
202 0.000626
203 0.000603
204 0.000570
205 0.000528
206 0.000503
207 0.000484
208 0.000455
209 0.000432
210 0.000413
211 0.000387
212 0.000356
213 0.000349
214 0.000370
215 0.000388
216 0.000401
217 0.000399
218 0.000415
219 0.000430
220 0.000438
221 0.000452
222 0.000454
223 0.000473
224 0.000473
225 0.000483
226 0.000497
227 0.000502
228 0.000490
229 0.000496
230 0.000494
231 0.000488
232 0.000501
233 0.000504
234 0.000497
235 0.000493
236 0.000483
237 0.000474
238 0.000464
239 0.000450
240 0.000444
241 0.000435
242 0.000442
243 0.000438
244 0.000430
245 0.000421
246 0.000416
247 0.000431
248 0.000456
249 0.000475
