# i correlation
1 0.002957
2 0.002780
3 0.002634
4 0.002510
5 0.002404
6 0.002301
7 0.002233
8 0.002181
9 0.002148
10 0.002129
11 0.002100
12 0.002059
13 0.002027
14 0.001984
15 0.001947
16 0.001901
17 0.001870
18 0.001857
19 0.001843
20 0.001827
21 0.001812
22 0.001776
23 0.001738
24 0.001693
25 0.001661
26 0.001630
27 0.001601
28 0.001588
29 0.001567
30 0.001577
31 0.001591
32 0.001617
33 0.001642
34 0.001645
35 0.001661
36 0.001674
37 0.001672
38 0.001647
39 0.001615
40 0.001591
41 0.001564
42 0.001540
43 0.001549
44 0.001537
45 0.001526
46 0.001532
47 0.001537
48 0.001525
49 0.001515
50 0.001487
51 0.001439
52 0.001398
53 0.001360
54 0.001350
55 0.001348
56 0.001361
57 0.001383
58 0.001398
59 0.001390
60 0.001347
61 0.001332
62 0.001318
63 0.001329
64 0.001359
65 0.001385
66 0.001386
67 0.001381
68 0.001395
69 0.001406
70 0.001397
71 0.001390
72 0.001384
73 0.001382
74 0.001377
75 0.001394
76 0.001409
77 0.001424
78 0.001416
79 0.001389
80 0.001356
81 0.001312
82 0.001286
83 0.001269
84 0.001257
85 0.001245
86 0.001240
87 0.001240
88 0.001210
89 0.001193
90 0.001168
91 0.001170
92 0.001142
93 0.001114
94 0.001100
95 0.001080
96 0.001071
97 0.001049
98 0.001029
99 0.000998
100 0.000985
101 0.000991
102 0.001005
103 0.001012
104 0.001024
105 0.001018
106 0.000994
107 0.000973
108 0.000959
109 0.000953
110 0.000931
111 0.000895
112 0.000876
113 0.000857
114 0.000846
115 0.000849
116 0.000826
117 0.000799
118 0.000777
119 0.000766
120 0.000767
121 0.000754
122 0.000754
123 0.000765
124 0.000772
125 0.000768
126 0.000770
127 0.000761
128 0.000756
129 0.000745
130 0.000733
131 0.000709
132 0.000695
133 0.000707
134 0.000731
135 0.000743
136 0.000742
137 0.000734
138 0.000725
139 0.000721
140 0.000734
141 0.000733
142 0.000725
143 0.000720
144 0.000719
145 0.000700
146 0.000684
147 0.000659
148 0.000646
149 0.000613
150 0.000598
151 0.000586
152 0.000571
153 0.000565
154 0.000564
155 0.000553
156 0.000537
157 0.000520
158 0.000520
159 0.000533
160 0.000535
161 0.000550
162 0.000539
163 0.000528
164 0.000496
165 0.000464
166 0.000461
167 0.000469
168 0.000472
169 0.000483
170 0.000478
171 0.000478
172 0.000473
173 0.000479
174 0.000490
175 0.000487
176 0.000477
177 0.000461
178 0.000476
179 0.000483
180 0.000497
181 0.000506
182 0.000503
183 0.000516
184 0.000528
185 0.000528
186 0.000513
187 0.000523
188 0.000527
189 0.000523
190 0.000518
191 0.000520
192 0.000521
193 0.000530
194 0.000528
195 0.000504
196 0.000477
197 0.000441
198 0.000423
199 0.000415
200 0.000421
201 0.000420
202 0.000411
203 0.000412
204 0.000416
205 0.000409
206 0.000394
207 0.000388
208 0.000376
209 0.000365
210 0.000353
211 0.000339
212 0.000323
213 0.000314
214 0.000297
215 0.000299
216 0.000313
217 0.000336
218 0.000347
219 0.000367
220 0.000393
221 0.000415
222 0.000416
223 0.000404
224 0.000417
225 0.000422
226 0.000413
227 0.000404
228 0.000393
229 0.000366
230 0.000352
231 0.000344
232 0.000331
233 0.000324
234 0.000314
235 0.000310
236 0.000309
237 0.000320
238 0.000329
239 0.000332
240 0.000323
241 0.000301
242 0.000283
243 0.000277
244 0.000281
245 0.000260
246 0.000234
247 0.000211
248 0.000218
249 0.000214
