# i correlation
1 0.002910
2 0.002739
3 0.002609
4 0.002489
5 0.002386
6 0.002315
7 0.002251
8 0.002202
9 0.002147
10 0.002107
11 0.002071
12 0.002042
13 0.002007
14 0.001975
15 0.001951
16 0.001918
17 0.001889
18 0.001853
19 0.001817
20 0.001770
21 0.001741
22 0.001716
23 0.001696
24 0.001654
25 0.001627
26 0.001600
27 0.001576
28 0.001563
29 0.001556
30 0.001559
31 0.001549
32 0.001536
33 0.001517
34 0.001505
35 0.001496
36 0.001503
37 0.001512
38 0.001536
39 0.001545
40 0.001550
41 0.001537
42 0.001553
43 0.001556
44 0.001576
45 0.001568
46 0.001559
47 0.001563
48 0.001554
49 0.001548
50 0.001563
51 0.001553
52 0.001547
53 0.001557
54 0.001555
55 0.001553
56 0.001553
57 0.001562
58 0.001563
59 0.001545
60 0.001540
61 0.001531
62 0.001516
63 0.001505
64 0.001518
65 0.001528
66 0.001509
67 0.001488
68 0.001480
69 0.001470
70 0.001447
71 0.001397
72 0.001374
73 0.001352
74 0.001355
75 0.001351
76 0.001351
77 0.001357
78 0.001364
79 0.001371
80 0.001373
81 0.001337
82 0.001336
83 0.001330
84 0.001303
85 0.001273
86 0.001268
87 0.001259
88 0.001262
89 0.001267
90 0.001269
91 0.001272
92 0.001270
93 0.001271
94 0.001271
95 0.001276
96 0.001280
97 0.001272
98 0.001262
99 0.001254
100 0.001246
101 0.001253
102 0.001266
103 0.001263
104 0.001251
105 0.001255
106 0.001256
107 0.001278
108 0.001318
109 0.001318
110 0.001328
111 0.001333
112 0.001328
113 0.001320
114 0.001310
115 0.001278
116 0.001271
117 0.001251
118 0.001237
119 0.001231
120 0.001227
121 0.001223
122 0.001233
123 0.001229
124 0.001247
125 0.001260
126 0.001283
127 0.001293
128 0.001291
129 0.001279
130 0.001272
131 0.001267
132 0.001262
133 0.001270
134 0.001260
135 0.001242
136 0.001220
137 0.001195
138 0.001174
139 0.001168
140 0.001178
141 0.001167
142 0.001150
143 0.001148
144 0.001142
145 0.001128
146 0.001122
147 0.001126
148 0.001139
149 0.001141
150 0.001134
151 0.001136
152 0.001154
153 0.001129
154 0.001103
155 0.001086
156 0.001079
157 0.001084
158 0.001109
159 0.001111
160 0.001110
161 0.001105
162 0.001099
163 0.001101
164 0.001120
165 0.001132
166 0.001150
167 0.001138
168 0.001138
169 0.001138
170 0.001145
171 0.001141
172 0.001142
173 0.001141
174 0.001136
175 0.001129
176 0.001136
177 0.001134
178 0.001117
179 0.001101
180 0.001083
181 0.001076
182 0.001079
183 0.001088
184 0.001108
185 0.001122
186 0.001114
187 0.001114
188 0.001120
189 0.001110
190 0.001117
191 0.001103
192 0.001075
193 0.001044
194 0.001018
195 0.000991
196 0.000983
197 0.000968
198 0.000962
199 0.000953
200 0.000936
201 0.000917
202 0.000914
203 0.000892
204 0.000882
205 0.000873
206 0.000860
207 0.000844
208 0.000844
209 0.000830
210 0.000826
211 0.000828
212 0.000838
213 0.000867
214 0.000867
215 0.000870
216 0.000889
217 0.000896
218 0.000884
219 0.000890
220 0.000879
221 0.000853
222 0.000835
223 0.000829
224 0.000820
225 0.000806
226 0.000808
227 0.000823
228 0.000830
229 0.000836
230 0.000863
231 0.000879
232 0.000890
233 0.000894
234 0.000914
235 0.000925
236 0.000920
237 0.000927
238 0.000924
239 0.000893
240 0.000892
241 0.000885
242 0.000885
243 0.000890
244 0.000889
245 0.000875
246 0.000873
247 0.000885
248 0.000900
249 0.000910
