# i correlation
1 0.002482
2 0.002283
3 0.002117
4 0.001985
5 0.001878
6 0.001784
7 0.001719
8 0.001646
9 0.001593
10 0.001554
11 0.001510
12 0.001469
13 0.001444
14 0.001433
15 0.001408
16 0.001401
17 0.001393
18 0.001394
19 0.001391
20 0.001401
21 0.001437
22 0.001438
23 0.001430
24 0.001426
25 0.001432
26 0.001435
27 0.001435
28 0.001429
29 0.001412
30 0.001404
31 0.001375
32 0.001353
33 0.001323
34 0.001304
35 0.001289
36 0.001272
37 0.001256
38 0.001234
39 0.001212
40 0.001189
41 0.001173
42 0.001183
43 0.001201
44 0.001194
45 0.001166
46 0.001140
47 0.001116
48 0.001089
49 0.001070
50 0.001063
51 0.001088
52 0.001101
53 0.001127
54 0.001137
55 0.001151
56 0.001136
57 0.001109
58 0.001080
59 0.001060
60 0.001042
61 0.001023
62 0.001032
63 0.001036
64 0.001061
65 0.001095
66 0.001108
67 0.001105
68 0.001117
69 0.001143
70 0.001166
71 0.001165
72 0.001147
73 0.001123
74 0.001095
75 0.001068
76 0.001067
77 0.001055
78 0.001079
79 0.001102
80 0.001131
81 0.001164
82 0.001176
83 0.001200
84 0.001219
85 0.001237
86 0.001250
87 0.001265
88 0.001263
89 0.001257
90 0.001258
91 0.001273
92 0.001264
93 0.001255
94 0.001230
95 0.001201
96 0.001173
97 0.001133
98 0.001096
99 0.001080
100 0.001067
101 0.001061
102 0.001068
103 0.001087
104 0.001116
105 0.001119
106 0.001123
107 0.001134
108 0.001160
109 0.001180
110 0.001191
111 0.001190
112 0.001185
113 0.001178
114 0.001183
115 0.001166
116 0.001141
117 0.001114
118 0.001085
119 0.001060
120 0.001040
121 0.001036
122 0.001030
123 0.001029
124 0.001018
125 0.001016
126 0.000997
127 0.000969
128 0.000938
129 0.000915
130 0.000902
131 0.000872
132 0.000858
133 0.000859
134 0.000876
135 0.000892
136 0.000897
137 0.000895
138 0.000899
139 0.000896
140 0.000894
141 0.000892
142 0.000900
143 0.000910
144 0.000926
145 0.000936
146 0.000931
147 0.000929
148 0.000927
149 0.000901
150 0.000862
151 0.000820
152 0.000782
153 0.000757
154 0.000737
155 0.000743
156 0.000756
157 0.000775
158 0.000782
159 0.000786
160 0.000793
161 0.000789
162 0.000776
163 0.000753
164 0.000752
165 0.000755
166 0.000771
167 0.000763
168 0.000764
169 0.000771
170 0.000788
171 0.000795
172 0.000791
173 0.000803
174 0.000813
175 0.000835
176 0.000857
177 0.000851
178 0.000844
179 0.000830
180 0.000826
181 0.000819
182 0.000815
183 0.000819
184 0.000822
185 0.000811
186 0.000803
187 0.000800
188 0.000806
189 0.000813
190 0.000825
191 0.000854
192 0.000877
193 0.000891
194 0.000919
195 0.000924
196 0.000920
197 0.000913
198 0.000900
199 0.000902
200 0.000904
201 0.000891
202 0.000879
203 0.000871
204 0.000848
205 0.000840
206 0.000834
207 0.000824
208 0.000840
209 0.000829
210 0.000806
211 0.000793
212 0.000809
213 0.000841
214 0.000851
215 0.000852
216 0.000851
217 0.000847
218 0.000840
219 0.000838
220 0.000828
221 0.000834
222 0.000854
223 0.000868
224 0.000881
225 0.000893
226 0.000909
227 0.000930
228 0.000966
229 0.000993
230 0.000995
231 0.000973
232 0.000935
233 0.000902
234 0.000872
235 0.000851
236 0.000861
237 0.000863
238 0.000871
239 0.000887
240 0.000885
241 0.000865
242 0.000842
243 0.000830
244 0.000825
245 0.000796
246 0.000802
247 0.000795
248 0.000797
249 0.000790
