# i correlation
1 0.002859
2 0.002664
3 0.002505
4 0.002355
5 0.002222
6 0.002115
7 0.002048
8 0.002013
9 0.001967
10 0.001930
11 0.001886
12 0.001839
13 0.001780
14 0.001734
15 0.001694
16 0.001667
17 0.001634
18 0.001624
19 0.001612
20 0.001603
21 0.001581
22 0.001557
23 0.001528
24 0.001537
25 0.001545
26 0.001562
27 0.001571
28 0.001585
29 0.001615
30 0.001626
31 0.001619
32 0.001611
33 0.001588
34 0.001553
35 0.001525
36 0.001528
37 0.001535
38 0.001537
39 0.001543
40 0.001548
41 0.001552
42 0.001554
43 0.001552
44 0.001538
45 0.001536
46 0.001537
47 0.001547
48 0.001569
49 0.001596
50 0.001620
51 0.001610
52 0.001609
53 0.001581
54 0.001539
55 0.001506
56 0.001485
57 0.001472
58 0.001436
59 0.001438
60 0.001436
61 0.001408
62 0.001362
63 0.001313
64 0.001260
65 0.001219
66 0.001165
67 0.001130
68 0.001098
69 0.001098
70 0.001098
71 0.001093
72 0.001093
73 0.001099
74 0.001091
75 0.001088
76 0.001083
77 0.001076
78 0.001072
79 0.001091
80 0.001106
81 0.001127
82 0.001133
83 0.001156
84 0.001178
85 0.001187
86 0.001194
87 0.001188
88 0.001172
89 0.001174
90 0.001176
91 0.001187
92 0.001188
93 0.001168
94 0.001167
95 0.001165
96 0.001141
97 0.001131
98 0.001133
99 0.001144
100 0.001156
101 0.001142
102 0.001145
103 0.001131
104 0.001074
105 0.001045
106 0.001015
107 0.000988
108 0.000980
109 0.000975
110 0.000964
111 0.000967
112 0.000992
113 0.001009
114 0.001006
115 0.001018
116 0.001043
117 0.001059
118 0.001048
119 0.001031
120 0.001021
121 0.001002
122 0.000979
123 0.000952
124 0.000941
125 0.000949
126 0.000961
127 0.000967
128 0.000978
129 0.000985
130 0.000971
131 0.000940
132 0.000936
133 0.000924
134 0.000931
135 0.000916
136 0.000894
137 0.000874
138 0.000861
139 0.000848
140 0.000844
141 0.000855
142 0.000876
143 0.000893
144 0.000920
145 0.000979
146 0.001015
147 0.001035
148 0.001048
149 0.001058
150 0.001062
151 0.001041
152 0.001029
153 0.001017
154 0.000998
155 0.000968
156 0.000948
157 0.000933
158 0.000919
159 0.000920
160 0.000921
161 0.000918
162 0.000917
163 0.000934
164 0.000961
165 0.000987
166 0.001010
167 0.001030
168 0.001031
169 0.001021
170 0.001025
171 0.001025
172 0.001025
173 0.001039
174 0.001061
175 0.001087
176 0.001106
177 0.001127
178 0.001149
179 0.001152
180 0.001125
181 0.001109
182 0.001097
183 0.001061
184 0.001025
185 0.000999
186 0.000982
187 0.000950
188 0.000933
189 0.000927
190 0.000923
191 0.000915
192 0.000900
193 0.000905
194 0.000916
195 0.000928
196 0.000917
197 0.000917
198 0.000912
199 0.000919
200 0.000940
201 0.000950
202 0.000978
203 0.001003
204 0.001017
205 0.001011
206 0.000996
207 0.000982
208 0.000976
209 0.000970
210 0.000946
211 0.000921
212 0.000908
213 0.000895
214 0.000884
215 0.000876
216 0.000872
217 0.000873
218 0.000873
219 0.000872
220 0.000890
221 0.000887
222 0.000889
223 0.000878
224 0.000881
225 0.000874
226 0.000865
227 0.000866
228 0.000873
229 0.000866
230 0.000862
231 0.000855
232 0.000849
233 0.000833
234 0.000831
235 0.000829
236 0.000820
237 0.000807
238 0.000792
239 0.000770
240 0.000769
241 0.000754
242 0.000747
243 0.000733
244 0.000714
245 0.000697
246 0.000706
247 0.000713
248 0.000693
249 0.000670
