# i correlation
1 0.003312
2 0.003105
3 0.002942
4 0.002802
5 0.002698
6 0.002630
7 0.002559
8 0.002491
9 0.002439
10 0.002376
11 0.002320
12 0.002276
13 0.002252
14 0.002219
15 0.002172
16 0.002141
17 0.002085
18 0.002024
19 0.001959
20 0.001902
21 0.001885
22 0.001861
23 0.001836
24 0.001804
25 0.001800
26 0.001791
27 0.001794
28 0.001799
29 0.001820
30 0.001818
31 0.001812
32 0.001812
33 0.001822
34 0.001822
35 0.001819
36 0.001833
37 0.001845
38 0.001856
39 0.001873
40 0.001878
41 0.001849
42 0.001844
43 0.001852
44 0.001846
45 0.001842
46 0.001839
47 0.001823
48 0.001804
49 0.001795
50 0.001790
51 0.001779
52 0.001769
53 0.001752
54 0.001741
55 0.001718
56 0.001703
57 0.001670
58 0.001629
59 0.001578
60 0.001549
61 0.001536
62 0.001530
63 0.001515
64 0.001491
65 0.001501
66 0.001511
67 0.001529
68 0.001545
69 0.001571
70 0.001569
71 0.001558
72 0.001549
73 0.001526
74 0.001494
75 0.001464
76 0.001444
77 0.001433
78 0.001418
79 0.001415
80 0.001415
81 0.001412
82 0.001408
83 0.001423
84 0.001446
85 0.001455
86 0.001455
87 0.001456
88 0.001460
89 0.001460
90 0.001471
91 0.001472
92 0.001480
93 0.001478
94 0.001480
95 0.001452
96 0.001418
97 0.001391
98 0.001365
99 0.001326
100 0.001315
101 0.001310
102 0.001292
103 0.001256
104 0.001232
105 0.001220
106 0.001198
107 0.001174
108 0.001149
109 0.001126
110 0.001104
111 0.001080
112 0.001053
113 0.001025
114 0.001001
115 0.000968
116 0.000933
117 0.000912
118 0.000897
119 0.000893
120 0.000890
121 0.000894
122 0.000893
123 0.000909
124 0.000910
125 0.000898
126 0.000897
127 0.000900
128 0.000891
129 0.000877
130 0.000871
131 0.000858
132 0.000842
133 0.000839
134 0.000851
135 0.000876
136 0.000900
137 0.000920
138 0.000927
139 0.000929
140 0.000930
141 0.000915
142 0.000894
143 0.000881
144 0.000852
145 0.000834
146 0.000839
147 0.000840
148 0.000862
149 0.000890
150 0.000910
151 0.000912
152 0.000897
153 0.000868
154 0.000837
155 0.000806
156 0.000794
157 0.000806
158 0.000801
159 0.000809
160 0.000809
161 0.000794
162 0.000779
163 0.000764
164 0.000773
165 0.000789
166 0.000818
167 0.000836
168 0.000835
169 0.000837
170 0.000844
171 0.000848
172 0.000854
173 0.000869
174 0.000888
175 0.000897
176 0.000903
177 0.000902
178 0.000906
179 0.000906
180 0.000895
181 0.000904
182 0.000925
183 0.000936
184 0.000936
185 0.000937
186 0.000947
187 0.000951
188 0.000962
189 0.000950
190 0.000934
191 0.000909
192 0.000882
193 0.000851
194 0.000828
195 0.000800
196 0.000762
197 0.000734
198 0.000714
199 0.000712
200 0.000721
201 0.000713
202 0.000717
203 0.000724
204 0.000734
205 0.000741
206 0.000738
207 0.000719
208 0.000711
209 0.000694
210 0.000678
211 0.000685
212 0.000686
213 0.000682
214 0.000678
215 0.000705
216 0.000725
217 0.000746
218 0.000769
219 0.000789
220 0.000821
221 0.000844
222 0.000838
223 0.000815
224 0.000815
225 0.000811
226 0.000812
227 0.000820
228 0.000806
229 0.000788
230 0.000779
231 0.000776
232 0.000791
233 0.000819
234 0.000844
235 0.000856
236 0.000862
237 0.000865
238 0.000864
239 0.000851
240 0.000842
241 0.000848
242 0.000852
243 0.000855
244 0.000859
245 0.000856
246 0.000834
247 0.000807
248 0.000793
249 0.000777
