# i correlation
1 0.002784
2 0.002630
3 0.002490
4 0.002339
5 0.002214
6 0.002103
7 0.002003
8 0.001927
9 0.001858
10 0.001804
11 0.001770
12 0.001751
13 0.001730
14 0.001715
15 0.001710
16 0.001700
17 0.001694
18 0.001671
19 0.001645
20 0.001631
21 0.001621
22 0.001595
23 0.001571
24 0.001544
25 0.001521
26 0.001501
27 0.001490
28 0.001492
29 0.001493
30 0.001505
31 0.001506
32 0.001495
33 0.001508
34 0.001518
35 0.001533
36 0.001552
37 0.001558
38 0.001567
39 0.001585
40 0.001589
41 0.001593
42 0.001601
43 0.001597
44 0.001596
45 0.001592
46 0.001581
47 0.001588
48 0.001574
49 0.001558
50 0.001543
51 0.001508
52 0.001482
53 0.001447
54 0.001423
55 0.001401
56 0.001392
57 0.001373
58 0.001357
59 0.001342
60 0.001339
61 0.001345
62 0.001349
63 0.001369
64 0.001392
65 0.001408
66 0.001415
67 0.001444
68 0.001446
69 0.001456
70 0.001468
71 0.001473
72 0.001484
73 0.001491
74 0.001472
75 0.001444
76 0.001417
77 0.001396
78 0.001390
79 0.001381
80 0.001366
81 0.001355
82 0.001337
83 0.001330
84 0.001334
85 0.001338
86 0.001345
87 0.001360
88 0.001369
89 0.001355
90 0.001335
91 0.001321
92 0.001314
93 0.001287
94 0.001277
95 0.001271
96 0.001259
97 0.001255
98 0.001250
99 0.001236
100 0.001222
101 0.001216
102 0.001216
103 0.001223
104 0.001230
105 0.001236
106 0.001229
107 0.001224
108 0.001224
109 0.001241
110 0.001254
111 0.001267
112 0.001286
113 0.001316
114 0.001348
115 0.001374
116 0.001390
117 0.001409
118 0.001420
119 0.001428
120 0.001426
121 0.001416
122 0.001387
123 0.001349
124 0.001299
125 0.001244
126 0.001202
127 0.001174
128 0.001151
129 0.001117
130 0.001083
131 0.001069
132 0.001058
133 0.001073
134 0.001103
135 0.001108
136 0.001118
137 0.001124
138 0.001131
139 0.001131
140 0.001107
141 0.001083
142 0.001063
143 0.001036
144 0.001005
145 0.000991
146 0.000971
147 0.000961
148 0.000965
149 0.000961
150 0.000965
151 0.000973
152 0.000979
153 0.000989
154 0.000998
155 0.001019
156 0.001032
157 0.001032
158 0.001038
159 0.001066
160 0.001094
161 0.001113
162 0.001129
163 0.001133
164 0.001148
165 0.001160
166 0.001176
167 0.001173
168 0.001173
169 0.001168
170 0.001176
171 0.001177
172 0.001169
173 0.001150
174 0.001119
175 0.001098
176 0.001087
177 0.001088
178 0.001079
179 0.001051
180 0.001033
181 0.001041
182 0.001051
183 0.001077
184 0.001097
185 0.001120
186 0.001140
187 0.001144
188 0.001135
189 0.001132
190 0.001123
191 0.001106
192 0.001102
193 0.001081
194 0.001078
195 0.001062
196 0.001046
197 0.001062
198 0.001073
199 0.001067
200 0.001061
201 0.001062
202 0.001064
203 0.001048
204 0.001027
205 0.001014
206 0.001024
207 0.001022
208 0.001029
209 0.001033
210 0.001021
211 0.001010
212 0.000995
213 0.000981
214 0.000954
215 0.000931
216 0.000899
217 0.000863
218 0.000841
219 0.000811
220 0.000786
221 0.000757
222 0.000736
223 0.000729
224 0.000721
225 0.000719
226 0.000737
227 0.000761
228 0.000775
229 0.000793
230 0.000816
231 0.000837
232 0.000850
233 0.000869
234 0.000873
235 0.000879
236 0.000893
237 0.000908
238 0.000929
239 0.000946
240 0.000947
241 0.000959
242 0.000948
243 0.000927
244 0.000908
245 0.000888
246 0.000860
247 0.000839
248 0.000833
249 0.000829
