# i correlation
1 0.002607
2 0.002430
3 0.002294
4 0.002182
5 0.002094
6 0.002017
7 0.001961
8 0.001914
9 0.001850
10 0.001804
11 0.001778
12 0.001755
13 0.001722
14 0.001688
15 0.001644
16 0.001620
17 0.001582
18 0.001557
19 0.001538
20 0.001519
21 0.001517
22 0.001515
23 0.001523
24 0.001529
25 0.001503
26 0.001491
27 0.001468
28 0.001468
29 0.001464
30 0.001451
31 0.001436
32 0.001437
33 0.001414
34 0.001403
35 0.001414
36 0.001413
37 0.001394
38 0.001375
39 0.001361
40 0.001344
41 0.001325
42 0.001306
43 0.001295
44 0.001299
45 0.001288
46 0.001270
47 0.001253
48 0.001246
49 0.001230
50 0.001225
51 0.001217
52 0.001212
53 0.001199
54 0.001178
55 0.001176
56 0.001169
57 0.001174
58 0.001188
59 0.001181
60 0.001165
61 0.001136
62 0.001116
63 0.001080
64 0.001052
65 0.001037
66 0.001010
67 0.000982
68 0.000980
69 0.000969
70 0.000962
71 0.000930
72 0.000893
73 0.000866
74 0.000845
75 0.000827
76 0.000796
77 0.000767
78 0.000747
79 0.000728
80 0.000736
81 0.000750
82 0.000764
83 0.000783
84 0.000791
85 0.000805
86 0.000835
87 0.000848
88 0.000868
89 0.000897
90 0.000908
91 0.000925
92 0.000938
93 0.000955
94 0.000986
95 0.000992
96 0.000998
97 0.001016
98 0.001003
99 0.000998
100 0.000986
101 0.000994
102 0.000979
103 0.000981
104 0.000983
105 0.000992
106 0.000996
107 0.001002
108 0.001019
109 0.001038
110 0.001066
111 0.001065
112 0.001054
113 0.001048
114 0.001040
115 0.001032
116 0.001012
117 0.001032
118 0.001038
119 0.001035
120 0.001025
121 0.001014
122 0.001000
123 0.000989
124 0.000965
125 0.000951
126 0.000935
127 0.000900
128 0.000874
129 0.000859
130 0.000844
131 0.000854
132 0.000867
133 0.000889
134 0.000903
135 0.000905
136 0.000907
137 0.000896
138 0.000902
139 0.000907
140 0.000922
141 0.000935
142 0.000954
143 0.000963
144 0.000985
145 0.001009
146 0.001026
147 0.001056
148 0.001076
149 0.001087
150 0.001094
151 0.001086
152 0.001069
153 0.001049
154 0.001022
155 0.001003
156 0.000995
157 0.000991
158 0.000966
159 0.000939
160 0.000916
161 0.000894
162 0.000891
163 0.000903
164 0.000907
165 0.000891
166 0.000888
167 0.000895
168 0.000917
169 0.000940
170 0.000940
171 0.000931
172 0.000915
173 0.000901
174 0.000900
175 0.000908
176 0.000930
177 0.000948
178 0.000942
179 0.000944
180 0.000942
181 0.000928
182 0.000918
183 0.000906
184 0.000877
185 0.000842
186 0.000809
187 0.000776
188 0.000763
189 0.000748
190 0.000718
191 0.000710
192 0.000726
193 0.000724
194 0.000719
195 0.000716
196 0.000713
197 0.000701
198 0.000703
199 0.000693
200 0.000689
201 0.000694
202 0.000688
203 0.000703
204 0.000728
205 0.000732
206 0.000763
207 0.000778
208 0.000803
209 0.000829
210 0.000845
211 0.000848
212 0.000847
213 0.000807
214 0.000810
215 0.000799
216 0.000782
217 0.000769
218 0.000769
219 0.000759
220 0.000749
221 0.000738
222 0.000708
223 0.000671
224 0.000645
225 0.000635
226 0.000623
227 0.000621
228 0.000619
229 0.000591
230 0.000572
231 0.000549
232 0.000545
233 0.000545
234 0.000547
235 0.000552
236 0.000558
237 0.000593
238 0.000637
239 0.000678
240 0.000702
241 0.000709
242 0.000720
243 0.000714
244 0.000711
245 0.000703
246 0.000705
247 0.000719
248 0.000723
249 0.000715
