# i correlation
1 0.002203
2 0.002016
3 0.001878
4 0.001760
5 0.001677
6 0.001590
7 0.001491
8 0.001423
9 0.001360
10 0.001308
11 0.001246
12 0.001185
13 0.001150
14 0.001120
15 0.001127
16 0.001133
17 0.001106
18 0.001100
19 0.001087
20 0.001056
21 0.001046
22 0.001019
23 0.001002
24 0.001016
25 0.001028
26 0.001054
27 0.001067
28 0.001075
29 0.001092
30 0.001077
31 0.001069
32 0.001056
33 0.001032
34 0.001037
35 0.001030
36 0.000999
37 0.000966
38 0.000947
39 0.000934
40 0.000908
41 0.000895
42 0.000888
43 0.000880
44 0.000893
45 0.000905
46 0.000907
47 0.000909
48 0.000921
49 0.000915
50 0.000931
51 0.000930
52 0.000936
53 0.000945
54 0.000947
55 0.000963
56 0.000974
57 0.000972
58 0.000957
59 0.000953
60 0.000946
61 0.000945
62 0.000940
63 0.000932
64 0.000922
65 0.000906
66 0.000901
67 0.000901
68 0.000907
69 0.000906
70 0.000897
71 0.000882
72 0.000868
73 0.000841
74 0.000845
75 0.000857
76 0.000849
77 0.000853
78 0.000834
79 0.000814
80 0.000814
81 0.000817
82 0.000816
83 0.000839
84 0.000877
85 0.000898
86 0.000888
87 0.000880
88 0.000890
89 0.000908
90 0.000934
91 0.000944
92 0.000943
93 0.000965
94 0.000991
95 0.001010
96 0.001015
97 0.001005
98 0.001006
99 0.001009
100 0.001015
101 0.001013
102 0.001003
103 0.001001
104 0.000990
105 0.000949
106 0.000910
107 0.000883
108 0.000867
109 0.000862
110 0.000878
111 0.000889
112 0.000891
113 0.000904
114 0.000915
115 0.000927
116 0.000942
117 0.000953
118 0.000964
119 0.000961
120 0.000934
121 0.000874
122 0.000841
123 0.000825
124 0.000824
125 0.000845
126 0.000863
127 0.000869
128 0.000868
129 0.000878
130 0.000860
131 0.000849
132 0.000849
133 0.000852
134 0.000874
135 0.000861
136 0.000849
137 0.000855
138 0.000856
139 0.000861
140 0.000866
141 0.000869
142 0.000875
143 0.000875
144 0.000874
145 0.000886
146 0.000877
147 0.000848
148 0.000793
149 0.000741
150 0.000716
151 0.000712
152 0.000729
153 0.000728
154 0.000699
155 0.000680
156 0.000679
157 0.000687
158 0.000692
159 0.000675
160 0.000677
161 0.000706
162 0.000711
163 0.000737
164 0.000748
165 0.000744
166 0.000760
167 0.000779
168 0.000807
169 0.000825
170 0.000834
171 0.000844
172 0.000850
173 0.000857
174 0.000855
175 0.000844
176 0.000832
177 0.000812
178 0.000802
179 0.000804
180 0.000804
181 0.000811
182 0.000806
183 0.000792
184 0.000771
185 0.000748
186 0.000730
187 0.000725
188 0.000727
189 0.000716
190 0.000710
191 0.000706
192 0.000693
193 0.000683
194 0.000667
195 0.000671
196 0.000695
197 0.000718
198 0.000723
199 0.000724
200 0.000719
201 0.000721
202 0.000718
203 0.000714
204 0.000711
205 0.000679
206 0.000643
207 0.000632
208 0.000622
209 0.000624
210 0.000594
211 0.000575
212 0.000572
213 0.000573
214 0.000574
215 0.000561
216 0.000545
217 0.000535
218 0.000537
219 0.000553
220 0.000571
221 0.000584
222 0.000601
223 0.000605
224 0.000599
225 0.000611
226 0.000605
227 0.000612
228 0.000636
229 0.000646
230 0.000667
231 0.000674
232 0.000667
233 0.000658
234 0.000642
235 0.000647
236 0.000658
237 0.000658
238 0.000663
239 0.000635
240 0.000620
241 0.000622
242 0.000612
243 0.000620
244 0.000616
245 0.000610
246 0.000605
247 0.000589
248 0.000563
249 0.000555
