# i correlation
1 0.002350
2 0.002187
3 0.002048
4 0.001915
5 0.001809
6 0.001706
7 0.001624
8 0.001556
9 0.001505
10 0.001476
11 0.001451
12 0.001418
13 0.001384
14 0.001343
15 0.001331
16 0.001305
17 0.001278
18 0.001236
19 0.001197
20 0.001165
21 0.001143
22 0.001137
23 0.001121
24 0.001110
25 0.001117
26 0.001121
27 0.001128
28 0.001121
29 0.001099
30 0.001070
31 0.001041
32 0.001013
33 0.001003
34 0.000991
35 0.000977
36 0.000975
37 0.000965
38 0.000934
39 0.000908
40 0.000869
41 0.000845
42 0.000823
43 0.000821
44 0.000820
45 0.000802
46 0.000796
47 0.000797
48 0.000799
49 0.000798
50 0.000797
51 0.000812
52 0.000817
53 0.000824
54 0.000828
55 0.000825
56 0.000819
57 0.000815
58 0.000797
59 0.000781
60 0.000787
61 0.000796
62 0.000808
63 0.000812
64 0.000820
65 0.000831
66 0.000848
67 0.000858
68 0.000860
69 0.000870
70 0.000883
71 0.000883
72 0.000891
73 0.000899
74 0.000902
75 0.000884
76 0.000881
77 0.000884
78 0.000853
79 0.000838
80 0.000827
81 0.000825
82 0.000825
83 0.000820
84 0.000832
85 0.000840
86 0.000842
87 0.000865
88 0.000889
89 0.000916
90 0.000918
91 0.000898
92 0.000887
93 0.000884
94 0.000891
95 0.000891
96 0.000901
97 0.000885
98 0.000862
99 0.000852
100 0.000853
101 0.000853
102 0.000839
103 0.000821
104 0.000814
105 0.000800
106 0.000793
107 0.000776
108 0.000755
109 0.000725
110 0.000689
111 0.000666
112 0.000645
113 0.000620
114 0.000590
115 0.000570
116 0.000559
117 0.000564
118 0.000566
119 0.000567
120 0.000560
121 0.000571
122 0.000596
123 0.000624
124 0.000620
125 0.000620
126 0.000609
127 0.000600
128 0.000598
129 0.000576
130 0.000569
131 0.000576
132 0.000582
133 0.000585
134 0.000591
135 0.000596
136 0.000598
137 0.000614
138 0.000631
139 0.000655
140 0.000675
141 0.000681
142 0.000662
143 0.000652
144 0.000635
145 0.000608
146 0.000592
147 0.000569
148 0.000558
149 0.000555
150 0.000561
151 0.000556
152 0.000547
153 0.000563
154 0.000561
155 0.000555
156 0.000560
157 0.000559
158 0.000578
159 0.000594
160 0.000612
161 0.000630
162 0.000649
163 0.000656
164 0.000664
165 0.000667
166 0.000684
167 0.000680
168 0.000693
169 0.000702
170 0.000709
171 0.000709
172 0.000697
173 0.000697
174 0.000718
175 0.000736
176 0.000745
177 0.000742
178 0.000732
179 0.000735
180 0.000735
181 0.000722
182 0.000713
183 0.000710
184 0.000694
185 0.000681
186 0.000665
187 0.000651
188 0.000638
189 0.000632
190 0.000635
191 0.000637
192 0.000648
193 0.000657
194 0.000644
195 0.000642
196 0.000639
197 0.000651
198 0.000650
199 0.000627
200 0.000592
201 0.000575
202 0.000569
203 0.000559
204 0.000556
205 0.000550
206 0.000540
207 0.000551
208 0.000557
209 0.000557
210 0.000547
211 0.000530
212 0.000528
213 0.000513
214 0.000485
215 0.000447
216 0.000421
217 0.000408
218 0.000389
219 0.000387
220 0.000399
221 0.000395
222 0.000384
223 0.000395
224 0.000407
225 0.000410
226 0.000417
227 0.000411
228 0.000410
229 0.000409
230 0.000411
231 0.000412
232 0.000407
233 0.000400
234 0.000407
235 0.000423
236 0.000425
237 0.000435
238 0.000434
239 0.000443
240 0.000448
241 0.000447
242 0.000445
243 0.000433
244 0.000424
245 0.000441
246 0.000465
247 0.000479
248 0.000491
249 0.000492
