# i correlation
1 0.002428
2 0.002258
3 0.002128
4 0.002004
5 0.001892
6 0.001820
7 0.001754
8 0.001693
9 0.001643
10 0.001609
11 0.001563
12 0.001521
13 0.001519
14 0.001498
15 0.001479
16 0.001480
17 0.001469
18 0.001434
19 0.001414
20 0.001401
21 0.001372
22 0.001341
23 0.001318
24 0.001292
25 0.001285
26 0.001285
27 0.001270
28 0.001236
29 0.001218
30 0.001218
31 0.001196
32 0.001169
33 0.001148
34 0.001140
35 0.001118
36 0.001132
37 0.001142
38 0.001162
39 0.001177
40 0.001173
41 0.001169
42 0.001149
43 0.001142
44 0.001132
45 0.001126
46 0.001123
47 0.001122
48 0.001141
49 0.001136
50 0.001126
51 0.001114
52 0.001113
53 0.001108
54 0.001114
55 0.001109
56 0.001111
57 0.001116
58 0.001115
59 0.001109
60 0.001102
61 0.001105
62 0.001094
63 0.001082
64 0.001077
65 0.001091
66 0.001086
67 0.001079
68 0.001085
69 0.001086
70 0.001081
71 0.001092
72 0.001079
73 0.001068
74 0.001045
75 0.001034
76 0.001018
77 0.001010
78 0.001015
79 0.001022
80 0.001012
81 0.000998
82 0.000984
83 0.000958
84 0.000948
85 0.000914
86 0.000896
87 0.000889
88 0.000898
89 0.000913
90 0.000926
91 0.000933
92 0.000950
93 0.000948
94 0.000956
95 0.000968
96 0.000963
97 0.000978
98 0.000993
99 0.001008
100 0.001015
101 0.001016
102 0.001009
103 0.000998
104 0.000999
105 0.001009
106 0.001006
107 0.000998
108 0.001005
109 0.001020
110 0.001022
111 0.001032
112 0.001048
113 0.001058
114 0.001062
115 0.001077
116 0.001088
117 0.001116
118 0.001153
119 0.001175
120 0.001189
121 0.001200
122 0.001196
123 0.001180
124 0.001143
125 0.001113
126 0.001081
127 0.001053
128 0.001027
129 0.001007
130 0.000986
131 0.000958
132 0.000922
133 0.000897
134 0.000876
135 0.000855
136 0.000851
137 0.000859
138 0.000863
139 0.000857
140 0.000854
141 0.000830
142 0.000818
143 0.000808
144 0.000792
145 0.000784
146 0.000757
147 0.000747
148 0.000735
149 0.000727
150 0.000702
151 0.000681
152 0.000662
153 0.000643
154 0.000608
155 0.000592
156 0.000587
157 0.000588
158 0.000592
159 0.000594
160 0.000589
161 0.000578
162 0.000568
163 0.000559
164 0.000577
165 0.000591
166 0.000590
167 0.000601
168 0.000615
169 0.000621
170 0.000635
171 0.000644
172 0.000657
173 0.000688
174 0.000705
175 0.000711
176 0.000718
177 0.000715
178 0.000716
179 0.000706
180 0.000682
181 0.000655
182 0.000639
183 0.000633
184 0.000620
185 0.000613
186 0.000611
187 0.000625
188 0.000637
189 0.000665
190 0.000691
191 0.000700
192 0.000696
193 0.000695
194 0.000682
195 0.000664
196 0.000666
197 0.000665
198 0.000652
199 0.000646
200 0.000649
201 0.000638
202 0.000622
203 0.000612
204 0.000606
205 0.000608
206 0.000625
207 0.000630
208 0.000618
209 0.000606
210 0.000610
211 0.000603
212 0.000586
213 0.000583
214 0.000582
215 0.000565
216 0.000562
217 0.000566
218 0.000574
219 0.000576
220 0.000593
221 0.000612
222 0.000629
223 0.000645
224 0.000665
225 0.000661
226 0.000685
227 0.000706
228 0.000705
229 0.000709
230 0.000724
231 0.000723
232 0.000717
233 0.000719
234 0.000711
235 0.000704
236 0.000694
237 0.000690
238 0.000679
239 0.000677
240 0.000677
241 0.000667
242 0.000660
243 0.000664
244 0.000656
245 0.000647
246 0.000634
247 0.000634
248 0.000641
249 0.000618
