# i correlation
1 0.002956
2 0.002757
3 0.002598
4 0.002481
5 0.002385
6 0.002295
7 0.002199
8 0.002095
9 0.002004
10 0.001913
11 0.001836
12 0.001774
13 0.001719
14 0.001664
15 0.001612
16 0.001555
17 0.001503
18 0.001452
19 0.001427
20 0.001401
21 0.001365
22 0.001338
23 0.001321
24 0.001326
25 0.001328
26 0.001339
27 0.001351
28 0.001359
29 0.001383
30 0.001393
31 0.001385
32 0.001380
33 0.001384
34 0.001394
35 0.001400
36 0.001387
37 0.001377
38 0.001361
39 0.001353
40 0.001337
41 0.001330
42 0.001309
43 0.001271
44 0.001247
45 0.001225
46 0.001216
47 0.001208
48 0.001210
49 0.001219
50 0.001214
51 0.001197
52 0.001196
53 0.001198
54 0.001190
55 0.001154
56 0.001121
57 0.001110
58 0.001098
59 0.001063
60 0.001058
61 0.001053
62 0.001040
63 0.001035
64 0.001046
65 0.001045
66 0.001058
67 0.001056
68 0.001064
69 0.001075
70 0.001062
71 0.001062
72 0.001061
73 0.001058
74 0.001042
75 0.001018
76 0.000996
77 0.000974
78 0.000968
79 0.000973
80 0.000973
81 0.000984
82 0.001000
83 0.001024
84 0.001032
85 0.001028
86 0.001014
87 0.001019
88 0.001022
89 0.001012
90 0.001001
91 0.000980
92 0.000959
93 0.000947
94 0.000928
95 0.000926
96 0.000905
97 0.000886
98 0.000891
99 0.000899
100 0.000894
101 0.000894
102 0.000889
103 0.000879
104 0.000843
105 0.000821
106 0.000792
107 0.000768
108 0.000734
109 0.000705
110 0.000691
111 0.000692
112 0.000705
113 0.000717
114 0.000727
115 0.000744
116 0.000756
117 0.000757
118 0.000767
119 0.000776
120 0.000762
121 0.000770
122 0.000781
123 0.000784
124 0.000773
125 0.000766
126 0.000754
127 0.000754
128 0.000765
129 0.000787
130 0.000791
131 0.000787
132 0.000771
133 0.000745
134 0.000736
135 0.000734
136 0.000740
137 0.000747
138 0.000753
139 0.000762
140 0.000775
141 0.000784
142 0.000780
143 0.000775
144 0.000779
145 0.000786
146 0.000778
147 0.000769
148 0.000776
149 0.000771
150 0.000741
151 0.000711
152 0.000712
153 0.000729
154 0.000746
155 0.000771
156 0.000787
157 0.000797
158 0.000801
159 0.000799
160 0.000802
161 0.000803
162 0.000794
163 0.000796
164 0.000818
165 0.000818
166 0.000796
167 0.000785
168 0.000788
169 0.000814
170 0.000840
171 0.000846
172 0.000843
173 0.000838
174 0.000843
175 0.000837
176 0.000847
177 0.000824
178 0.000809
179 0.000801
180 0.000798
181 0.000803
182 0.000795
183 0.000787
184 0.000774
185 0.000766
186 0.000746
187 0.000740
188 0.000718
189 0.000700
190 0.000681
191 0.000652
192 0.000617
193 0.000597
194 0.000593
195 0.000579
196 0.000555
197 0.000524
198 0.000515
199 0.000487
200 0.000476
201 0.000466
202 0.000454
203 0.000432
204 0.000411
205 0.000382
206 0.000365
207 0.000353
208 0.000346
209 0.000352
210 0.000370
211 0.000390
212 0.000407
213 0.000434
214 0.000458
215 0.000473
216 0.000510
217 0.000554
218 0.000595
219 0.000599
220 0.000585
221 0.000564
222 0.000558
223 0.000567
224 0.000581
225 0.000592
226 0.000588
227 0.000589
228 0.000589
229 0.000585
230 0.000569
231 0.000559
232 0.000553
233 0.000554
234 0.000549
235 0.000544
236 0.000538
237 0.000535
238 0.000529
239 0.000523
240 0.000515
241 0.000518
242 0.000539
243 0.000561
244 0.000570
245 0.000569
246 0.000555
247 0.000557
248 0.000561
249 0.000544
