# i correlation
1 0.002264
2 0.002081
3 0.001931
4 0.001809
5 0.001727
6 0.001676
7 0.001639
8 0.001598
9 0.001546
10 0.001492
11 0.001465
12 0.001450
13 0.001424
14 0.001401
15 0.001378
16 0.001354
17 0.001341
18 0.001343
19 0.001354
20 0.001352
21 0.001363
22 0.001377
23 0.001381
24 0.001378
25 0.001341
26 0.001323
27 0.001304
28 0.001296
29 0.001292
30 0.001279
31 0.001265
32 0.001250
33 0.001251
34 0.001231
35 0.001223
36 0.001228
37 0.001231
38 0.001242
39 0.001247
40 0.001239
41 0.001242
42 0.001228
43 0.001212
44 0.001191
45 0.001200
46 0.001221
47 0.001228
48 0.001223
49 0.001223
50 0.001190
51 0.001170
52 0.001147
53 0.001128
54 0.001124
55 0.001117
56 0.001105
57 0.001103
58 0.001114
59 0.001131
60 0.001140
61 0.001174
62 0.001183
63 0.001167
64 0.001157
65 0.001157
66 0.001154
67 0.001166
68 0.001190
69 0.001210
70 0.001204
71 0.001178
72 0.001151
73 0.001142
74 0.001125
75 0.001118
76 0.001126
77 0.001124
78 0.001122
79 0.001116
80 0.001127
81 0.001121
82 0.001105
83 0.001075
84 0.001062
85 0.001044
86 0.001026
87 0.001008
88 0.000986
89 0.000954
90 0.000940
91 0.000938
92 0.000953
93 0.000952
94 0.000947
95 0.000943
96 0.000932
97 0.000929
98 0.000930
99 0.000937
100 0.000931
101 0.000926
102 0.000924
103 0.000908
104 0.000898
105 0.000903
106 0.000912
107 0.000898
108 0.000898
109 0.000895
110 0.000882
111 0.000881
112 0.000870
113 0.000860
114 0.000895
115 0.000916
116 0.000924
117 0.000924
118 0.000922
119 0.000904
120 0.000910
121 0.000918
122 0.000913
123 0.000925
124 0.000907
125 0.000884
126 0.000857
127 0.000841
128 0.000835
129 0.000826
130 0.000826
131 0.000817
132 0.000831
133 0.000853
134 0.000885
135 0.000915
136 0.000931
137 0.000910
138 0.000907
139 0.000903
140 0.000886
141 0.000888
142 0.000886
143 0.000872
144 0.000863
145 0.000854
146 0.000849
147 0.000839
148 0.000819
149 0.000795
150 0.000765
151 0.000750
152 0.000744
153 0.000764
154 0.000777
155 0.000787
156 0.000811
157 0.000833
158 0.000841
159 0.000847
160 0.000861
161 0.000869
162 0.000847
163 0.000835
164 0.000808
165 0.000802
166 0.000793
167 0.000787
168 0.000780
169 0.000781
170 0.000759
171 0.000741
172 0.000743
173 0.000717
174 0.000697
175 0.000678
176 0.000656
177 0.000645
178 0.000628
179 0.000636
180 0.000646
181 0.000638
182 0.000645
183 0.000657
184 0.000670
185 0.000688
186 0.000684
187 0.000683
188 0.000675
189 0.000650
190 0.000637
191 0.000632
192 0.000633
193 0.000662
194 0.000690
195 0.000715
196 0.000729
197 0.000727
198 0.000726
199 0.000716
200 0.000708
201 0.000689
202 0.000703
203 0.000715
204 0.000714
205 0.000711
206 0.000694
207 0.000677
208 0.000656
209 0.000634
210 0.000611
211 0.000591
212 0.000559
213 0.000531
214 0.000516
215 0.000511
216 0.000523
217 0.000528
218 0.000524
219 0.000526
220 0.000548
221 0.000558
222 0.000568
223 0.000571
224 0.000583
225 0.000581
226 0.000591
227 0.000590
228 0.000589
229 0.000580
230 0.000577
231 0.000583
232 0.000591
233 0.000605
234 0.000623
235 0.000619
236 0.000622
237 0.000625
238 0.000625
239 0.000626
240 0.000618
241 0.000628
242 0.000611
243 0.000579
244 0.000567
245 0.000555
246 0.000539
247 0.000528
248 0.000522
249 0.000536
