# i correlation
1 0.002369
2 0.002194
3 0.002066
4 0.001958
5 0.001866
6 0.001784
7 0.001726
8 0.001650
9 0.001555
10 0.001465
11 0.001395
12 0.001348
13 0.001306
14 0.001273
15 0.001241
16 0.001197
17 0.001165
18 0.001151
19 0.001106
20 0.001079
21 0.001070
22 0.001077
23 0.001057
24 0.001032
25 0.001020
26 0.000999
27 0.000986
28 0.000975
29 0.000994
30 0.000998
31 0.001001
32 0.001007
33 0.001008
34 0.001002
35 0.000971
36 0.000970
37 0.000980
38 0.000985
39 0.000978
40 0.000964
41 0.000935
42 0.000906
43 0.000891
44 0.000873
45 0.000860
46 0.000861
47 0.000857
48 0.000860
49 0.000862
50 0.000862
51 0.000857
52 0.000839
53 0.000818
54 0.000809
55 0.000813
56 0.000813
57 0.000812
58 0.000829
59 0.000839
60 0.000850
61 0.000876
62 0.000914
63 0.000942
64 0.000954
65 0.000970
66 0.000991
67 0.001023
68 0.001071
69 0.001136
70 0.001175
71 0.001171
72 0.001171
73 0.001175
74 0.001166
75 0.001151
76 0.001119
77 0.001083
78 0.001034
79 0.000983
80 0.000954
81 0.000921
82 0.000902
83 0.000899
84 0.000889
85 0.000881
86 0.000864
87 0.000868
88 0.000875
89 0.000871
90 0.000883
91 0.000913
92 0.000944
93 0.000944
94 0.000931
95 0.000937
96 0.000947
97 0.000935
98 0.000927
99 0.000937
100 0.000948
101 0.000952
102 0.000947
103 0.000918
104 0.000900
105 0.000902
106 0.000924
107 0.000938
108 0.000942
109 0.000951
110 0.000952
111 0.000934
112 0.000930
113 0.000940
114 0.000965
115 0.000940
116 0.000902
117 0.000891
118 0.000885
119 0.000895
120 0.000918
121 0.000947
122 0.000962
123 0.000948
124 0.000921
125 0.000918
126 0.000920
127 0.000918
128 0.000918
129 0.000932
130 0.000939
131 0.000930
132 0.000929
133 0.000932
134 0.000940
135 0.000942
136 0.000912
137 0.000872
138 0.000846
139 0.000833
140 0.000820
141 0.000820
142 0.000811
143 0.000801
144 0.000776
145 0.000742
146 0.000699
147 0.000650
148 0.000598
149 0.000553
150 0.000534
151 0.000519
152 0.000506
153 0.000475
154 0.000448
155 0.000426
156 0.000411
157 0.000408
158 0.000409
159 0.000429
160 0.000443
161 0.000447
162 0.000455
163 0.000475
164 0.000498
165 0.000511
166 0.000524
167 0.000530
168 0.000538
169 0.000547
170 0.000558
171 0.000569
172 0.000581
173 0.000590
174 0.000595
175 0.000609
176 0.000623
177 0.000644
178 0.000658
179 0.000688
180 0.000712
181 0.000734
182 0.000760
183 0.000792
184 0.000821
185 0.000804
186 0.000770
187 0.000738
188 0.000708
189 0.000698
190 0.000711
191 0.000714
192 0.000708
193 0.000709
194 0.000704
195 0.000698
196 0.000707
197 0.000743
198 0.000761
199 0.000769
200 0.000770
201 0.000758
202 0.000763
203 0.000761
204 0.000779
205 0.000795
206 0.000814
207 0.000815
208 0.000816
209 0.000804
210 0.000785
211 0.000769
212 0.000774
213 0.000782
214 0.000778
215 0.000785
216 0.000772
217 0.000748
218 0.000726
219 0.000703
220 0.000674
221 0.000651
222 0.000630
223 0.000592
224 0.000567
225 0.000551
226 0.000544
227 0.000545
228 0.000543
229 0.000551
230 0.000564
231 0.000584
232 0.000584
233 0.000588
234 0.000607
235 0.000622
236 0.000619
237 0.000618
238 0.000609
239 0.000608
240 0.000619
241 0.000627
242 0.000626
243 0.000633
244 0.000634
245 0.000614
246 0.000600
247 0.000614
248 0.000636
249 0.000647
