# i correlation
1 0.002623
2 0.002451
3 0.002308
4 0.002170
5 0.002058
6 0.001975
7 0.001914
8 0.001851
9 0.001799
10 0.001737
11 0.001680
12 0.001647
13 0.001621
14 0.001590
15 0.001553
16 0.001526
17 0.001525
18 0.001505
19 0.001497
20 0.001478
21 0.001463
22 0.001455
23 0.001425
24 0.001414
25 0.001406
26 0.001389
27 0.001358
28 0.001326
29 0.001311
30 0.001279
31 0.001241
32 0.001217
33 0.001183
34 0.001139
35 0.001096
36 0.001084
37 0.001061
38 0.001046
39 0.001050
40 0.001061
41 0.001078
42 0.001089
43 0.001105
44 0.001116
45 0.001133
46 0.001155
47 0.001163
48 0.001157
49 0.001145
50 0.001158
51 0.001155
52 0.001147
53 0.001158
54 0.001171
55 0.001169
56 0.001155
57 0.001120
58 0.001104
59 0.001096
60 0.001097
61 0.001096
62 0.001085
63 0.001066
64 0.001054
65 0.001057
66 0.001066
67 0.001086
68 0.001112
69 0.001132
70 0.001143
71 0.001162
72 0.001169
73 0.001178
74 0.001161
75 0.001147
76 0.001127
77 0.001102
78 0.001083
79 0.001061
80 0.001050
81 0.001030
82 0.000999
83 0.000973
84 0.000964
85 0.000960
86 0.000959
87 0.000934
88 0.000921
89 0.000885
90 0.000850
91 0.000822
92 0.000806
93 0.000812
94 0.000816
95 0.000825
96 0.000807
97 0.000829
98 0.000848
99 0.000834
100 0.000831
101 0.000832
102 0.000838
103 0.000837
104 0.000835
105 0.000854
106 0.000855
107 0.000826
108 0.000800
109 0.000772
110 0.000752
111 0.000727
112 0.000710
113 0.000690
114 0.000694
115 0.000700
116 0.000689
117 0.000686
118 0.000680
119 0.000691
120 0.000695
121 0.000707
122 0.000728
123 0.000746
124 0.000758
125 0.000786
126 0.000805
127 0.000842
128 0.000846
129 0.000833
130 0.000818
131 0.000802
132 0.000772
133 0.000741
134 0.000721
135 0.000703
136 0.000692
137 0.000673
138 0.000681
139 0.000708
140 0.000729
141 0.000738
142 0.000732
143 0.000711
144 0.000694
145 0.000676
146 0.000660
147 0.000659
148 0.000672
149 0.000679
150 0.000675
151 0.000670
152 0.000667
153 0.000676
154 0.000669
155 0.000658
156 0.000647
157 0.000646
158 0.000641
159 0.000647
160 0.000638
161 0.000612
162 0.000595
163 0.000577
164 0.000562
165 0.000554
166 0.000552
167 0.000549
168 0.000562
169 0.000571
170 0.000597
171 0.000620
172 0.000662
173 0.000697
174 0.000717
175 0.000728
176 0.000730
177 0.000717
178 0.000722
179 0.000725
180 0.000709
181 0.000723
182 0.000728
183 0.000745
184 0.000748
185 0.000764
186 0.000768
187 0.000764
188 0.000740
189 0.000716
190 0.000708
191 0.000692
192 0.000678
193 0.000672
194 0.000695
195 0.000710
196 0.000715
197 0.000704
198 0.000692
199 0.000699
200 0.000716
201 0.000720
202 0.000723
203 0.000736
204 0.000724
205 0.000698
206 0.000681
207 0.000682
208 0.000676
209 0.000676
210 0.000680
211 0.000685
212 0.000684
213 0.000698
214 0.000706
215 0.000719
216 0.000702
217 0.000683
218 0.000667
219 0.000644
220 0.000637
221 0.000615
222 0.000614
223 0.000611
224 0.000609
225 0.000611
226 0.000614
227 0.000614
228 0.000616
229 0.000614
230 0.000597
231 0.000570
232 0.000555
233 0.000553
234 0.000549
235 0.000546
236 0.000547
237 0.000550
238 0.000533
239 0.000544
240 0.000572
241 0.000589
242 0.000594
243 0.000602
244 0.000614
245 0.000610
246 0.000606
247 0.000620
248 0.000621
249 0.000607
