# i correlation
1 0.002796
2 0.002641
3 0.002506
4 0.002386
5 0.002296
6 0.002219
7 0.002137
8 0.002078
9 0.002028
10 0.001981
11 0.001933
12 0.001880
13 0.001836
14 0.001810
15 0.001786
16 0.001780
17 0.001765
18 0.001754
19 0.001713
20 0.001676
21 0.001654
22 0.001652
23 0.001645
24 0.001644
25 0.001650
26 0.001645
27 0.001663
28 0.001660
29 0.001664
30 0.001656
31 0.001643
32 0.001629
33 0.001613
34 0.001591
35 0.001565
36 0.001571
37 0.001571
38 0.001568
39 0.001552
40 0.001534
41 0.001510
42 0.001489
43 0.001492
44 0.001486
45 0.001480
46 0.001462
47 0.001454
48 0.001452
49 0.001449
50 0.001454
51 0.001461
52 0.001454
53 0.001449
54 0.001470
55 0.001482
56 0.001494
57 0.001513
58 0.001515
59 0.001527
60 0.001527
61 0.001527
62 0.001526
63 0.001529
64 0.001532
65 0.001539
66 0.001554
67 0.001577
68 0.001578
69 0.001575
70 0.001585
71 0.001585
72 0.001586
73 0.001589
74 0.001584
75 0.001589
76 0.001579
77 0.001568
78 0.001549
79 0.001514
80 0.001493
81 0.001492
82 0.001469
83 0.001477
84 0.001479
85 0.001461
86 0.001457
87 0.001439
88 0.001401
89 0.001382
90 0.001351
91 0.001339
92 0.001338
93 0.001335
94 0.001321
95 0.001300
96 0.001268
97 0.001242
98 0.001223
99 0.001208
100 0.001194
101 0.001194
102 0.001208
103 0.001232
104 0.001254
105 0.001263
106 0.001268
107 0.001283
108 0.001292
109 0.001312
110 0.001320
111 0.001339
112 0.001342
113 0.001343
114 0.001339
115 0.001323
116 0.001311
117 0.001306
118 0.001288
119 0.001288
120 0.001283
121 0.001306
122 0.001298
123 0.001281
124 0.001242
125 0.001223
126 0.001225
127 0.001214
128 0.001208
129 0.001206
130 0.001214
131 0.001245
132 0.001243
133 0.001238
134 0.001240
135 0.001248
136 0.001258
137 0.001282
138 0.001322
139 0.001343
140 0.001334
141 0.001310
142 0.001290
143 0.001282
144 0.001287
145 0.001267
146 0.001243
147 0.001234
148 0.001244
149 0.001249
150 0.001260
151 0.001262
152 0.001261
153 0.001262
154 0.001254
155 0.001244
156 0.001218
157 0.001216
158 0.001217
159 0.001212
160 0.001205
161 0.001213
162 0.001216
163 0.001211
164 0.001217
165 0.001212
166 0.001209
167 0.001225
168 0.001236
169 0.001238
170 0.001243
171 0.001233
172 0.001233
173 0.001221
174 0.001213
175 0.001228
176 0.001267
177 0.001277
178 0.001293
179 0.001314
180 0.001321
181 0.001338
182 0.001348
183 0.001343
184 0.001346
185 0.001350
186 0.001351
187 0.001348
188 0.001355
189 0.001371
190 0.001357
191 0.001334
192 0.001315
193 0.001301
194 0.001300
195 0.001295
196 0.001278
197 0.001289
198 0.001293
199 0.001287
200 0.001268
201 0.001231
202 0.001187
203 0.001150
204 0.001129
205 0.001115
206 0.001111
207 0.001119
208 0.001120
209 0.001113
210 0.001120
211 0.001113
212 0.001115
213 0.001110
214 0.001114
215 0.001136
216 0.001149
217 0.001149
218 0.001141
219 0.001141
220 0.001146
221 0.001154
222 0.001179
223 0.001202
224 0.001239
225 0.001261
226 0.001265
227 0.001246
228 0.001227
229 0.001202
230 0.001185
231 0.001167
232 0.001147
233 0.001133
234 0.001113
235 0.001089
236 0.001056
237 0.001029
238 0.001001
239 0.000958
240 0.000952
241 0.000919
242 0.000912
243 0.000915
244 0.000930
245 0.000938
246 0.000945
247 0.000951
248 0.000951
249 0.000948
