# i correlation
1 0.002228
2 0.002049
3 0.001890
4 0.001780
5 0.001686
6 0.001611
7 0.001540
8 0.001478
9 0.001426
10 0.001403
11 0.001376
12 0.001344
13 0.001338
14 0.001322
15 0.001302
16 0.001278
17 0.001270
18 0.001275
19 0.001272
20 0.001261
21 0.001240
22 0.001236
23 0.001240
24 0.001218
25 0.001209
26 0.001189
27 0.001182
28 0.001186
29 0.001185
30 0.001165
31 0.001162
32 0.001147
33 0.001144
34 0.001132
35 0.001133
36 0.001138
37 0.001142
38 0.001131
39 0.001113
40 0.001101
41 0.001089
42 0.001082
43 0.001089
44 0.001094
45 0.001110
46 0.001106
47 0.001110
48 0.001101
49 0.001070
50 0.001049
51 0.001029
52 0.001008
53 0.000996
54 0.000990
55 0.000989
56 0.001003
57 0.000996
58 0.000984
59 0.000973
60 0.000965
61 0.000956
62 0.000948
63 0.000918
64 0.000868
65 0.000826
66 0.000801
67 0.000785
68 0.000794
69 0.000810
70 0.000798
71 0.000771
72 0.000743
73 0.000727
74 0.000738
75 0.000755
76 0.000779
77 0.000785
78 0.000778
79 0.000756
80 0.000752
81 0.000746
82 0.000747
83 0.000725
84 0.000738
85 0.000754
86 0.000760
87 0.000771
88 0.000775
89 0.000768
90 0.000776
91 0.000783
92 0.000803
93 0.000818
94 0.000819
95 0.000808
96 0.000788
97 0.000772
98 0.000754
99 0.000741
100 0.000744
101 0.000726
102 0.000721
103 0.000720
104 0.000742
105 0.000788
106 0.000820
107 0.000847
108 0.000842
109 0.000838
110 0.000829
111 0.000810
112 0.000788
113 0.000776
114 0.000754
115 0.000756
116 0.000771
117 0.000770
118 0.000750
119 0.000731
120 0.000702
121 0.000696
122 0.000690
123 0.000695
124 0.000682
125 0.000690
126 0.000661
127 0.000663
128 0.000664
129 0.000669
130 0.000685
131 0.000686
132 0.000678
133 0.000660
134 0.000645
135 0.000644
136 0.000653
137 0.000662
138 0.000692
139 0.000706
140 0.000730
141 0.000725
142 0.000724
143 0.000726
144 0.000722
145 0.000728
146 0.000711
147 0.000682
148 0.000653
149 0.000615
150 0.000603
151 0.000606
152 0.000607
153 0.000643
154 0.000684
155 0.000712
156 0.000725
157 0.000717
158 0.000707
159 0.000712
160 0.000706
161 0.000710
162 0.000726
163 0.000740
164 0.000750
165 0.000755
166 0.000761
167 0.000754
168 0.000746
169 0.000728
170 0.000693
171 0.000666
172 0.000642
173 0.000614
174 0.000582
175 0.000574
176 0.000564
177 0.000543
178 0.000550
179 0.000562
180 0.000578
181 0.000602
182 0.000635
183 0.000658
184 0.000671
185 0.000690
186 0.000703
187 0.000713
188 0.000706
189 0.000707
190 0.000721
191 0.000732
192 0.000715
193 0.000709
194 0.000688
195 0.000659
196 0.000637
197 0.000637
198 0.000648
199 0.000673
200 0.000685
201 0.000710
202 0.000705
203 0.000702
204 0.000704
205 0.000689
206 0.000661
207 0.000650
208 0.000609
209 0.000594
210 0.000575
211 0.000547
212 0.000537
213 0.000532
214 0.000533
215 0.000535
216 0.000534
217 0.000550
218 0.000561
219 0.000554
220 0.000544
221 0.000532
222 0.000538
223 0.000561
224 0.000588
225 0.000598
226 0.000595
227 0.000593
228 0.000592
229 0.000593
230 0.000603
231 0.000614
232 0.000636
233 0.000640
234 0.000636
235 0.000644
236 0.000647
237 0.000639
238 0.000635
239 0.000600
240 0.000576
241 0.000544
242 0.000512
243 0.000493
244 0.000491
245 0.000492
246 0.000494
247 0.000491
248 0.000488
249 0.000487
