# i correlation
1 0.001942
2 0.001789
3 0.001681
4 0.001593
5 0.001512
6 0.001429
7 0.001360
8 0.001284
9 0.001217
10 0.001177
11 0.001135
12 0.001090
13 0.001050
14 0.001026
15 0.001002
16 0.000994
17 0.000969
18 0.000957
19 0.000951
20 0.000937
21 0.000937
22 0.000956
23 0.000973
24 0.000962
25 0.000949
26 0.000948
27 0.000947
28 0.000937
29 0.000920
30 0.000897
31 0.000879
32 0.000869
33 0.000843
34 0.000828
35 0.000805
36 0.000793
37 0.000785
38 0.000785
39 0.000778
40 0.000791
41 0.000797
42 0.000801
43 0.000796
44 0.000790
45 0.000782
46 0.000747
47 0.000699
48 0.000657
49 0.000615
50 0.000612
51 0.000622
52 0.000607
53 0.000593
54 0.000587
55 0.000585
56 0.000590
57 0.000596
58 0.000616
59 0.000613
60 0.000613
61 0.000620
62 0.000640
63 0.000674
64 0.000682
65 0.000700
66 0.000721
67 0.000747
68 0.000773
69 0.000772
70 0.000785
71 0.000778
72 0.000744
73 0.000708
74 0.000689
75 0.000658
76 0.000622
77 0.000570
78 0.000532
79 0.000517
80 0.000520
81 0.000525
82 0.000502
83 0.000472
84 0.000460
85 0.000461
86 0.000473
87 0.000456
88 0.000424
89 0.000391
90 0.000386
91 0.000396
92 0.000396
93 0.000393
94 0.000391
95 0.000392
96 0.000400
97 0.000409
98 0.000424
99 0.000438
100 0.000443
101 0.000445
102 0.000457
103 0.000460
104 0.000455
105 0.000450
106 0.000448
107 0.000447
108 0.000459
109 0.000481
110 0.000488
111 0.000515
112 0.000537
113 0.000546
114 0.000546
115 0.000545
116 0.000553
117 0.000552
118 0.000545
119 0.000505
120 0.000475
121 0.000442
122 0.000418
123 0.000393
124 0.000375
125 0.000370
126 0.000380
127 0.000391
128 0.000403
129 0.000404
130 0.000405
131 0.000398
132 0.000414
133 0.000424
134 0.000430
135 0.000444
136 0.000469
137 0.000500
138 0.000524
139 0.000520
140 0.000516
141 0.000500
142 0.000494
143 0.000490
144 0.000494
145 0.000478
146 0.000455
147 0.000429
148 0.000410
149 0.000391
150 0.000373
151 0.000354
152 0.000333
153 0.000322
154 0.000319
155 0.000321
156 0.000321
157 0.000322
158 0.000319
159 0.000307
160 0.000305
161 0.000309
162 0.000301
163 0.000277
164 0.000246
165 0.000221
166 0.000213
167 0.000210
168 0.000222
169 0.000234
170 0.000223
171 0.000200
172 0.000197
173 0.000197
174 0.000183
175 0.000160
176 0.000154
177 0.000153
178 0.000171
179 0.000198
180 0.000216
181 0.000232
182 0.000260
183 0.000301
184 0.000343
185 0.000365
186 0.000366
187 0.000344
188 0.000336
189 0.000307
190 0.000275
191 0.000258
192 0.000246
193 0.000231
194 0.000200
195 0.000189
196 0.000175
197 0.000164
198 0.000163
199 0.000171
200 0.000164
201 0.000153
202 0.000158
203 0.000171
204 0.000170
205 0.000171
206 0.000200
207 0.000216
208 0.000223
209 0.000237
210 0.000250
211 0.000274
212 0.000308
213 0.000323
214 0.000333
215 0.000329
216 0.000324
217 0.000329
218 0.000344
219 0.000346
220 0.000342
221 0.000318
222 0.000306
223 0.000295
224 0.000302
225 0.000291
226 0.000278
227 0.000261
228 0.000256
229 0.000266
230 0.000249
231 0.000231
232 0.000206
233 0.000176
234 0.000156
235 0.000139
236 0.000138
237 0.000146
238 0.000148
239 0.000166
240 0.000183
241 0.000183
242 0.000192
243 0.000200
244 0.000224
245 0.000224
246 0.000233
247 0.000236
248 0.000231
249 0.000254
