# i correlation
1 0.002518
2 0.002356
3 0.002221
4 0.002104
5 0.002005
6 0.001914
7 0.001826
8 0.001764
9 0.001725
10 0.001694
11 0.001648
12 0.001616
13 0.001573
14 0.001525
15 0.001491
16 0.001465
17 0.001459
18 0.001460
19 0.001471
20 0.001466
21 0.001461
22 0.001464
23 0.001457
24 0.001450
25 0.001443
26 0.001434
27 0.001428
28 0.001421
29 0.001419
30 0.001409
31 0.001371
32 0.001347
33 0.001319
34 0.001300
35 0.001301
36 0.001322
37 0.001335
38 0.001329
39 0.001325
40 0.001286
41 0.001249
42 0.001217
43 0.001193
44 0.001165
45 0.001143
46 0.001119
47 0.001097
48 0.001096
49 0.001091
50 0.001089
51 0.001101
52 0.001095
53 0.001089
54 0.001088
55 0.001095
56 0.001096
57 0.001089
58 0.001059
59 0.001024
60 0.001018
61 0.000977
62 0.000950
63 0.000918
64 0.000893
65 0.000868
66 0.000857
67 0.000872
68 0.000879
69 0.000864
70 0.000838
71 0.000821
72 0.000827
73 0.000852
74 0.000864
75 0.000887
76 0.000907
77 0.000938
78 0.000948
79 0.000937
80 0.000928
81 0.000937
82 0.000946
83 0.000938
84 0.000922
85 0.000905
86 0.000902
87 0.000890
88 0.000873
89 0.000861
90 0.000857
91 0.000849
92 0.000858
93 0.000875
94 0.000899
95 0.000897
96 0.000895
97 0.000882
98 0.000889
99 0.000900
100 0.000884
101 0.000854
102 0.000851
103 0.000863
104 0.000887
105 0.000905
106 0.000913
107 0.000904
108 0.000902
109 0.000888
110 0.000876
111 0.000873
112 0.000877
113 0.000877
114 0.000872
115 0.000866
116 0.000875
117 0.000881
118 0.000890
119 0.000909
120 0.000909
121 0.000916
122 0.000931
123 0.000958
124 0.000978
125 0.000994
126 0.000992
127 0.000989
128 0.000998
129 0.001011
130 0.001010
131 0.001010
132 0.000995
133 0.000981
134 0.000963
135 0.000957
136 0.000950
137 0.000944
138 0.000924
139 0.000898
140 0.000860
141 0.000847
142 0.000842
143 0.000838
144 0.000837
145 0.000833
146 0.000833
147 0.000816
148 0.000810
149 0.000810
150 0.000794
151 0.000786
152 0.000780
153 0.000765
154 0.000744
155 0.000746
156 0.000734
157 0.000705
158 0.000674
159 0.000660
160 0.000626
161 0.000603
162 0.000595
163 0.000584
164 0.000573
165 0.000569
166 0.000562
167 0.000567
168 0.000562
169 0.000543
170 0.000524
171 0.000521
172 0.000521
173 0.000516
174 0.000514
175 0.000508
176 0.000507
177 0.000511
178 0.000504
179 0.000494
180 0.000490
181 0.000513
182 0.000517
183 0.000509
184 0.000495
185 0.000486
186 0.000476
187 0.000463
188 0.000457
189 0.000444
190 0.000405
191 0.000378
192 0.000364
193 0.000355
194 0.000339
195 0.000306
196 0.000282
197 0.000263
198 0.000244
199 0.000228
200 0.000222
201 0.000228
202 0.000237
203 0.000268
204 0.000271
205 0.000269
206 0.000303
207 0.000320
208 0.000334
209 0.000343
210 0.000348
211 0.000357
212 0.000362
213 0.000364
214 0.000347
215 0.000323
216 0.000290
217 0.000257
218 0.000247
219 0.000240
220 0.000245
221 0.000247
222 0.000253
223 0.000276
224 0.000281
225 0.000288
226 0.000288
227 0.000285
228 0.000273
229 0.000263
230 0.000263
231 0.000262
232 0.000254
233 0.000261
234 0.000252
235 0.000260
236 0.000280
237 0.000299
238 0.000301
239 0.000313
240 0.000327
241 0.000347
242 0.000367
243 0.000382
244 0.000398
245 0.000416
246 0.000422
247 0.000435
248 0.000455
249 0.000474
