# i correlation
1 0.002250
2 0.002080
3 0.001942
4 0.001814
5 0.001686
6 0.001595
7 0.001530
8 0.001469
9 0.001402
10 0.001366
11 0.001343
12 0.001330
13 0.001333
14 0.001364
15 0.001375
16 0.001369
17 0.001381
18 0.001393
19 0.001366
20 0.001350
21 0.001345
22 0.001328
23 0.001293
24 0.001256
25 0.001230
26 0.001188
27 0.001138
28 0.001110
29 0.001120
30 0.001128
31 0.001126
32 0.001124
33 0.001136
34 0.001125
35 0.001114
36 0.001128
37 0.001123
38 0.001111
39 0.001129
40 0.001125
41 0.001096
42 0.001076
43 0.001045
44 0.001001
45 0.000946
46 0.000922
47 0.000909
48 0.000900
49 0.000892
50 0.000903
51 0.000923
52 0.000929
53 0.000934
54 0.000942
55 0.000944
56 0.000950
57 0.000964
58 0.000944
59 0.000934
60 0.000915
61 0.000886
62 0.000846
63 0.000800
64 0.000761
65 0.000746
66 0.000718
67 0.000705
68 0.000692
69 0.000677
70 0.000661
71 0.000666
72 0.000683
73 0.000685
74 0.000681
75 0.000695
76 0.000712
77 0.000724
78 0.000718
79 0.000709
80 0.000703
81 0.000702
82 0.000708
83 0.000718
84 0.000712
85 0.000703
86 0.000689
87 0.000672
88 0.000670
89 0.000660
90 0.000670
91 0.000651
92 0.000655
93 0.000674
94 0.000673
95 0.000689
96 0.000716
97 0.000725
98 0.000716
99 0.000684
100 0.000654
101 0.000623
102 0.000594
103 0.000577
104 0.000554
105 0.000540
106 0.000537
107 0.000538
108 0.000551
109 0.000560
110 0.000583
111 0.000617
112 0.000636
113 0.000669
114 0.000701
115 0.000734
116 0.000759
117 0.000759
118 0.000750
119 0.000745
120 0.000732
121 0.000730
122 0.000739
123 0.000744
124 0.000737
125 0.000731
126 0.000727
127 0.000741
128 0.000747
129 0.000756
130 0.000759
131 0.000752
132 0.000747
133 0.000748
134 0.000739
135 0.000742
136 0.000756
137 0.000764
138 0.000774
139 0.000791
140 0.000802
141 0.000799
142 0.000793
143 0.000769
144 0.000766
145 0.000777
146 0.000789
147 0.000798
148 0.000802
149 0.000818
150 0.000823
151 0.000834
152 0.000849
153 0.000869
154 0.000868
155 0.000856
156 0.000826
157 0.000800
158 0.000775
159 0.000758
160 0.000755
161 0.000744
162 0.000736
163 0.000731
164 0.000719
165 0.000716
166 0.000709
167 0.000708
168 0.000706
169 0.000703
170 0.000704
171 0.000707
172 0.000721
173 0.000722
174 0.000705
175 0.000703
176 0.000692
177 0.000678
178 0.000677
179 0.000654
180 0.000645
181 0.000631
182 0.000630
183 0.000630
184 0.000620
185 0.000616
186 0.000616
187 0.000596
188 0.000576
189 0.000557
190 0.000545
191 0.000507
192 0.000464
193 0.000434
194 0.000407
195 0.000393
196 0.000390
197 0.000389
198 0.000393
199 0.000407
200 0.000416
201 0.000418
202 0.000421
203 0.000426
204 0.000444
205 0.000436
206 0.000428
207 0.000410
208 0.000403
209 0.000407
210 0.000424
211 0.000437
212 0.000467
213 0.000489
214 0.000511
215 0.000496
216 0.000490
217 0.000486
218 0.000482
219 0.000484
220 0.000471
221 0.000445
222 0.000406
223 0.000372
224 0.000346
225 0.000315
226 0.000303
227 0.000295
228 0.000296
229 0.000308
230 0.000330
231 0.000342
232 0.000375
233 0.000385
234 0.000407
235 0.000436
236 0.000453
237 0.000474
238 0.000481
239 0.000473
240 0.000459
241 0.000444
242 0.000419
243 0.000414
244 0.000391
245 0.000366
246 0.000344
247 0.000313
248 0.000288
249 0.000282
