# i correlation
1 0.001663
2 0.001628
3 0.001596
4 0.001572
5 0.001551
6 0.001532
7 0.001518
8 0.001508
9 0.001501
10 0.001495
11 0.001484
12 0.001471
13 0.001457
14 0.001446
15 0.001435
16 0.001428
17 0.001420
18 0.001412
19 0.001404
20 0.001397
21 0.001391
22 0.001386
23 0.001379
24 0.001371
25 0.001359
26 0.001343
27 0.001329
28 0.001316
29 0.001305
30 0.001295
31 0.001288
32 0.001280
33 0.001273
34 0.001264
35 0.001255
36 0.001246
37 0.001236
38 0.001230
39 0.001223
40 0.001216
41 0.001209
42 0.001202
43 0.001199
44 0.001192
45 0.001185
46 0.001178
47 0.001174
48 0.001169
49 0.001163
50 0.001153
51 0.001144
52 0.001140
53 0.001139
54 0.001133
55 0.001132
56 0.001131
57 0.001130
58 0.001126
59 0.001118
60 0.001112
61 0.001104
62 0.001097
63 0.001092
64 0.001087
65 0.001084
66 0.001077
67 0.001070
68 0.001060
69 0.001051
70 0.001048
71 0.001047
72 0.001047
73 0.001047
74 0.001043
75 0.001039
76 0.001038
77 0.001036
78 0.001033
79 0.001028
80 0.001024
81 0.001023
82 0.001021
83 0.001015
84 0.001010
85 0.001001
86 0.000995
87 0.000987
88 0.000981
89 0.000971
90 0.000960
91 0.000951
92 0.000945
93 0.000940
94 0.000939
95 0.000938
96 0.000939
97 0.000940
98 0.000938
99 0.000936
100 0.000929
101 0.000923
102 0.000916
103 0.000909
104 0.000903
105 0.000902
106 0.000900
107 0.000898
108 0.000894
109 0.000892
110 0.000890
111 0.000888
112 0.000885
113 0.000882
114 0.000878
115 0.000876
116 0.000874
117 0.000877
118 0.000877
119 0.000874
120 0.000872
121 0.000869
122 0.000864
123 0.000859
124 0.000851
125 0.000843
126 0.000838
127 0.000836
128 0.000836
129 0.000833
130 0.000829
131 0.000826
132 0.000824
133 0.000822
134 0.000818
135 0.000811
136 0.000806
137 0.000804
138 0.000805
139 0.000804
140 0.000804
141 0.000806
142 0.000807
143 0.000806
144 0.000803
145 0.000800
146 0.000794
147 0.000786
148 0.000781
149 0.000775
150 0.000770
151 0.000767
152 0.000763
153 0.000760
154 0.000759
155 0.000758
156 0.000755
157 0.000753
158 0.000752
159 0.000757
160 0.000759
161 0.000758
162 0.000758
163 0.000755
164 0.000752
165 0.000749
166 0.000745
167 0.000742
168 0.000738
169 0.000733
170 0.000732
171 0.000729
172 0.000725
173 0.000719
174 0.000714
175 0.000713
176 0.000713
177 0.000709
178 0.000704
179 0.000698
180 0.000697
181 0.000696
182 0.000694
183 0.000693
184 0.000691
185 0.000691
186 0.000690
187 0.000687
188 0.000684
189 0.000682
190 0.000686
191 0.000688
192 0.000693
193 0.000698
194 0.000700
195 0.000701
196 0.000698
197 0.000696
198 0.000694
199 0.000694
200 0.000691
201 0.000693
202 0.000694
203 0.000696
204 0.000700
205 0.000702
206 0.000702
207 0.000705
208 0.000707
209 0.000709
210 0.000703
211 0.000698
212 0.000691
213 0.000686
214 0.000687
215 0.000691
216 0.000697
217 0.000699
218 0.000700
219 0.000700
220 0.000695
221 0.000691
222 0.000685
223 0.000682
224 0.000681
225 0.000683
226 0.000685
227 0.000689
228 0.000694
229 0.000694
230 0.000690
231 0.000687
232 0.000686
233 0.000687
234 0.000690
235 0.000691
236 0.000693
237 0.000696
238 0.000697
239 0.000701
240 0.000704
241 0.000704
242 0.000699
243 0.000698
244 0.000693
245 0.000689
246 0.000683
247 0.000680
248 0.000683
249 0.000685
250 0.000689
251 0.000689
252 0.000688
253 0.000685
254 0.000682
255 0.000677
256 0.000679
257 0.000681
258 0.000687
259 0.000693
260 0.000699
261 0.000701
262 0.000702
263 0.000701
264 0.000703
265 0.000700
266 0.000698
267 0.000694
268 0.000691
269 0.000689
270 0.000685
271 0.000683
272 0.000687
273 0.000688
274 0.000690
275 0.000688
276 0.000689
277 0.000686
278 0.000677
279 0.000669
280 0.000664
281 0.000660
282 0.000658
283 0.000656
284 0.000652
285 0.000651
286 0.000649
287 0.000645
288 0.000641
289 0.000634
290 0.000628
291 0.000626
292 0.000628
293 0.000629
294 0.000628
295 0.000624
296 0.000622
297 0.000621
298 0.000618
299 0.000614
300 0.000613
301 0.000614
302 0.000612
303 0.000612
304 0.000613
305 0.000613
306 0.000611
307 0.000610
308 0.000611
309 0.000608
310 0.000608
311 0.000605
312 0.000602
313 0.000599
314 0.000600
315 0.000603
316 0.000607
317 0.000604
318 0.000600
319 0.000595
320 0.000592
321 0.000590
322 0.000589
323 0.000586
324 0.000584
325 0.000581
326 0.000581
327 0.000580
328 0.000572
329 0.000565
330 0.000561
331 0.000559
332 0.000558
333 0.000556
334 0.000554
335 0.000552
336 0.000552
337 0.000552
338 0.000550
339 0.000547
340 0.000546
341 0.000545
342 0.000546
343 0.000545
344 0.000543
345 0.000543
346 0.000545
347 0.000545
348 0.000543
349 0.000541
350 0.000539
351 0.000535
352 0.000531
353 0.000530
354 0.000530
355 0.000530
356 0.000532
357 0.000536
358 0.000540
359 0.000545
360 0.000550
361 0.000553
362 0.000557
363 0.000559
364 0.000559
365 0.000557
366 0.000555
367 0.000553
368 0.000553
369 0.000553
370 0.000548
371 0.000546
372 0.000543
373 0.000544
374 0.000541
375 0.000539
376 0.000534
377 0.000534
378 0.000532
379 0.000534
380 0.000534
381 0.000533
382 0.000533
383 0.000532
384 0.000534
385 0.000533
386 0.000531
387 0.000532
388 0.000532
389 0.000532
390 0.000533
391 0.000534
392 0.000534
393 0.000533
394 0.000533
395 0.000531
396 0.000530
397 0.000530
398 0.000532
399 0.000536
400 0.000537
401 0.000536
402 0.000536
403 0.000538
404 0.000537
405 0.000532
406 0.000524
407 0.000516
408 0.000511
409 0.000506
410 0.000503
411 0.000499
412 0.000494
413 0.000492
414 0.000491
415 0.000490
416 0.000487
417 0.000484
418 0.000483
419 0.000482
420 0.000482
421 0.000480
422 0.000475
423 0.000473
424 0.000471
425 0.000469
426 0.000469
427 0.000468
428 0.000465
429 0.000464
430 0.000461
431 0.000461
432 0.000461
433 0.000462
434 0.000463
435 0.000466
436 0.000470
437 0.000473
438 0.000474
439 0.000474
440 0.000474
441 0.000471
442 0.000472
443 0.000474
444 0.000480
445 0.000481
446 0.000479
447 0.000476
448 0.000471
449 0.000466
450 0.000460
451 0.000455
452 0.000451
453 0.000450
454 0.000451
455 0.000453
456 0.000457
457 0.000461
458 0.000463
459 0.000463
460 0.000463
461 0.000463
462 0.000461
463 0.000460
464 0.000458
465 0.000458
466 0.000460
467 0.000462
468 0.000463
469 0.000464
470 0.000465
471 0.000464
472 0.000462
473 0.000460
474 0.000461
475 0.000463
476 0.000467
477 0.000471
478 0.000476
479 0.000477
480 0.000476
481 0.000476
482 0.000473
483 0.000470
484 0.000469
485 0.000468
486 0.000467
487 0.000466
488 0.000465
489 0.000460
490 0.000455
491 0.000454
492 0.000453
493 0.000450
494 0.000446
495 0.000441
496 0.000438
497 0.000435
498 0.000432
499 0.000428
500 0.000426
501 0.000429
502 0.000432
503 0.000434
504 0.000433
505 0.000431
506 0.000428
507 0.000426
508 0.000425
509 0.000428
510 0.000430
511 0.000430
512 0.000432
513 0.000432
514 0.000431
515 0.000429
516 0.000425
517 0.000423
518 0.000416
519 0.000411
520 0.000408
521 0.000406
522 0.000406
523 0.000405
524 0.000403
525 0.000399
526 0.000398
527 0.000394
528 0.000391
529 0.000387
530 0.000384
531 0.000384
532 0.000384
533 0.000385
534 0.000386
535 0.000386
536 0.000388
537 0.000386
538 0.000384
539 0.000380
540 0.000376
541 0.000374
542 0.000371
543 0.000366
544 0.000365
545 0.000364
546 0.000363
547 0.000357
548 0.000355
549 0.000351
550 0.000349
551 0.000350
552 0.000347
553 0.000344
554 0.000342
555 0.000341
556 0.000340
557 0.000338
558 0.000343
559 0.000344
560 0.000345
561 0.000346
562 0.000345
563 0.000345
564 0.000347
565 0.000345
566 0.000344
567 0.000342
568 0.000340
569 0.000341
570 0.000343
571 0.000341
572 0.000341
573 0.000341
574 0.000344
575 0.000347
576 0.000350
577 0.000352
578 0.000351
579 0.000352
580 0.000353
581 0.000351
582 0.000350
583 0.000349
584 0.000347
585 0.000348
586 0.000350
587 0.000349
588 0.000349
589 0.000351
590 0.000351
591 0.000352
592 0.000349
593 0.000348
594 0.000349
595 0.000350
596 0.000352
597 0.000351
598 0.000351
599 0.000351
600 0.000348
601 0.000344
602 0.000342
603 0.000340
604 0.000340
605 0.000340
606 0.000340
607 0.000343
608 0.000346
609 0.000347
610 0.000346
611 0.000343
612 0.000340
613 0.000337
614 0.000333
615 0.000328
616 0.000324
617 0.000318
618 0.000317
619 0.000318
620 0.000319
621 0.000318
622 0.000318
623 0.000319
624 0.000319
625 0.000319
626 0.000318
627 0.000316
628 0.000315
629 0.000314
630 0.000314
631 0.000312
632 0.000311
633 0.000310
634 0.000311
635 0.000311
636 0.000310
637 0.000310
638 0.000310
639 0.000309
640 0.000307
641 0.000305
642 0.000303
643 0.000301
644 0.000298
645 0.000294
646 0.000290
647 0.000288
648 0.000285
649 0.000282
650 0.000282
651 0.000283
652 0.000283
653 0.000283
654 0.000284
655 0.000283
656 0.000282
657 0.000282
658 0.000284
659 0.000284
660 0.000285
661 0.000287
662 0.000286
663 0.000289
664 0.000292
665 0.000291
666 0.000289
667 0.000288
668 0.000289
669 0.000290
670 0.000290
671 0.000290
672 0.000291
673 0.000292
674 0.000294
675 0.000295
676 0.000299
677 0.000303
678 0.000306
679 0.000308
680 0.000309
681 0.000310
682 0.000310
683 0.000310
684 0.000310
685 0.000313
686 0.000315
687 0.000318
688 0.000319
689 0.000320
690 0.000319
691 0.000318
692 0.000316
693 0.000314
694 0.000312
695 0.000312
696 0.000314
697 0.000314
698 0.000311
699 0.000308
700 0.000308
701 0.000307
702 0.000306
703 0.000306
704 0.000307
705 0.000307
706 0.000309
707 0.000311
708 0.000313
709 0.000313
710 0.000312
711 0.000311
712 0.000309
713 0.000307
714 0.000306
715 0.000303
716 0.000301
717 0.000298
718 0.000296
719 0.000293
720 0.000290
721 0.000287
722 0.000283
723 0.000278
724 0.000275
725 0.000273
726 0.000272
727 0.000267
728 0.000264
729 0.000259
730 0.000258
731 0.000258
732 0.000257
733 0.000255
734 0.000254
735 0.000253
736 0.000253
737 0.000253
738 0.000251
739 0.000252
740 0.000254
741 0.000256
742 0.000258
743 0.000258
744 0.000258
745 0.000258
746 0.000257
747 0.000256
748 0.000255
749 0.000254
750 0.000255
751 0.000257
752 0.000260
753 0.000263
754 0.000265
755 0.000264
756 0.000263
757 0.000261
758 0.000258
759 0.000254
760 0.000252
761 0.000252
762 0.000254
763 0.000255
764 0.000255
765 0.000256
766 0.000256
767 0.000259
768 0.000259
769 0.000259
770 0.000258
771 0.000257
772 0.000256
773 0.000255
774 0.000254
775 0.000250
776 0.000244
777 0.000238
778 0.000233
779 0.000230
780 0.000225
781 0.000221
782 0.000217
783 0.000213
784 0.000210
785 0.000207
786 0.000205
787 0.000204
788 0.000202
789 0.000198
790 0.000194
791 0.000190
792 0.000188
793 0.000185
794 0.000182
795 0.000180
796 0.000181
797 0.000181
798 0.000182
799 0.000180
800 0.000178
801 0.000175
802 0.000172
803 0.000168
804 0.000165
805 0.000163
806 0.000160
807 0.000155
808 0.000149
809 0.000145
