# i correlation
1 0.001596
2 0.001568
3 0.001540
4 0.001516
5 0.001491
6 0.001471
7 0.001452
8 0.001436
9 0.001419
10 0.001408
11 0.001396
12 0.001383
13 0.001371
14 0.001359
15 0.001349
16 0.001338
17 0.001324
18 0.001312
19 0.001298
20 0.001287
21 0.001276
22 0.001262
23 0.001251
24 0.001238
25 0.001228
26 0.001216
27 0.001207
28 0.001199
29 0.001194
30 0.001191
31 0.001190
32 0.001190
33 0.001188
34 0.001185
35 0.001180
36 0.001175
37 0.001172
38 0.001167
39 0.001165
40 0.001163
41 0.001162
42 0.001158
43 0.001158
44 0.001153
45 0.001150
46 0.001143
47 0.001138
48 0.001131
49 0.001128
50 0.001124
51 0.001119
52 0.001116
53 0.001116
54 0.001117
55 0.001119
56 0.001118
57 0.001118
58 0.001113
59 0.001107
60 0.001103
61 0.001097
62 0.001093
63 0.001089
64 0.001085
65 0.001082
66 0.001079
67 0.001074
68 0.001068
69 0.001061
70 0.001056
71 0.001050
72 0.001047
73 0.001047
74 0.001046
75 0.001044
76 0.001039
77 0.001035
78 0.001029
79 0.001020
80 0.001011
81 0.001002
82 0.000992
83 0.000981
84 0.000972
85 0.000965
86 0.000959
87 0.000956
88 0.000957
89 0.000956
90 0.000953
91 0.000947
92 0.000937
93 0.000929
94 0.000922
95 0.000919
96 0.000915
97 0.000911
98 0.000907
99 0.000906
100 0.000905
101 0.000902
102 0.000899
103 0.000898
104 0.000894
105 0.000894
106 0.000891
107 0.000892
108 0.000890
109 0.000889
110 0.000885
111 0.000885
112 0.000882
113 0.000881
114 0.000880
115 0.000879
116 0.000876
117 0.000875
118 0.000876
119 0.000875
120 0.000878
121 0.000879
122 0.000879
123 0.000876
124 0.000873
125 0.000869
126 0.000861
127 0.000856
128 0.000853
129 0.000848
130 0.000842
131 0.000839
132 0.000837
133 0.000833
134 0.000830
135 0.000825
136 0.000820
137 0.000812
138 0.000808
139 0.000804
140 0.000799
141 0.000793
142 0.000789
143 0.000785
144 0.000783
145 0.000782
146 0.000781
147 0.000779
148 0.000779
149 0.000771
150 0.000768
151 0.000764
152 0.000761
153 0.000756
154 0.000755
155 0.000752
156 0.000750
157 0.000752
158 0.000754
159 0.000756
160 0.000756
161 0.000760
162 0.000764
163 0.000768
164 0.000774
165 0.000778
166 0.000780
167 0.000780
168 0.000780
169 0.000779
170 0.000777
171 0.000776
172 0.000774
173 0.000771
174 0.000769
175 0.000767
176 0.000764
177 0.000763
178 0.000761
179 0.000760
180 0.000758
181 0.000754
182 0.000748
183 0.000743
184 0.000733
185 0.000725
186 0.000715
187 0.000704
188 0.000691
189 0.000682
190 0.000674
191 0.000669
192 0.000662
193 0.000658
194 0.000654
195 0.000652
196 0.000653
197 0.000655
198 0.000653
199 0.000650
200 0.000649
201 0.000648
202 0.000645
203 0.000642
204 0.000638
205 0.000636
206 0.000635
207 0.000636
208 0.000637
209 0.000639
210 0.000638
211 0.000638
212 0.000638
213 0.000640
214 0.000639
215 0.000639
216 0.000641
217 0.000640
218 0.000638
219 0.000638
220 0.000637
221 0.000638
222 0.000640
223 0.000642
224 0.000643
225 0.000645
226 0.000643
227 0.000640
228 0.000640
229 0.000642
230 0.000639
231 0.000634
232 0.000630
233 0.000630
234 0.000628
235 0.000623
236 0.000621
237 0.000617
238 0.000613
239 0.000613
240 0.000615
241 0.000613
242 0.000608
243 0.000604
244 0.000601
245 0.000600
246 0.000599
247 0.000597
248 0.000595
249 0.000596
250 0.000597
251 0.000595
252 0.000593
253 0.000592
254 0.000589
255 0.000585
256 0.000583
257 0.000582
258 0.000578
259 0.000574
260 0.000569
261 0.000564
262 0.000559
263 0.000554
264 0.000549
265 0.000548
266 0.000546
267 0.000542
268 0.000541
269 0.000542
270 0.000543
271 0.000545
272 0.000548
273 0.000551
274 0.000553
275 0.000554
276 0.000551
277 0.000549
278 0.000548
279 0.000548
280 0.000549
281 0.000548
282 0.000550
283 0.000552
284 0.000553
285 0.000553
286 0.000556
287 0.000558
288 0.000558
289 0.000557
290 0.000555
291 0.000550
292 0.000544
293 0.000541
294 0.000538
295 0.000534
296 0.000528
297 0.000525
298 0.000520
299 0.000515
300 0.000512
301 0.000508
302 0.000503
303 0.000498
304 0.000494
305 0.000489
306 0.000486
307 0.000482
308 0.000477
309 0.000471
310 0.000465
311 0.000459
312 0.000453
313 0.000447
314 0.000442
315 0.000438
316 0.000436
317 0.000429
318 0.000425
319 0.000421
320 0.000417
321 0.000413
322 0.000411
323 0.000410
324 0.000411
325 0.000411
326 0.000411
327 0.000410
328 0.000413
329 0.000415
330 0.000418
331 0.000421
332 0.000423
333 0.000424
334 0.000423
335 0.000424
336 0.000425
337 0.000427
338 0.000427
339 0.000430
340 0.000432
341 0.000437
342 0.000441
343 0.000446
344 0.000450
345 0.000454
346 0.000459
347 0.000464
348 0.000469
349 0.000473
350 0.000474
351 0.000477
352 0.000477
353 0.000478
354 0.000478
355 0.000480
356 0.000478
357 0.000479
358 0.000478
359 0.000474
360 0.000472
361 0.000470
362 0.000468
363 0.000465
364 0.000465
365 0.000462
366 0.000459
367 0.000456
368 0.000455
369 0.000452
370 0.000448
371 0.000445
372 0.000441
373 0.000438
374 0.000435
375 0.000433
376 0.000430
377 0.000428
378 0.000426
379 0.000423
380 0.000420
381 0.000418
382 0.000415
383 0.000415
384 0.000414
385 0.000412
386 0.000410
387 0.000408
388 0.000405
389 0.000401
390 0.000398
391 0.000395
392 0.000392
393 0.000388
394 0.000386
395 0.000383
396 0.000381
397 0.000382
398 0.000382
399 0.000382
400 0.000385
401 0.000387
402 0.000388
403 0.000390
404 0.000394
405 0.000397
406 0.000398
407 0.000399
408 0.000401
409 0.000402
410 0.000403
411 0.000405
412 0.000405
413 0.000406
414 0.000406
415 0.000407
416 0.000408
417 0.000410
418 0.000412
419 0.000414
420 0.000417
421 0.000418
422 0.000419
423 0.000419
424 0.000418
425 0.000418
426 0.000418
427 0.000415
428 0.000412
429 0.000410
430 0.000410
431 0.000410
432 0.000410
433 0.000410
434 0.000408
435 0.000404
436 0.000402
437 0.000399
438 0.000397
439 0.000392
440 0.000389
441 0.000388
442 0.000385
443 0.000381
444 0.000376
445 0.000372
446 0.000370
447 0.000368
448 0.000366
449 0.000363
450 0.000363
451 0.000359
452 0.000358
453 0.000356
454 0.000356
455 0.000353
456 0.000352
457 0.000348
458 0.000347
459 0.000345
460 0.000343
461 0.000340
462 0.000341
463 0.000341
464 0.000342
465 0.000342
466 0.000344
467 0.000344
468 0.000344
469 0.000346
470 0.000347
471 0.000347
472 0.000346
473 0.000348
474 0.000349
475 0.000351
476 0.000352
477 0.000353
478 0.000354
479 0.000353
480 0.000354
481 0.000356
482 0.000354
483 0.000353
484 0.000351
485 0.000348
486 0.000347
487 0.000347
488 0.000344
489 0.000342
490 0.000340
491 0.000338
492 0.000334
493 0.000332
494 0.000329
495 0.000326
496 0.000325
497 0.000325
498 0.000324
499 0.000325
500 0.000323
501 0.000323
502 0.000323
503 0.000324
504 0.000322
505 0.000323
506 0.000324
507 0.000326
508 0.000328
509 0.000329
510 0.000328
511 0.000328
512 0.000329
513 0.000329
514 0.000327
515 0.000325
516 0.000324
517 0.000322
518 0.000322
519 0.000324
520 0.000325
521 0.000324
522 0.000327
523 0.000329
524 0.000330
525 0.000330
526 0.000329
527 0.000326
528 0.000322
529 0.000320
530 0.000318
531 0.000315
532 0.000311
533 0.000309
534 0.000306
535 0.000302
536 0.000298
537 0.000294
538 0.000292
539 0.000289
540 0.000287
541 0.000284
542 0.000282
543 0.000281
544 0.000283
545 0.000285
546 0.000288
547 0.000289
548 0.000289
549 0.000289
550 0.000287
551 0.000286
552 0.000285
553 0.000283
554 0.000284
555 0.000284
556 0.000282
557 0.000281
558 0.000281
559 0.000279
560 0.000276
561 0.000274
562 0.000273
563 0.000271
564 0.000268
565 0.000267
566 0.000266
567 0.000261
568 0.000256
569 0.000253
570 0.000249
571 0.000244
572 0.000240
573 0.000235
574 0.000231
575 0.000227
576 0.000225
577 0.000225
578 0.000224
579 0.000223
580 0.000224
581 0.000227
582 0.000230
583 0.000234
584 0.000238
585 0.000242
586 0.000246
587 0.000249
588 0.000250
589 0.000251
590 0.000252
591 0.000252
592 0.000251
593 0.000248
594 0.000245
595 0.000242
596 0.000239
597 0.000237
598 0.000237
599 0.000237
600 0.000239
601 0.000241
602 0.000243
603 0.000244
604 0.000245
605 0.000244
606 0.000244
607 0.000245
608 0.000246
609 0.000245
610 0.000243
611 0.000243
612 0.000243
613 0.000242
614 0.000241
615 0.000241
616 0.000239
617 0.000238
618 0.000237
619 0.000236
620 0.000233
621 0.000232
622 0.000232
623 0.000234
624 0.000235
625 0.000237
626 0.000239
627 0.000239
628 0.000238
629 0.000237
630 0.000235
631 0.000234
632 0.000232
633 0.000232
634 0.000233
635 0.000234
636 0.000232
637 0.000231
638 0.000229
639 0.000229
640 0.000230
641 0.000230
642 0.000231
643 0.000231
644 0.000232
645 0.000233
646 0.000233
647 0.000234
648 0.000233
649 0.000233
650 0.000233
651 0.000232
652 0.000232
653 0.000230
654 0.000229
655 0.000228
656 0.000228
657 0.000227
658 0.000228
659 0.000229
660 0.000229
661 0.000228
662 0.000225
663 0.000223
664 0.000221
665 0.000218
666 0.000217
667 0.000214
668 0.000210
669 0.000206
670 0.000201
671 0.000197
672 0.000193
673 0.000189
674 0.000185
675 0.000181
676 0.000177
677 0.000173
678 0.000169
679 0.000167
680 0.000163
681 0.000160
682 0.000157
683 0.000154
684 0.000149
685 0.000144
686 0.000140
687 0.000136
688 0.000133
689 0.000131
690 0.000132
691 0.000132
692 0.000132
693 0.000132
694 0.000133
695 0.000131
696 0.000129
697 0.000128
698 0.000125
699 0.000124
700 0.000122
701 0.000120
702 0.000119
703 0.000121
704 0.000122
705 0.000122
706 0.000124
707 0.000125
708 0.000126
709 0.000125
710 0.000124
711 0.000121
712 0.000120
713 0.000118
714 0.000117
715 0.000117
716 0.000117
717 0.000115
718 0.000113
719 0.000111
720 0.000112
721 0.000112
722 0.000113
723 0.000115
724 0.000116
725 0.000118
726 0.000119
727 0.000119
728 0.000118
729 0.000118
730 0.000117
731 0.000116
732 0.000114
733 0.000113
734 0.000113
735 0.000113
736 0.000112
737 0.000112
738 0.000110
739 0.000109
740 0.000106
741 0.000103
742 0.000099
743 0.000096
744 0.000093
745 0.000090
746 0.000090
747 0.000091
748 0.000094
749 0.000096
750 0.000096
751 0.000095
752 0.000095
753 0.000096
754 0.000097
755 0.000100
756 0.000103
757 0.000106
758 0.000108
759 0.000111
760 0.000114
761 0.000115
762 0.000117
763 0.000120
764 0.000123
765 0.000124
766 0.000125
767 0.000125
768 0.000125
769 0.000127
770 0.000129
771 0.000131
772 0.000133
773 0.000134
774 0.000135
775 0.000134
776 0.000133
777 0.000131
778 0.000131
779 0.000130
780 0.000131
781 0.000132
782 0.000134
783 0.000134
784 0.000133
785 0.000132
786 0.000130
787 0.000129
788 0.000129
789 0.000128
790 0.000126
791 0.000125
792 0.000123
793 0.000122
794 0.000121
795 0.000119
796 0.000117
797 0.000116
798 0.000116
799 0.000115
800 0.000114
801 0.000111
802 0.000109
803 0.000108
804 0.000106
805 0.000104
806 0.000102
807 0.000099
808 0.000096
809 0.000093
