# i correlation
1 0.001507
2 0.001473
3 0.001445
4 0.001422
5 0.001399
6 0.001378
7 0.001357
8 0.001337
9 0.001322
10 0.001307
11 0.001295
12 0.001284
13 0.001269
14 0.001253
15 0.001238
16 0.001229
17 0.001220
18 0.001211
19 0.001201
20 0.001194
21 0.001187
22 0.001180
23 0.001179
24 0.001174
25 0.001171
26 0.001163
27 0.001155
28 0.001146
29 0.001138
30 0.001134
31 0.001127
32 0.001122
33 0.001115
34 0.001106
35 0.001100
36 0.001097
37 0.001094
38 0.001088
39 0.001087
40 0.001084
41 0.001083
42 0.001082
43 0.001081
44 0.001080
45 0.001074
46 0.001068
47 0.001059
48 0.001053
49 0.001049
50 0.001046
51 0.001040
52 0.001031
53 0.001020
54 0.001016
55 0.001012
56 0.001008
57 0.001000
58 0.000994
59 0.000987
60 0.000979
61 0.000971
62 0.000964
63 0.000952
64 0.000939
65 0.000928
66 0.000918
67 0.000912
68 0.000909
69 0.000907
70 0.000902
71 0.000898
72 0.000896
73 0.000896
74 0.000899
75 0.000902
76 0.000901
77 0.000900
78 0.000901
79 0.000904
80 0.000904
81 0.000908
82 0.000912
83 0.000914
84 0.000913
85 0.000916
86 0.000915
87 0.000915
88 0.000915
89 0.000911
90 0.000908
91 0.000906
92 0.000902
93 0.000900
94 0.000900
95 0.000899
96 0.000894
97 0.000889
98 0.000886
99 0.000883
100 0.000880
101 0.000880
102 0.000881
103 0.000880
104 0.000879
105 0.000878
106 0.000881
107 0.000877
108 0.000871
109 0.000863
110 0.000857
111 0.000854
112 0.000850
113 0.000845
114 0.000844
115 0.000843
116 0.000842
117 0.000839
118 0.000838
119 0.000838
120 0.000838
121 0.000833
122 0.000828
123 0.000827
124 0.000829
125 0.000831
126 0.000828
127 0.000828
128 0.000829
129 0.000832
130 0.000831
131 0.000831
132 0.000828
133 0.000825
134 0.000820
135 0.000815
136 0.000814
137 0.000812
138 0.000811
139 0.000808
140 0.000802
141 0.000796
142 0.000793
143 0.000789
144 0.000786
145 0.000782
146 0.000780
147 0.000780
148 0.000780
149 0.000778
150 0.000776
151 0.000773
152 0.000770
153 0.000768
154 0.000765
155 0.000761
156 0.000757
157 0.000752
158 0.000749
159 0.000744
160 0.000744
161 0.000742
162 0.000739
163 0.000736
164 0.000736
165 0.000730
166 0.000723
167 0.000718
168 0.000714
169 0.000707
170 0.000701
171 0.000696
172 0.000689
173 0.000685
174 0.000683
175 0.000683
176 0.000683
177 0.000679
178 0.000678
179 0.000678
180 0.000675
181 0.000674
182 0.000672
183 0.000672
184 0.000673
185 0.000672
186 0.000671
187 0.000668
188 0.000665
189 0.000659
190 0.000655
191 0.000650
192 0.000644
193 0.000642
194 0.000642
195 0.000637
196 0.000633
197 0.000630
198 0.000628
199 0.000628
200 0.000630
201 0.000633
202 0.000631
203 0.000631
204 0.000632
205 0.000634
206 0.000633
207 0.000632
208 0.000632
209 0.000630
210 0.000629
211 0.000628
212 0.000625
213 0.000622
214 0.000619
215 0.000616
216 0.000612
217 0.000608
218 0.000604
219 0.000600
220 0.000595
221 0.000590
222 0.000587
223 0.000583
224 0.000576
225 0.000571
226 0.000568
227 0.000567
228 0.000564
229 0.000562
230 0.000561
231 0.000560
232 0.000559
233 0.000559
234 0.000560
235 0.000563
236 0.000562
237 0.000560
238 0.000557
239 0.000557
240 0.000556
241 0.000556
242 0.000556
243 0.000558
244 0.000560
245 0.000564
246 0.000565
247 0.000564
248 0.000563
249 0.000562
250 0.000562
251 0.000561
252 0.000563
253 0.000564
254 0.000567
255 0.000573
256 0.000576
257 0.000578
258 0.000579
259 0.000580
260 0.000577
261 0.000575
262 0.000576
263 0.000574
264 0.000573
265 0.000573
266 0.000573
267 0.000574
268 0.000573
269 0.000573
270 0.000570
271 0.000569
272 0.000569
273 0.000569
274 0.000568
275 0.000564
276 0.000560
277 0.000554
278 0.000552
279 0.000548
280 0.000545
281 0.000543
282 0.000541
283 0.000542
284 0.000545
285 0.000546
286 0.000544
287 0.000546
288 0.000548
289 0.000552
290 0.000555
291 0.000560
292 0.000564
293 0.000567
294 0.000569
295 0.000571
296 0.000576
297 0.000579
298 0.000582
299 0.000585
300 0.000585
301 0.000587
302 0.000588
303 0.000587
304 0.000585
305 0.000580
306 0.000576
307 0.000573
308 0.000572
309 0.000573
310 0.000570
311 0.000568
312 0.000566
313 0.000566
314 0.000565
315 0.000564
316 0.000565
317 0.000565
318 0.000566
319 0.000563
320 0.000563
321 0.000559
322 0.000556
323 0.000553
324 0.000553
325 0.000552
326 0.000551
327 0.000549
328 0.000546
329 0.000544
330 0.000541
331 0.000537
332 0.000532
333 0.000529
334 0.000528
335 0.000526
336 0.000525
337 0.000526
338 0.000524
339 0.000523
340 0.000522
341 0.000521
342 0.000520
343 0.000520
344 0.000516
345 0.000515
346 0.000515
347 0.000518
348 0.000519
349 0.000518
350 0.000519
351 0.000519
352 0.000519
353 0.000517
354 0.000513
355 0.000512
356 0.000509
357 0.000507
358 0.000506
359 0.000507
360 0.000506
361 0.000507
362 0.000508
363 0.000511
364 0.000511
365 0.000510
366 0.000505
367 0.000500
368 0.000498
369 0.000496
370 0.000493
371 0.000489
372 0.000484
373 0.000481
374 0.000477
375 0.000476
376 0.000475
377 0.000475
378 0.000477
379 0.000479
380 0.000481
381 0.000480
382 0.000477
383 0.000475
384 0.000476
385 0.000475
386 0.000473
387 0.000475
388 0.000476
389 0.000476
390 0.000479
391 0.000480
392 0.000483
393 0.000484
394 0.000483
395 0.000481
396 0.000478
397 0.000475
398 0.000470
399 0.000468
400 0.000462
401 0.000461
402 0.000460
403 0.000459
404 0.000455
405 0.000455
406 0.000452
407 0.000448
408 0.000444
409 0.000437
410 0.000431
411 0.000425
412 0.000417
413 0.000412
414 0.000409
415 0.000404
416 0.000398
417 0.000394
418 0.000390
419 0.000388
420 0.000388
421 0.000391
422 0.000392
423 0.000393
424 0.000394
425 0.000392
426 0.000392
427 0.000391
428 0.000389
429 0.000388
430 0.000386
431 0.000387
432 0.000387
433 0.000386
434 0.000387
435 0.000387
436 0.000387
437 0.000388
438 0.000393
439 0.000396
440 0.000399
441 0.000399
442 0.000401
443 0.000402
444 0.000403
445 0.000403
446 0.000404
447 0.000404
448 0.000403
449 0.000402
450 0.000401
451 0.000402
452 0.000402
453 0.000403
454 0.000398
455 0.000395
456 0.000394
457 0.000392
458 0.000389
459 0.000384
460 0.000378
461 0.000375
462 0.000370
463 0.000368
464 0.000365
465 0.000361
466 0.000357
467 0.000354
468 0.000352
469 0.000346
470 0.000341
471 0.000337
472 0.000333
473 0.000329
474 0.000329
475 0.000329
476 0.000329
477 0.000330
478 0.000330
479 0.000331
480 0.000333
481 0.000335
482 0.000335
483 0.000336
484 0.000339
485 0.000341
486 0.000345
487 0.000346
488 0.000347
489 0.000346
490 0.000347
491 0.000348
492 0.000348
493 0.000352
494 0.000353
495 0.000354
496 0.000358
497 0.000363
498 0.000366
499 0.000369
500 0.000372
501 0.000376
502 0.000376
503 0.000378
504 0.000380
505 0.000378
506 0.000375
507 0.000377
508 0.000376
509 0.000376
510 0.000372
511 0.000370
512 0.000367
513 0.000366
514 0.000361
515 0.000356
516 0.000354
517 0.000354
518 0.000351
519 0.000350
520 0.000347
521 0.000347
522 0.000343
523 0.000341
524 0.000340
525 0.000340
526 0.000340
527 0.000342
528 0.000344
529 0.000346
530 0.000348
531 0.000350
532 0.000348
533 0.000349
534 0.000349
535 0.000351
536 0.000352
537 0.000354
538 0.000354
539 0.000353
540 0.000352
541 0.000350
542 0.000349
543 0.000349
544 0.000350
545 0.000349
546 0.000351
547 0.000351
548 0.000352
549 0.000349
550 0.000345
551 0.000339
552 0.000335
553 0.000333
554 0.000329
555 0.000327
556 0.000324
557 0.000320
558 0.000316
559 0.000316
560 0.000313
561 0.000309
562 0.000305
563 0.000304
564 0.000301
565 0.000297
566 0.000294
567 0.000292
568 0.000291
569 0.000290
570 0.000287
571 0.000288
572 0.000289
573 0.000288
574 0.000284
575 0.000284
576 0.000284
577 0.000285
578 0.000287
579 0.000287
580 0.000286
581 0.000285
582 0.000284
583 0.000282
584 0.000280
585 0.000278
586 0.000278
587 0.000276
588 0.000274
589 0.000274
590 0.000272
591 0.000273
592 0.000277
593 0.000279
594 0.000281
595 0.000285
596 0.000287
597 0.000287
598 0.000287
599 0.000285
600 0.000285
601 0.000281
602 0.000279
603 0.000278
604 0.000277
605 0.000276
606 0.000274
607 0.000271
608 0.000267
609 0.000263
610 0.000260
611 0.000258
612 0.000257
613 0.000256
614 0.000255
615 0.000254
616 0.000254
617 0.000254
618 0.000255
619 0.000257
620 0.000256
621 0.000258
622 0.000261
623 0.000263
624 0.000263
625 0.000263
626 0.000262
627 0.000262
628 0.000263
629 0.000264
630 0.000264
631 0.000263
632 0.000265
633 0.000266
634 0.000266
635 0.000268
636 0.000271
637 0.000272
638 0.000272
639 0.000273
640 0.000271
641 0.000270
642 0.000270
643 0.000268
644 0.000267
645 0.000264
646 0.000263
647 0.000262
648 0.000260
649 0.000260
650 0.000257
651 0.000255
652 0.000254
653 0.000255
654 0.000257
655 0.000258
656 0.000257
657 0.000258
658 0.000259
659 0.000259
660 0.000260
661 0.000262
662 0.000263
663 0.000263
664 0.000264
665 0.000264
666 0.000265
667 0.000266
668 0.000266
669 0.000263
670 0.000257
671 0.000253
672 0.000250
673 0.000248
674 0.000247
675 0.000245
676 0.000242
677 0.000243
678 0.000244
679 0.000246
680 0.000249
681 0.000252
682 0.000253
683 0.000254
684 0.000256
685 0.000257
686 0.000259
687 0.000259
688 0.000260
689 0.000259
690 0.000257
691 0.000256
692 0.000256
693 0.000257
694 0.000257
695 0.000257
696 0.000255
697 0.000258
698 0.000261
699 0.000263
700 0.000263
701 0.000263
702 0.000262
703 0.000261
704 0.000262
705 0.000261
706 0.000262
707 0.000264
708 0.000265
709 0.000267
710 0.000267
711 0.000268
712 0.000268
713 0.000265
714 0.000262
715 0.000257
716 0.000253
717 0.000251
718 0.000249
719 0.000246
720 0.000242
721 0.000238
722 0.000234
723 0.000233
724 0.000231
725 0.000227
726 0.000222
727 0.000217
728 0.000213
729 0.000209
730 0.000206
731 0.000202
732 0.000196
733 0.000189
734 0.000184
735 0.000177
736 0.000173
737 0.000166
738 0.000159
739 0.000155
740 0.000153
741 0.000152
742 0.000156
743 0.000158
744 0.000158
745 0.000156
746 0.000154
747 0.000152
748 0.000153
749 0.000155
750 0.000157
751 0.000159
752 0.000160
753 0.000162
754 0.000164
755 0.000169
756 0.000171
757 0.000170
758 0.000170
759 0.000171
760 0.000172
761 0.000170
762 0.000168
763 0.000166
764 0.000163
765 0.000161
766 0.000159
767 0.000157
768 0.000154
769 0.000152
770 0.000149
771 0.000147
772 0.000144
773 0.000143
774 0.000141
775 0.000138
776 0.000137
777 0.000134
778 0.000133
779 0.000132
780 0.000131
781 0.000131
782 0.000132
783 0.000134
784 0.000135
785 0.000137
786 0.000141
787 0.000143
788 0.000143
789 0.000143
790 0.000146
791 0.000146
792 0.000150
793 0.000154
794 0.000157
795 0.000158
796 0.000160
797 0.000161
798 0.000161
799 0.000164
800 0.000167
801 0.000170
802 0.000174
803 0.000177
804 0.000179
805 0.000182
806 0.000185
807 0.000186
808 0.000186
809 0.000183
