# i correlation
1 0.001468
2 0.001432
3 0.001398
4 0.001368
5 0.001343
6 0.001322
7 0.001301
8 0.001283
9 0.001270
10 0.001254
11 0.001241
12 0.001228
13 0.001215
14 0.001204
15 0.001194
16 0.001180
17 0.001165
18 0.001152
19 0.001147
20 0.001139
21 0.001134
22 0.001131
23 0.001128
24 0.001124
25 0.001121
26 0.001120
27 0.001120
28 0.001120
29 0.001117
30 0.001114
31 0.001109
32 0.001105
33 0.001102
34 0.001098
35 0.001095
36 0.001090
37 0.001084
38 0.001076
39 0.001069
40 0.001060
41 0.001057
42 0.001054
43 0.001051
44 0.001047
45 0.001043
46 0.001040
47 0.001036
48 0.001032
49 0.001030
50 0.001027
51 0.001025
52 0.001023
53 0.001025
54 0.001025
55 0.001024
56 0.001027
57 0.001027
58 0.001027
59 0.001024
60 0.001020
61 0.001016
62 0.001015
63 0.001012
64 0.001007
65 0.001005
66 0.000996
67 0.000984
68 0.000974
69 0.000965
70 0.000954
71 0.000947
72 0.000942
73 0.000939
74 0.000935
75 0.000934
76 0.000929
77 0.000923
78 0.000919
79 0.000916
80 0.000916
81 0.000917
82 0.000910
83 0.000905
84 0.000904
85 0.000906
86 0.000903
87 0.000903
88 0.000902
89 0.000901
90 0.000898
91 0.000894
92 0.000894
93 0.000895
94 0.000897
95 0.000899
96 0.000895
97 0.000891
98 0.000887
99 0.000886
100 0.000884
101 0.000885
102 0.000885
103 0.000885
104 0.000884
105 0.000881
106 0.000878
107 0.000878
108 0.000876
109 0.000872
110 0.000869
111 0.000867
112 0.000861
113 0.000858
114 0.000859
115 0.000858
116 0.000856
117 0.000852
118 0.000850
119 0.000844
120 0.000840
121 0.000835
122 0.000835
123 0.000831
124 0.000826
125 0.000820
126 0.000815
127 0.000814
128 0.000810
129 0.000810
130 0.000813
131 0.000812
132 0.000807
133 0.000801
134 0.000799
135 0.000793
136 0.000788
137 0.000782
138 0.000776
139 0.000772
140 0.000764
141 0.000757
142 0.000752
143 0.000750
144 0.000749
145 0.000749
146 0.000748
147 0.000747
148 0.000744
149 0.000740
150 0.000736
151 0.000729
152 0.000724
153 0.000723
154 0.000724
155 0.000728
156 0.000730
157 0.000737
158 0.000740
159 0.000742
160 0.000744
161 0.000745
162 0.000745
163 0.000744
164 0.000744
165 0.000740
166 0.000736
167 0.000731
168 0.000731
169 0.000730
170 0.000731
171 0.000727
172 0.000721
173 0.000715
174 0.000709
175 0.000700
176 0.000691
177 0.000681
178 0.000671
179 0.000663
180 0.000659
181 0.000657
182 0.000654
183 0.000655
184 0.000651
185 0.000649
186 0.000647
187 0.000647
188 0.000646
189 0.000644
190 0.000644
191 0.000641
192 0.000639
193 0.000634
194 0.000630
195 0.000625
196 0.000618
197 0.000609
198 0.000602
199 0.000597
200 0.000591
201 0.000585
202 0.000582
203 0.000581
204 0.000576
205 0.000574
206 0.000574
207 0.000573
208 0.000572
209 0.000572
210 0.000572
211 0.000572
212 0.000573
213 0.000575
214 0.000576
215 0.000579
216 0.000582
217 0.000582
218 0.000583
219 0.000586
220 0.000589
221 0.000592
222 0.000594
223 0.000598
224 0.000602
225 0.000602
226 0.000603
227 0.000600
228 0.000595
229 0.000594
230 0.000591
231 0.000586
232 0.000580
233 0.000574
234 0.000566
235 0.000561
236 0.000557
237 0.000553
238 0.000548
239 0.000544
240 0.000539
241 0.000534
242 0.000529
243 0.000524
244 0.000521
245 0.000517
246 0.000513
247 0.000508
248 0.000503
249 0.000498
250 0.000495
251 0.000496
252 0.000497
253 0.000497
254 0.000497
255 0.000492
256 0.000487
257 0.000481
258 0.000476
259 0.000472
260 0.000469
261 0.000466
262 0.000466
263 0.000466
264 0.000465
265 0.000468
266 0.000472
267 0.000476
268 0.000480
269 0.000482
270 0.000483
271 0.000484
272 0.000485
273 0.000486
274 0.000487
275 0.000489
276 0.000491
277 0.000492
278 0.000495
279 0.000496
280 0.000497
281 0.000496
282 0.000495
283 0.000492
284 0.000491
285 0.000487
286 0.000483
287 0.000480
288 0.000477
289 0.000473
290 0.000469
291 0.000466
292 0.000461
293 0.000454
294 0.000447
295 0.000439
296 0.000432
297 0.000430
298 0.000431
299 0.000429
300 0.000427
301 0.000427
302 0.000426
303 0.000425
304 0.000427
305 0.000424
306 0.000420
307 0.000415
308 0.000413
309 0.000412
310 0.000416
311 0.000415
312 0.000415
313 0.000417
314 0.000415
315 0.000412
316 0.000412
317 0.000413
318 0.000413
319 0.000413
320 0.000410
321 0.000405
322 0.000399
323 0.000394
324 0.000390
325 0.000390
326 0.000391
327 0.000390
328 0.000392
329 0.000395
330 0.000394
331 0.000397
332 0.000399
333 0.000400
334 0.000401
335 0.000402
336 0.000399
337 0.000400
338 0.000401
339 0.000401
340 0.000399
341 0.000398
342 0.000394
343 0.000394
344 0.000393
345 0.000392
346 0.000392
347 0.000392
348 0.000390
349 0.000384
350 0.000380
351 0.000377
352 0.000377
353 0.000377
354 0.000376
355 0.000373
356 0.000371
357 0.000368
358 0.000367
359 0.000364
360 0.000360
361 0.000357
362 0.000354
363 0.000354
364 0.000351
365 0.000347
366 0.000348
367 0.000350
368 0.000349
369 0.000349
370 0.000349
371 0.000349
372 0.000348
373 0.000350
374 0.000351
375 0.000355
376 0.000360
377 0.000364
378 0.000368
379 0.000370
380 0.000372
381 0.000375
382 0.000380
383 0.000384
384 0.000385
385 0.000388
386 0.000390
387 0.000391
388 0.000391
389 0.000392
390 0.000392
391 0.000394
392 0.000394
393 0.000397
394 0.000398
395 0.000396
396 0.000393
397 0.000393
398 0.000392
399 0.000391
400 0.000388
401 0.000385
402 0.000379
403 0.000372
404 0.000365
405 0.000357
406 0.000351
407 0.000343
408 0.000338
409 0.000336
410 0.000333
411 0.000331
412 0.000328
413 0.000326
414 0.000324
415 0.000322
416 0.000321
417 0.000319
418 0.000316
419 0.000313
420 0.000310
421 0.000308
422 0.000305
423 0.000305
424 0.000304
425 0.000303
426 0.000300
427 0.000296
428 0.000296
429 0.000293
430 0.000287
431 0.000283
432 0.000284
433 0.000286
434 0.000291
435 0.000295
436 0.000298
437 0.000297
438 0.000295
439 0.000297
440 0.000297
441 0.000295
442 0.000293
443 0.000293
444 0.000295
445 0.000296
446 0.000297
447 0.000299
448 0.000304
449 0.000304
450 0.000304
451 0.000304
452 0.000303
453 0.000300
454 0.000297
455 0.000294
456 0.000291
457 0.000289
458 0.000289
459 0.000290
460 0.000293
461 0.000298
462 0.000303
463 0.000303
464 0.000299
465 0.000295
466 0.000291
467 0.000290
468 0.000291
469 0.000291
470 0.000293
471 0.000294
472 0.000295
473 0.000298
474 0.000303
475 0.000304
476 0.000305
477 0.000304
478 0.000301
479 0.000297
480 0.000290
481 0.000286
482 0.000282
483 0.000280
484 0.000277
485 0.000272
486 0.000267
487 0.000259
488 0.000252
489 0.000248
490 0.000246
491 0.000243
492 0.000242
493 0.000241
494 0.000238
495 0.000237
496 0.000236
497 0.000238
498 0.000241
499 0.000243
500 0.000243
501 0.000245
502 0.000246
503 0.000247
504 0.000250
505 0.000256
506 0.000260
507 0.000266
508 0.000272
509 0.000276
510 0.000279
511 0.000280
512 0.000280
513 0.000280
514 0.000278
515 0.000274
516 0.000272
517 0.000271
518 0.000271
519 0.000269
520 0.000268
521 0.000265
522 0.000264
523 0.000262
524 0.000262
525 0.000261
526 0.000259
527 0.000260
528 0.000260
529 0.000261
530 0.000259
531 0.000254
532 0.000249
533 0.000247
534 0.000244
535 0.000242
536 0.000239
537 0.000238
538 0.000238
539 0.000237
540 0.000236
541 0.000235
542 0.000233
543 0.000228
544 0.000224
545 0.000220
546 0.000218
547 0.000216
548 0.000218
549 0.000219
550 0.000221
551 0.000222
552 0.000223
553 0.000224
554 0.000226
555 0.000228
556 0.000228
557 0.000228
558 0.000229
559 0.000229
560 0.000226
561 0.000224
562 0.000222
563 0.000222
564 0.000225
565 0.000225
566 0.000222
567 0.000220
568 0.000218
569 0.000213
570 0.000211
571 0.000209
572 0.000204
573 0.000202
574 0.000199
575 0.000193
576 0.000188
577 0.000182
578 0.000180
579 0.000177
580 0.000176
581 0.000173
582 0.000174
583 0.000176
584 0.000178
585 0.000178
586 0.000179
587 0.000176
588 0.000171
589 0.000166
590 0.000159
591 0.000154
592 0.000153
593 0.000152
594 0.000151
595 0.000149
596 0.000147
597 0.000145
598 0.000144
599 0.000142
600 0.000140
601 0.000138
602 0.000136
603 0.000133
604 0.000132
605 0.000133
606 0.000137
607 0.000140
608 0.000145
609 0.000148
610 0.000152
611 0.000153
612 0.000154
613 0.000154
614 0.000154
615 0.000157
616 0.000158
617 0.000161
618 0.000163
619 0.000166
620 0.000166
621 0.000165
622 0.000167
623 0.000170
624 0.000173
625 0.000172
626 0.000171
627 0.000170
628 0.000168
629 0.000167
630 0.000164
631 0.000163
632 0.000159
633 0.000156
634 0.000152
635 0.000150
636 0.000147
637 0.000145
638 0.000144
639 0.000143
640 0.000141
641 0.000138
642 0.000134
643 0.000133
644 0.000133
645 0.000136
646 0.000136
647 0.000137
648 0.000140
649 0.000144
650 0.000146
651 0.000149
652 0.000151
653 0.000150
654 0.000149
655 0.000148
656 0.000147
657 0.000148
658 0.000147
659 0.000146
660 0.000148
661 0.000149
662 0.000150
663 0.000152
664 0.000155
665 0.000156
666 0.000159
667 0.000160
668 0.000163
669 0.000163
670 0.000162
671 0.000163
672 0.000164
673 0.000163
674 0.000161
675 0.000160
676 0.000159
677 0.000158
678 0.000158
679 0.000158
680 0.000160
681 0.000161
682 0.000164
683 0.000165
684 0.000165
685 0.000166
686 0.000165
687 0.000167
688 0.000169
689 0.000172
690 0.000172
691 0.000174
692 0.000174
693 0.000174
694 0.000175
695 0.000176
696 0.000175
697 0.000175
698 0.000176
699 0.000177
700 0.000178
701 0.000177
702 0.000177
703 0.000175
704 0.000173
705 0.000170
706 0.000164
707 0.000159
708 0.000155
709 0.000151
710 0.000153
711 0.000151
712 0.000153
713 0.000156
714 0.000161
715 0.000162
716 0.000165
717 0.000165
718 0.000166
719 0.000168
720 0.000170
721 0.000172
722 0.000174
723 0.000175
724 0.000176
725 0.000177
726 0.000177
727 0.000176
728 0.000176
729 0.000175
730 0.000174
731 0.000172
732 0.000169
733 0.000167
734 0.000163
735 0.000159
736 0.000157
737 0.000156
738 0.000155
739 0.000154
740 0.000152
741 0.000150
742 0.000150
743 0.000149
744 0.000151
745 0.000154
746 0.000155
747 0.000155
748 0.000153
749 0.000153
750 0.000149
751 0.000150
752 0.000151
753 0.000151
754 0.000152
755 0.000151
756 0.000150
757 0.000147
758 0.000143
759 0.000138
760 0.000132
761 0.000127
762 0.000121
763 0.000118
764 0.000115
765 0.000112
766 0.000109
767 0.000106
768 0.000104
769 0.000102
770 0.000100
771 0.000099
772 0.000099
773 0.000098
774 0.000100
775 0.000099
776 0.000100
777 0.000100
778 0.000102
779 0.000104
780 0.000108
781 0.000111
782 0.000116
783 0.000120
784 0.000124
785 0.000128
786 0.000131
787 0.000133
788 0.000136
789 0.000135
790 0.000134
791 0.000134
792 0.000132
793 0.000131
794 0.000132
795 0.000132
796 0.000131
797 0.000131
798 0.000130
799 0.000130
800 0.000130
801 0.000128
802 0.000127
803 0.000125
804 0.000119
805 0.000115
806 0.000111
807 0.000109
808 0.000106
809 0.000106
