# i correlation
1 0.001695
2 0.001663
3 0.001635
4 0.001613
5 0.001594
6 0.001573
7 0.001555
8 0.001540
9 0.001526
10 0.001513
11 0.001498
12 0.001484
13 0.001473
14 0.001463
15 0.001456
16 0.001450
17 0.001441
18 0.001436
19 0.001430
20 0.001424
21 0.001415
22 0.001406
23 0.001401
24 0.001392
25 0.001387
26 0.001381
27 0.001369
28 0.001358
29 0.001352
30 0.001348
31 0.001340
32 0.001335
33 0.001332
34 0.001330
35 0.001327
36 0.001321
37 0.001312
38 0.001307
39 0.001302
40 0.001295
41 0.001286
42 0.001276
43 0.001266
44 0.001258
45 0.001250
46 0.001242
47 0.001236
48 0.001231
49 0.001228
50 0.001225
51 0.001220
52 0.001216
53 0.001207
54 0.001200
55 0.001195
56 0.001189
57 0.001181
58 0.001175
59 0.001168
60 0.001162
61 0.001159
62 0.001155
63 0.001152
64 0.001149
65 0.001149
66 0.001146
67 0.001143
68 0.001138
69 0.001135
70 0.001130
71 0.001125
72 0.001118
73 0.001113
74 0.001107
75 0.001103
76 0.001098
77 0.001095
78 0.001094
79 0.001091
80 0.001089
81 0.001091
82 0.001094
83 0.001094
84 0.001093
85 0.001092
86 0.001090
87 0.001086
88 0.001088
89 0.001086
90 0.001083
91 0.001081
92 0.001076
93 0.001072
94 0.001067
95 0.001062
96 0.001055
97 0.001047
98 0.001040
99 0.001035
100 0.001030
101 0.001026
102 0.001025
103 0.001023
104 0.001018
105 0.001013
106 0.001005
107 0.000999
108 0.000991
109 0.000984
110 0.000976
111 0.000972
112 0.000968
113 0.000963
114 0.000959
115 0.000955
116 0.000952
117 0.000954
118 0.000955
119 0.000951
120 0.000944
121 0.000941
122 0.000940
123 0.000936
124 0.000932
125 0.000926
126 0.000922
127 0.000916
128 0.000915
129 0.000913
130 0.000910
131 0.000904
132 0.000900
133 0.000896
134 0.000891
135 0.000886
136 0.000883
137 0.000881
138 0.000881
139 0.000878
140 0.000874
141 0.000869
142 0.000866
143 0.000863
144 0.000859
145 0.000853
146 0.000847
147 0.000838
148 0.000831
149 0.000825
150 0.000820
151 0.000817
152 0.000815
153 0.000814
154 0.000814
155 0.000813
156 0.000813
157 0.000811
158 0.000810
159 0.000811
160 0.000807
161 0.000803
162 0.000800
163 0.000794
164 0.000788
165 0.000780
166 0.000772
167 0.000767
168 0.000764
169 0.000763
170 0.000759
171 0.000754
172 0.000751
173 0.000749
174 0.000744
175 0.000737
176 0.000733
177 0.000731
178 0.000729
179 0.000727
180 0.000724
181 0.000722
182 0.000720
183 0.000711
184 0.000706
185 0.000702
186 0.000700
187 0.000702
188 0.000702
189 0.000703
190 0.000700
191 0.000697
192 0.000696
193 0.000696
194 0.000696
195 0.000698
196 0.000698
197 0.000699
198 0.000698
199 0.000694
200 0.000691
201 0.000689
202 0.000687
203 0.000686
204 0.000683
205 0.000683
206 0.000684
207 0.000690
208 0.000694
209 0.000695
210 0.000695
211 0.000696
212 0.000695
213 0.000694
214 0.000693
215 0.000692
216 0.000689
217 0.000686
218 0.000684
219 0.000685
220 0.000686
221 0.000688
222 0.000687
223 0.000687
224 0.000687
225 0.000686
226 0.000687
227 0.000686
228 0.000687
229 0.000688
230 0.000686
231 0.000686
232 0.000685
233 0.000682
234 0.000681
235 0.000678
236 0.000676
237 0.000674
238 0.000671
239 0.000668
240 0.000669
241 0.000670
242 0.000669
243 0.000667
244 0.000665
245 0.000664
246 0.000662
247 0.000661
248 0.000659
249 0.000658
250 0.000655
251 0.000651
252 0.000646
253 0.000642
254 0.000637
255 0.000632
256 0.000629
257 0.000630
258 0.000630
259 0.000631
260 0.000631
261 0.000630
262 0.000627
263 0.000624
264 0.000623
265 0.000620
266 0.000618
267 0.000615
268 0.000613
269 0.000605
270 0.000600
271 0.000597
272 0.000595
273 0.000593
274 0.000590
275 0.000589
276 0.000588
277 0.000587
278 0.000585
279 0.000585
280 0.000587
281 0.000588
282 0.000590
283 0.000590
284 0.000589
285 0.000587
286 0.000586
287 0.000586
288 0.000585
289 0.000587
290 0.000586
291 0.000586
292 0.000586
293 0.000587
294 0.000587
295 0.000586
296 0.000584
297 0.000585
298 0.000589
299 0.000595
300 0.000599
301 0.000603
302 0.000606
303 0.000606
304 0.000608
305 0.000607
306 0.000605
307 0.000605
308 0.000603
309 0.000602
310 0.000603
311 0.000605
312 0.000608
313 0.000608
314 0.000610
315 0.000612
316 0.000612
317 0.000612
318 0.000614
319 0.000614
320 0.000616
321 0.000616
322 0.000614
323 0.000614
324 0.000615
325 0.000615
326 0.000617
327 0.000619
328 0.000621
329 0.000621
330 0.000623
331 0.000627
332 0.000626
333 0.000625
334 0.000623
335 0.000620
336 0.000618
337 0.000617
338 0.000616
339 0.000617
340 0.000616
341 0.000615
342 0.000614
343 0.000613
344 0.000610
345 0.000605
346 0.000600
347 0.000596
348 0.000590
349 0.000587
350 0.000586
351 0.000584
352 0.000583
353 0.000581
354 0.000579
355 0.000573
356 0.000571
357 0.000568
358 0.000566
359 0.000561
360 0.000554
361 0.000549
362 0.000547
363 0.000546
364 0.000547
365 0.000545
366 0.000544
367 0.000542
368 0.000536
369 0.000533
370 0.000530
371 0.000526
372 0.000521
373 0.000515
374 0.000512
375 0.000512
376 0.000510
377 0.000508
378 0.000507
379 0.000504
380 0.000502
381 0.000502
382 0.000505
383 0.000508
384 0.000508
385 0.000506
386 0.000504
387 0.000501
388 0.000499
389 0.000497
390 0.000495
391 0.000489
392 0.000485
393 0.000481
394 0.000474
395 0.000468
396 0.000462
397 0.000458
398 0.000453
399 0.000448
400 0.000445
401 0.000443
402 0.000443
403 0.000444
404 0.000445
405 0.000444
406 0.000443
407 0.000440
408 0.000442
409 0.000443
410 0.000445
411 0.000444
412 0.000443
413 0.000440
414 0.000436
415 0.000428
416 0.000423
417 0.000418
418 0.000417
419 0.000415
420 0.000411
421 0.000412
422 0.000414
423 0.000417
424 0.000415
425 0.000412
426 0.000411
427 0.000412
428 0.000414
429 0.000415
430 0.000414
431 0.000411
432 0.000409
433 0.000409
434 0.000405
435 0.000402
436 0.000401
437 0.000400
438 0.000398
439 0.000395
440 0.000391
441 0.000385
442 0.000380
443 0.000379
444 0.000380
445 0.000381
446 0.000382
447 0.000380
448 0.000382
449 0.000382
450 0.000379
451 0.000373
452 0.000370
453 0.000372
454 0.000372
455 0.000373
456 0.000373
457 0.000374
458 0.000376
459 0.000375
460 0.000374
461 0.000372
462 0.000373
463 0.000372
464 0.000369
465 0.000365
466 0.000360
467 0.000356
468 0.000353
469 0.000353
470 0.000350
471 0.000351
472 0.000351
473 0.000349
474 0.000348
475 0.000345
476 0.000341
477 0.000338
478 0.000336
479 0.000336
480 0.000333
481 0.000330
482 0.000326
483 0.000323
484 0.000318
485 0.000313
486 0.000309
487 0.000305
488 0.000302
489 0.000300
490 0.000297
491 0.000295
492 0.000295
493 0.000294
494 0.000294
495 0.000293
496 0.000291
497 0.000287
498 0.000280
499 0.000273
500 0.000269
501 0.000264
502 0.000260
503 0.000254
504 0.000249
505 0.000244
506 0.000237
507 0.000229
508 0.000223
509 0.000219
510 0.000216
511 0.000212
512 0.000210
513 0.000209
514 0.000206
515 0.000205
516 0.000203
517 0.000201
518 0.000200
519 0.000199
520 0.000200
521 0.000205
522 0.000208
523 0.000211
524 0.000211
525 0.000212
526 0.000212
527 0.000213
528 0.000215
529 0.000215
530 0.000215
531 0.000215
532 0.000212
533 0.000205
534 0.000199
535 0.000193
536 0.000188
537 0.000181
538 0.000178
539 0.000176
540 0.000175
541 0.000175
542 0.000170
543 0.000168
544 0.000169
545 0.000171
546 0.000173
547 0.000174
548 0.000174
549 0.000170
550 0.000170
551 0.000169
552 0.000167
553 0.000165
554 0.000163
555 0.000163
556 0.000163
557 0.000164
558 0.000162
559 0.000160
560 0.000160
561 0.000163
562 0.000166
563 0.000166
564 0.000168
565 0.000167
566 0.000167
567 0.000167
568 0.000165
569 0.000161
570 0.000158
571 0.000155
572 0.000153
573 0.000151
574 0.000146
575 0.000142
576 0.000136
577 0.000134
578 0.000130
579 0.000125
580 0.000125
581 0.000124
582 0.000125
583 0.000125
584 0.000123
585 0.000124
586 0.000125
587 0.000126
588 0.000129
589 0.000129
590 0.000129
591 0.000130
592 0.000129
593 0.000128
594 0.000124
595 0.000121
596 0.000118
597 0.000116
598 0.000117
599 0.000116
600 0.000115
601 0.000117
602 0.000117
603 0.000117
604 0.000116
605 0.000116
606 0.000116
607 0.000116
608 0.000115
609 0.000116
610 0.000117
611 0.000120
612 0.000121
613 0.000122
614 0.000124
615 0.000126
616 0.000129
617 0.000131
618 0.000132
619 0.000132
620 0.000130
621 0.000128
622 0.000128
623 0.000128
624 0.000129
625 0.000128
626 0.000128
627 0.000127
628 0.000124
629 0.000119
630 0.000116
631 0.000116
632 0.000117
633 0.000117
634 0.000117
635 0.000119
636 0.000119
637 0.000118
638 0.000117
639 0.000117
640 0.000117
641 0.000120
642 0.000123
643 0.000126
644 0.000128
645 0.000131
646 0.000135
647 0.000137
648 0.000137
649 0.000137
650 0.000138
651 0.000141
652 0.000143
653 0.000145
654 0.000146
655 0.000147
656 0.000147
657 0.000148
658 0.000148
659 0.000147
660 0.000144
661 0.000144
662 0.000144
663 0.000144
664 0.000147
665 0.000149
666 0.000150
667 0.000151
668 0.000152
669 0.000154
670 0.000155
671 0.000157
672 0.000159
673 0.000162
674 0.000164
675 0.000165
676 0.000167
677 0.000168
678 0.000167
679 0.000166
680 0.000163
681 0.000161
682 0.000161
683 0.000162
684 0.000164
685 0.000166
686 0.000167
687 0.000171
688 0.000171
689 0.000173
690 0.000176
691 0.000177
692 0.000176
693 0.000175
694 0.000175
695 0.000176
696 0.000173
697 0.000171
698 0.000168
699 0.000166
700 0.000164
701 0.000164
702 0.000163
703 0.000165
704 0.000167
705 0.000169
706 0.000170
707 0.000170
708 0.000169
709 0.000169
710 0.000169
711 0.000170
712 0.000170
713 0.000171
714 0.000171
715 0.000170
716 0.000169
717 0.000170
718 0.000168
719 0.000166
720 0.000168
721 0.000171
722 0.000171
723 0.000170
724 0.000169
725 0.000169
726 0.000169
727 0.000168
728 0.000169
729 0.000167
730 0.000166
731 0.000164
732 0.000162
733 0.000159
734 0.000156
735 0.000153
736 0.000151
737 0.000148
738 0.000144
739 0.000143
740 0.000142
741 0.000139
742 0.000137
743 0.000133
744 0.000131
745 0.000129
746 0.000127
747 0.000125
748 0.000122
749 0.000118
750 0.000115
751 0.000113
752 0.000112
753 0.000110
754 0.000109
755 0.000108
756 0.000108
757 0.000107
758 0.000107
759 0.000106
760 0.000107
761 0.000108
762 0.000109
763 0.000108
764 0.000108
765 0.000106
766 0.000107
767 0.000106
768 0.000106
769 0.000106
770 0.000106
771 0.000107
772 0.000106
773 0.000104
774 0.000102
775 0.000102
776 0.000105
777 0.000107
778 0.000107
779 0.000108
780 0.000109
781 0.000109
782 0.000107
783 0.000105
784 0.000102
785 0.000100
786 0.000099
787 0.000097
788 0.000095
789 0.000093
790 0.000092
791 0.000090
792 0.000087
793 0.000085
794 0.000084
795 0.000082
796 0.000080
797 0.000079
798 0.000078
799 0.000077
800 0.000077
801 0.000077
802 0.000076
803 0.000074
804 0.000073
805 0.000073
806 0.000072
807 0.000070
808 0.000069
809 0.000069
