# i correlation
1 0.001582
2 0.001545
3 0.001514
4 0.001489
5 0.001466
6 0.001445
7 0.001424
8 0.001404
9 0.001383
10 0.001368
11 0.001355
12 0.001341
13 0.001330
14 0.001322
15 0.001318
16 0.001316
17 0.001317
18 0.001312
19 0.001306
20 0.001298
21 0.001289
22 0.001280
23 0.001274
24 0.001267
25 0.001260
26 0.001250
27 0.001241
28 0.001233
29 0.001224
30 0.001215
31 0.001208
32 0.001199
33 0.001193
34 0.001190
35 0.001190
36 0.001192
37 0.001193
38 0.001186
39 0.001183
40 0.001178
41 0.001175
42 0.001171
43 0.001169
44 0.001162
45 0.001153
46 0.001143
47 0.001137
48 0.001131
49 0.001122
50 0.001117
51 0.001111
52 0.001103
53 0.001097
54 0.001089
55 0.001081
56 0.001078
57 0.001069
58 0.001061
59 0.001054
60 0.001046
61 0.001038
62 0.001035
63 0.001029
64 0.001026
65 0.001024
66 0.001022
67 0.001021
68 0.001020
69 0.001014
70 0.001009
71 0.001001
72 0.000991
73 0.000982
74 0.000975
75 0.000970
76 0.000968
77 0.000964
78 0.000961
79 0.000960
80 0.000960
81 0.000964
82 0.000968
83 0.000972
84 0.000973
85 0.000973
86 0.000975
87 0.000975
88 0.000972
89 0.000966
90 0.000959
91 0.000957
92 0.000953
93 0.000950
94 0.000947
95 0.000943
96 0.000940
97 0.000942
98 0.000944
99 0.000944
100 0.000942
101 0.000937
102 0.000930
103 0.000925
104 0.000921
105 0.000915
106 0.000910
107 0.000903
108 0.000893
109 0.000881
110 0.000872
111 0.000862
112 0.000854
113 0.000848
114 0.000842
115 0.000836
116 0.000830
117 0.000824
118 0.000823
119 0.000821
120 0.000820
121 0.000819
122 0.000816
123 0.000815
124 0.000815
125 0.000813
126 0.000814
127 0.000813
128 0.000811
129 0.000808
130 0.000804
131 0.000798
132 0.000796
133 0.000797
134 0.000799
135 0.000797
136 0.000796
137 0.000797
138 0.000798
139 0.000796
140 0.000794
141 0.000793
142 0.000793
143 0.000793
144 0.000791
145 0.000789
146 0.000787
147 0.000785
148 0.000788
149 0.000794
150 0.000798
151 0.000801
152 0.000802
153 0.000807
154 0.000810
155 0.000810
156 0.000807
157 0.000804
158 0.000799
159 0.000792
160 0.000785
161 0.000781
162 0.000779
163 0.000780
164 0.000780
165 0.000780
166 0.000786
167 0.000788
168 0.000790
169 0.000792
170 0.000798
171 0.000802
172 0.000805
173 0.000805
174 0.000804
175 0.000798
176 0.000791
177 0.000781
178 0.000772
179 0.000760
180 0.000749
181 0.000740
182 0.000733
183 0.000727
184 0.000719
185 0.000719
186 0.000720
187 0.000721
188 0.000723
189 0.000727
190 0.000728
191 0.000731
192 0.000735
193 0.000742
194 0.000746
195 0.000744
196 0.000744
197 0.000745
198 0.000747
199 0.000743
200 0.000740
201 0.000736
202 0.000730
203 0.000723
204 0.000721
205 0.000720
206 0.000719
207 0.000713
208 0.000709
209 0.000706
210 0.000704
211 0.000699
212 0.000694
213 0.000687
214 0.000683
215 0.000678
216 0.000672
217 0.000668
218 0.000665
219 0.000661
220 0.000655
221 0.000650
222 0.000644
223 0.000638
224 0.000636
225 0.000638
226 0.000635
227 0.000628
228 0.000622
229 0.000618
230 0.000615
231 0.000612
232 0.000609
233 0.000606
234 0.000605
235 0.000604
236 0.000603
237 0.000603
238 0.000601
239 0.000598
240 0.000595
241 0.000595
242 0.000595
243 0.000591
244 0.000586
245 0.000580
246 0.000575
247 0.000570
248 0.000568
249 0.000568
250 0.000567
251 0.000564
252 0.000561
253 0.000565
254 0.000571
255 0.000573
256 0.000574
257 0.000575
258 0.000573
259 0.000570
260 0.000566
261 0.000564
262 0.000561
263 0.000554
264 0.000545
265 0.000537
266 0.000528
267 0.000520
268 0.000516
269 0.000513
270 0.000510
271 0.000507
272 0.000506
273 0.000505
274 0.000505
275 0.000502
276 0.000501
277 0.000499
278 0.000493
279 0.000488
280 0.000484
281 0.000478
282 0.000475
283 0.000467
284 0.000462
285 0.000459
286 0.000459
287 0.000459
288 0.000457
289 0.000455
290 0.000455
291 0.000459
292 0.000462
293 0.000469
294 0.000475
295 0.000478
296 0.000481
297 0.000481
298 0.000480
299 0.000476
300 0.000473
301 0.000468
302 0.000462
303 0.000456
304 0.000453
305 0.000454
306 0.000455
307 0.000454
308 0.000451
309 0.000445
310 0.000442
311 0.000441
312 0.000444
313 0.000445
314 0.000441
315 0.000439
316 0.000437
317 0.000433
318 0.000429
319 0.000428
320 0.000426
321 0.000423
322 0.000422
323 0.000421
324 0.000421
325 0.000422
326 0.000421
327 0.000420
328 0.000417
329 0.000414
330 0.000413
331 0.000410
332 0.000405
333 0.000400
334 0.000393
335 0.000388
336 0.000386
337 0.000384
338 0.000384
339 0.000383
340 0.000382
341 0.000381
342 0.000385
343 0.000389
344 0.000392
345 0.000392
346 0.000392
347 0.000392
348 0.000394
349 0.000392
350 0.000389
351 0.000387
352 0.000383
353 0.000380
354 0.000378
355 0.000376
356 0.000373
357 0.000369
358 0.000369
359 0.000369
360 0.000370
361 0.000371
362 0.000372
363 0.000376
364 0.000378
365 0.000379
366 0.000379
367 0.000379
368 0.000380
369 0.000379
370 0.000376
371 0.000373
372 0.000370
373 0.000364
374 0.000359
375 0.000356
376 0.000350
377 0.000341
378 0.000335
379 0.000331
380 0.000330
381 0.000328
382 0.000325
383 0.000321
384 0.000318
385 0.000315
386 0.000312
387 0.000314
388 0.000315
389 0.000314
390 0.000315
391 0.000318
392 0.000324
393 0.000327
394 0.000330
395 0.000333
396 0.000335
397 0.000334
398 0.000332
399 0.000328
400 0.000323
401 0.000317
402 0.000310
403 0.000305
404 0.000301
405 0.000298
406 0.000298
407 0.000299
408 0.000298
409 0.000298
410 0.000299
411 0.000302
412 0.000305
413 0.000308
414 0.000311
415 0.000312
416 0.000313
417 0.000313
418 0.000311
419 0.000308
420 0.000305
421 0.000302
422 0.000299
423 0.000297
424 0.000295
425 0.000293
426 0.000288
427 0.000285
428 0.000285
429 0.000284
430 0.000287
431 0.000291
432 0.000295
433 0.000296
434 0.000298
435 0.000301
436 0.000299
437 0.000297
438 0.000294
439 0.000293
440 0.000292
441 0.000288
442 0.000284
443 0.000281
444 0.000278
445 0.000275
446 0.000274
447 0.000275
448 0.000280
449 0.000284
450 0.000286
451 0.000286
452 0.000286
453 0.000283
454 0.000281
455 0.000278
456 0.000275
457 0.000273
458 0.000273
459 0.000275
460 0.000276
461 0.000273
462 0.000271
463 0.000270
464 0.000269
465 0.000270
466 0.000271
467 0.000272
468 0.000271
469 0.000270
470 0.000267
471 0.000264
472 0.000260
473 0.000257
474 0.000253
475 0.000248
476 0.000245
477 0.000240
478 0.000235
479 0.000231
480 0.000227
481 0.000219
482 0.000213
483 0.000209
484 0.000207
485 0.000206
486 0.000206
487 0.000208
488 0.000209
489 0.000209
490 0.000210
491 0.000212
492 0.000214
493 0.000218
494 0.000220
495 0.000222
496 0.000222
497 0.000224
498 0.000226
499 0.000229
500 0.000232
501 0.000236
502 0.000236
503 0.000237
504 0.000238
505 0.000239
506 0.000239
507 0.000237
508 0.000235
509 0.000234
510 0.000232
511 0.000232
512 0.000228
513 0.000227
514 0.000226
515 0.000224
516 0.000225
517 0.000227
518 0.000230
519 0.000232
520 0.000231
521 0.000232
522 0.000232
523 0.000231
524 0.000229
525 0.000224
526 0.000221
527 0.000218
528 0.000217
529 0.000217
530 0.000219
531 0.000220
532 0.000221
533 0.000220
534 0.000221
535 0.000220
536 0.000224
537 0.000227
538 0.000228
539 0.000227
540 0.000228
541 0.000230
542 0.000231
543 0.000229
544 0.000228
545 0.000230
546 0.000232
547 0.000236
548 0.000239
549 0.000239
550 0.000238
551 0.000238
552 0.000238
553 0.000237
554 0.000235
555 0.000236
556 0.000237
557 0.000239
558 0.000241
559 0.000244
560 0.000243
561 0.000242
562 0.000242
563 0.000242
564 0.000243
565 0.000242
566 0.000241
567 0.000240
568 0.000241
569 0.000240
570 0.000235
571 0.000227
572 0.000216
573 0.000211
574 0.000206
575 0.000199
576 0.000192
577 0.000187
578 0.000180
579 0.000174
580 0.000169
581 0.000166
582 0.000162
583 0.000158
584 0.000158
585 0.000159
586 0.000162
587 0.000166
588 0.000169
589 0.000170
590 0.000172
591 0.000172
592 0.000176
593 0.000177
594 0.000176
595 0.000171
596 0.000167
597 0.000165
598 0.000166
599 0.000169
600 0.000171
601 0.000174
602 0.000176
603 0.000178
604 0.000181
605 0.000185
606 0.000190
607 0.000195
608 0.000195
609 0.000194
610 0.000194
611 0.000193
612 0.000191
613 0.000191
614 0.000188
615 0.000186
616 0.000184
617 0.000183
618 0.000181
619 0.000176
620 0.000171
621 0.000171
622 0.000172
623 0.000173
624 0.000174
625 0.000176
626 0.000174
627 0.000173
628 0.000172
629 0.000174
630 0.000172
631 0.000171
632 0.000171
633 0.000171
634 0.000171
635 0.000170
636 0.000169
637 0.000168
638 0.000167
639 0.000166
640 0.000166
641 0.000168
642 0.000169
643 0.000170
644 0.000172
645 0.000174
646 0.000177
647 0.000178
648 0.000179
649 0.000180
650 0.000182
651 0.000180
652 0.000178
653 0.000173
654 0.000168
655 0.000164
656 0.000160
657 0.000157
658 0.000153
659 0.000149
660 0.000146
661 0.000141
662 0.000137
663 0.000134
664 0.000132
665 0.000131
666 0.000130
667 0.000130
668 0.000128
669 0.000128
670 0.000126
671 0.000124
672 0.000122
673 0.000121
674 0.000122
675 0.000121
676 0.000118
677 0.000115
678 0.000110
679 0.000104
680 0.000098
681 0.000093
682 0.000090
683 0.000087
684 0.000087
685 0.000089
686 0.000089
687 0.000090
688 0.000092
689 0.000093
690 0.000094
691 0.000096
692 0.000097
693 0.000097
694 0.000100
695 0.000100
696 0.000099
697 0.000097
698 0.000093
699 0.000088
700 0.000084
701 0.000081
702 0.000080
703 0.000080
704 0.000080
705 0.000080
706 0.000082
707 0.000085
708 0.000088
709 0.000088
710 0.000089
711 0.000091
712 0.000094
713 0.000096
714 0.000097
715 0.000097
716 0.000096
717 0.000093
718 0.000092
719 0.000092
720 0.000091
721 0.000091
722 0.000091
723 0.000090
724 0.000089
725 0.000087
726 0.000085
727 0.000083
728 0.000083
729 0.000083
730 0.000085
731 0.000086
732 0.000086
733 0.000086
734 0.000087
735 0.000087
736 0.000086
737 0.000084
738 0.000081
739 0.000077
740 0.000074
741 0.000071
742 0.000067
743 0.000064
744 0.000060
745 0.000056
746 0.000053
747 0.000050
748 0.000047
749 0.000043
750 0.000042
751 0.000039
752 0.000036
753 0.000035
754 0.000035
755 0.000035
756 0.000039
757 0.000040
758 0.000041
759 0.000043
760 0.000045
761 0.000047
762 0.000049
763 0.000048
764 0.000049
765 0.000047
766 0.000047
767 0.000047
768 0.000044
769 0.000039
770 0.000034
771 0.000030
772 0.000028
773 0.000028
774 0.000028
775 0.000027
776 0.000025
777 0.000024
778 0.000025
779 0.000026
780 0.000027
781 0.000028
782 0.000027
783 0.000024
784 0.000022
785 0.000021
786 0.000020
787 0.000019
788 0.000017
789 0.000017
790 0.000016
791 0.000016
792 0.000014
793 0.000013
794 0.000011
795 0.000011
796 0.000011
797 0.000011
798 0.000012
799 0.000013
800 0.000014
801 0.000014
802 0.000013
803 0.000013
804 0.000014
805 0.000016
806 0.000018
807 0.000019
808 0.000017
809 0.000016
