# i correlation
1 0.001605
2 0.001572
3 0.001547
4 0.001523
5 0.001504
6 0.001488
7 0.001472
8 0.001457
9 0.001445
10 0.001432
11 0.001421
12 0.001413
13 0.001407
14 0.001402
15 0.001400
16 0.001393
17 0.001386
18 0.001377
19 0.001370
20 0.001361
21 0.001355
22 0.001347
23 0.001335
24 0.001325
25 0.001314
26 0.001304
27 0.001292
28 0.001279
29 0.001273
30 0.001265
31 0.001258
32 0.001249
33 0.001240
34 0.001231
35 0.001224
36 0.001219
37 0.001216
38 0.001213
39 0.001210
40 0.001204
41 0.001198
42 0.001185
43 0.001174
44 0.001164
45 0.001155
46 0.001147
47 0.001139
48 0.001134
49 0.001125
50 0.001120
51 0.001114
52 0.001107
53 0.001102
54 0.001097
55 0.001090
56 0.001084
57 0.001075
58 0.001067
59 0.001060
60 0.001055
61 0.001049
62 0.001042
63 0.001037
64 0.001031
65 0.001025
66 0.001018
67 0.001013
68 0.001007
69 0.001002
70 0.000997
71 0.000992
72 0.000987
73 0.000982
74 0.000978
75 0.000973
76 0.000968
77 0.000964
78 0.000961
79 0.000957
80 0.000955
81 0.000954
82 0.000952
83 0.000950
84 0.000947
85 0.000942
86 0.000938
87 0.000934
88 0.000931
89 0.000929
90 0.000927
91 0.000924
92 0.000921
93 0.000920
94 0.000919
95 0.000915
96 0.000913
97 0.000911
98 0.000912
99 0.000911
100 0.000909
101 0.000909
102 0.000909
103 0.000906
104 0.000906
105 0.000909
106 0.000905
107 0.000899
108 0.000895
109 0.000894
110 0.000893
111 0.000894
112 0.000893
113 0.000894
114 0.000899
115 0.000903
116 0.000903
117 0.000905
118 0.000909
119 0.000909
120 0.000910
121 0.000910
122 0.000911
123 0.000915
124 0.000916
125 0.000917
126 0.000917
127 0.000913
128 0.000909
129 0.000903
130 0.000897
131 0.000898
132 0.000899
133 0.000899
134 0.000899
135 0.000895
136 0.000890
137 0.000887
138 0.000884
139 0.000878
140 0.000873
141 0.000872
142 0.000869
143 0.000867
144 0.000865
145 0.000859
146 0.000854
147 0.000848
148 0.000846
149 0.000844
150 0.000842
151 0.000837
152 0.000831
153 0.000829
154 0.000826
155 0.000824
156 0.000819
157 0.000813
158 0.000809
159 0.000802
160 0.000792
161 0.000784
162 0.000777
163 0.000771
164 0.000767
165 0.000765
166 0.000760
167 0.000760
168 0.000759
169 0.000756
170 0.000755
171 0.000754
172 0.000754
173 0.000751
174 0.000747
175 0.000744
176 0.000738
177 0.000732
178 0.000728
179 0.000726
180 0.000726
181 0.000723
182 0.000719
183 0.000715
184 0.000713
185 0.000714
186 0.000714
187 0.000715
188 0.000714
189 0.000713
190 0.000710
191 0.000710
192 0.000709
193 0.000706
194 0.000704
195 0.000702
196 0.000699
197 0.000695
198 0.000691
199 0.000689
200 0.000687
201 0.000686
202 0.000686
203 0.000685
204 0.000688
205 0.000691
206 0.000691
207 0.000692
208 0.000690
209 0.000688
210 0.000688
211 0.000685
212 0.000680
213 0.000675
214 0.000669
215 0.000664
216 0.000662
217 0.000656
218 0.000651
219 0.000647
220 0.000643
221 0.000640
222 0.000639
223 0.000637
224 0.000635
225 0.000635
226 0.000634
227 0.000634
228 0.000635
229 0.000630
230 0.000628
231 0.000628
232 0.000628
233 0.000626
234 0.000623
235 0.000619
236 0.000616
237 0.000614
238 0.000610
239 0.000610
240 0.000610
241 0.000611
242 0.000615
243 0.000619
244 0.000620
245 0.000620
246 0.000623
247 0.000625
248 0.000628
249 0.000629
250 0.000627
251 0.000626
252 0.000627
253 0.000625
254 0.000625
255 0.000623
256 0.000624
257 0.000625
258 0.000626
259 0.000624
260 0.000623
261 0.000623
262 0.000622
263 0.000619
264 0.000616
265 0.000611
266 0.000604
267 0.000596
268 0.000590
269 0.000589
270 0.000586
271 0.000582
272 0.000581
273 0.000580
274 0.000580
275 0.000581
276 0.000578
277 0.000575
278 0.000573
279 0.000568
280 0.000563
281 0.000561
282 0.000558
283 0.000558
284 0.000555
285 0.000553
286 0.000551
287 0.000549
288 0.000543
289 0.000539
290 0.000538
291 0.000536
292 0.000536
293 0.000538
294 0.000537
295 0.000537
296 0.000538
297 0.000539
298 0.000538
299 0.000536
300 0.000534
301 0.000529
302 0.000523
303 0.000517
304 0.000514
305 0.000511
306 0.000507
307 0.000506
308 0.000505
309 0.000504
310 0.000504
311 0.000504
312 0.000507
313 0.000507
314 0.000509
315 0.000510
316 0.000510
317 0.000508
318 0.000509
319 0.000508
320 0.000509
321 0.000508
322 0.000510
323 0.000509
324 0.000508
325 0.000509
326 0.000513
327 0.000514
328 0.000514
329 0.000517
330 0.000518
331 0.000517
332 0.000513
333 0.000514
334 0.000512
335 0.000508
336 0.000508
337 0.000509
338 0.000509
339 0.000507
340 0.000507
341 0.000506
342 0.000505
343 0.000505
344 0.000503
345 0.000504
346 0.000504
347 0.000502
348 0.000500
349 0.000497
350 0.000493
351 0.000490
352 0.000484
353 0.000482
354 0.000479
355 0.000476
356 0.000472
357 0.000471
358 0.000471
359 0.000474
360 0.000479
361 0.000481
362 0.000485
363 0.000484
364 0.000483
365 0.000479
366 0.000479
367 0.000481
368 0.000480
369 0.000480
370 0.000480
371 0.000480
372 0.000480
373 0.000478
374 0.000481
375 0.000484
376 0.000486
377 0.000492
378 0.000493
379 0.000495
380 0.000497
381 0.000498
382 0.000499
383 0.000502
384 0.000503
385 0.000504
386 0.000503
387 0.000501
388 0.000498
389 0.000496
390 0.000493
391 0.000492
392 0.000492
393 0.000488
394 0.000487
395 0.000486
396 0.000487
397 0.000489
398 0.000492
399 0.000494
400 0.000494
401 0.000495
402 0.000492
403 0.000488
404 0.000484
405 0.000478
406 0.000475
407 0.000473
408 0.000469
409 0.000466
410 0.000465
411 0.000464
412 0.000463
413 0.000462
414 0.000460
415 0.000457
416 0.000458
417 0.000459
418 0.000458
419 0.000456
420 0.000453
421 0.000451
422 0.000449
423 0.000448
424 0.000443
425 0.000437
426 0.000431
427 0.000429
428 0.000425
429 0.000422
430 0.000417
431 0.000414
432 0.000410
433 0.000407
434 0.000401
435 0.000397
436 0.000393
437 0.000389
438 0.000386
439 0.000385
440 0.000382
441 0.000377
442 0.000372
443 0.000368
444 0.000366
445 0.000364
446 0.000361
447 0.000358
448 0.000357
449 0.000355
450 0.000353
451 0.000353
452 0.000353
453 0.000351
454 0.000351
455 0.000350
456 0.000349
457 0.000346
458 0.000346
459 0.000344
460 0.000343
461 0.000343
462 0.000341
463 0.000339
464 0.000339
465 0.000340
466 0.000340
467 0.000339
468 0.000339
469 0.000339
470 0.000337
471 0.000334
472 0.000330
473 0.000325
474 0.000320
475 0.000316
476 0.000313
477 0.000313
478 0.000310
479 0.000306
480 0.000302
481 0.000298
482 0.000295
483 0.000293
484 0.000292
485 0.000295
486 0.000295
487 0.000296
488 0.000295
489 0.000295
490 0.000294
491 0.000295
492 0.000295
493 0.000295
494 0.000296
495 0.000295
496 0.000293
497 0.000290
498 0.000288
499 0.000286
500 0.000285
501 0.000286
502 0.000283
503 0.000284
504 0.000288
505 0.000291
506 0.000293
507 0.000296
508 0.000298
509 0.000298
510 0.000300
511 0.000298
512 0.000295
513 0.000294
514 0.000293
515 0.000294
516 0.000297
517 0.000300
518 0.000303
519 0.000303
520 0.000302
521 0.000301
522 0.000301
523 0.000300
524 0.000297
525 0.000298
526 0.000298
527 0.000298
528 0.000299
529 0.000298
530 0.000296
531 0.000297
532 0.000300
533 0.000301
534 0.000300
535 0.000299
536 0.000298
537 0.000296
538 0.000294
539 0.000293
540 0.000292
541 0.000290
542 0.000289
543 0.000285
544 0.000284
545 0.000281
546 0.000279
547 0.000278
548 0.000277
549 0.000279
550 0.000280
551 0.000278
552 0.000272
553 0.000268
554 0.000267
555 0.000265
556 0.000262
557 0.000259
558 0.000256
559 0.000252
560 0.000246
561 0.000243
562 0.000240
563 0.000236
564 0.000232
565 0.000231
566 0.000229
567 0.000225
568 0.000221
569 0.000219
570 0.000217
571 0.000217
572 0.000216
573 0.000217
574 0.000217
575 0.000215
576 0.000215
577 0.000213
578 0.000209
579 0.000206
580 0.000204
581 0.000202
582 0.000201
583 0.000202
584 0.000200
585 0.000199
586 0.000197
587 0.000195
588 0.000194
589 0.000197
590 0.000202
591 0.000207
592 0.000210
593 0.000209
594 0.000208
595 0.000208
596 0.000208
597 0.000207
598 0.000208
599 0.000208
600 0.000206
601 0.000202
602 0.000202
603 0.000202
604 0.000202
605 0.000202
606 0.000201
607 0.000200
608 0.000200
609 0.000203
610 0.000204
611 0.000204
612 0.000203
613 0.000204
614 0.000202
615 0.000200
616 0.000195
617 0.000190
618 0.000190
619 0.000191
620 0.000192
621 0.000193
622 0.000195
623 0.000197
624 0.000200
625 0.000202
626 0.000203
627 0.000205
628 0.000208
629 0.000211
630 0.000213
631 0.000216
632 0.000218
633 0.000221
634 0.000221
635 0.000220
636 0.000219
637 0.000220
638 0.000221
639 0.000221
640 0.000223
641 0.000222
642 0.000221
643 0.000221
644 0.000223
645 0.000224
646 0.000223
647 0.000221
648 0.000220
649 0.000221
650 0.000223
651 0.000223
652 0.000222
653 0.000223
654 0.000224
655 0.000226
656 0.000227
657 0.000226
658 0.000224
659 0.000227
660 0.000228
661 0.000228
662 0.000228
663 0.000228
664 0.000229
665 0.000229
666 0.000227
667 0.000225
668 0.000223
669 0.000221
670 0.000219
671 0.000216
672 0.000214
673 0.000213
674 0.000212
675 0.000212
676 0.000212
677 0.000209
678 0.000204
679 0.000200
680 0.000197
681 0.000194
682 0.000192
683 0.000189
684 0.000185
685 0.000180
686 0.000176
687 0.000174
688 0.000173
689 0.000172
690 0.000171
691 0.000170
692 0.000168
693 0.000169
694 0.000170
695 0.000170
696 0.000171
697 0.000173
698 0.000173
699 0.000172
700 0.000172
701 0.000170
702 0.000167
703 0.000169
704 0.000170
705 0.000169
706 0.000167
707 0.000167
708 0.000167
709 0.000167
710 0.000168
711 0.000167
712 0.000167
713 0.000168
714 0.000171
715 0.000173
716 0.000173
717 0.000174
718 0.000174
719 0.000173
720 0.000172
721 0.000172
722 0.000172
723 0.000175
724 0.000176
725 0.000177
726 0.000177
727 0.000176
728 0.000174
729 0.000172
730 0.000170
731 0.000166
732 0.000162
733 0.000159
734 0.000158
735 0.000156
736 0.000154
737 0.000153
738 0.000154
739 0.000153
740 0.000154
741 0.000155
742 0.000156
743 0.000160
744 0.000161
745 0.000163
746 0.000163
747 0.000165
748 0.000164
749 0.000164
750 0.000162
751 0.000161
752 0.000160
753 0.000159
754 0.000160
755 0.000161
756 0.000161
757 0.000161
758 0.000160
759 0.000162
760 0.000164
761 0.000163
762 0.000164
763 0.000167
764 0.000169
765 0.000170
766 0.000171
767 0.000170
768 0.000170
769 0.000171
770 0.000171
771 0.000169
772 0.000165
773 0.000162
774 0.000159
775 0.000155
776 0.000152
777 0.000152
778 0.000154
779 0.000155
780 0.000157
781 0.000161
782 0.000165
783 0.000170
784 0.000175
785 0.000179
786 0.000183
787 0.000185
788 0.000185
789 0.000185
790 0.000184
791 0.000183
792 0.000180
793 0.000179
794 0.000176
795 0.000174
796 0.000171
797 0.000169
798 0.000168
799 0.000169
800 0.000169
801 0.000168
802 0.000167
803 0.000165
804 0.000165
805 0.000165
806 0.000165
807 0.000166
808 0.000168
809 0.000169
