# i correlation
1 0.001533
2 0.001497
3 0.001466
4 0.001438
5 0.001409
6 0.001381
7 0.001358
8 0.001333
9 0.001309
10 0.001288
11 0.001270
12 0.001252
13 0.001234
14 0.001218
15 0.001208
16 0.001199
17 0.001192
18 0.001187
19 0.001181
20 0.001179
21 0.001176
22 0.001174
23 0.001171
24 0.001170
25 0.001168
26 0.001163
27 0.001158
28 0.001150
29 0.001141
30 0.001133
31 0.001125
32 0.001117
33 0.001107
34 0.001100
35 0.001094
36 0.001087
37 0.001079
38 0.001070
39 0.001061
40 0.001055
41 0.001049
42 0.001043
43 0.001038
44 0.001034
45 0.001033
46 0.001029
47 0.001025
48 0.001020
49 0.001018
50 0.001015
51 0.001016
52 0.001015
53 0.001010
54 0.001006
55 0.001000
56 0.000993
57 0.000987
58 0.000977
59 0.000966
60 0.000955
61 0.000946
62 0.000935
63 0.000928
64 0.000921
65 0.000914
66 0.000906
67 0.000900
68 0.000894
69 0.000889
70 0.000880
71 0.000872
72 0.000865
73 0.000859
74 0.000854
75 0.000855
76 0.000856
77 0.000857
78 0.000860
79 0.000864
80 0.000864
81 0.000862
82 0.000863
83 0.000866
84 0.000868
85 0.000865
86 0.000861
87 0.000859
88 0.000854
89 0.000852
90 0.000847
91 0.000842
92 0.000838
93 0.000837
94 0.000832
95 0.000828
96 0.000824
97 0.000824
98 0.000821
99 0.000814
100 0.000812
101 0.000810
102 0.000813
103 0.000812
104 0.000811
105 0.000812
106 0.000814
107 0.000816
108 0.000818
109 0.000822
110 0.000825
111 0.000825
112 0.000823
113 0.000822
114 0.000824
115 0.000825
116 0.000825
117 0.000823
118 0.000823
119 0.000821
120 0.000819
121 0.000816
122 0.000809
123 0.000798
124 0.000788
125 0.000780
126 0.000775
127 0.000773
128 0.000774
129 0.000775
130 0.000777
131 0.000776
132 0.000777
133 0.000782
134 0.000789
135 0.000793
136 0.000795
137 0.000798
138 0.000803
139 0.000806
140 0.000806
141 0.000807
142 0.000804
143 0.000801
144 0.000800
145 0.000801
146 0.000801
147 0.000795
148 0.000792
149 0.000790
150 0.000788
151 0.000784
152 0.000780
153 0.000777
154 0.000773
155 0.000768
156 0.000762
157 0.000755
158 0.000748
159 0.000741
160 0.000734
161 0.000728
162 0.000725
163 0.000721
164 0.000717
165 0.000716
166 0.000715
167 0.000713
168 0.000712
169 0.000714
170 0.000715
171 0.000716
172 0.000716
173 0.000719
174 0.000717
175 0.000714
176 0.000712
177 0.000710
178 0.000705
179 0.000702
180 0.000700
181 0.000697
182 0.000693
183 0.000689
184 0.000687
185 0.000682
186 0.000675
187 0.000667
188 0.000662
189 0.000657
190 0.000658
191 0.000659
192 0.000658
193 0.000657
194 0.000655
195 0.000655
196 0.000653
197 0.000652
198 0.000650
199 0.000648
200 0.000647
201 0.000644
202 0.000644
203 0.000646
204 0.000642
205 0.000636
206 0.000632
207 0.000627
208 0.000623
209 0.000615
210 0.000604
211 0.000595
212 0.000589
213 0.000584
214 0.000579
215 0.000574
216 0.000569
217 0.000565
218 0.000561
219 0.000560
220 0.000557
221 0.000556
222 0.000554
223 0.000555
224 0.000556
225 0.000557
226 0.000557
227 0.000555
228 0.000556
229 0.000555
230 0.000553
231 0.000547
232 0.000541
233 0.000538
234 0.000535
235 0.000529
236 0.000526
237 0.000524
238 0.000521
239 0.000520
240 0.000516
241 0.000513
242 0.000509
243 0.000505
244 0.000501
245 0.000498
246 0.000496
247 0.000496
248 0.000499
249 0.000502
250 0.000507
251 0.000509
252 0.000512
253 0.000512
254 0.000511
255 0.000512
256 0.000510
257 0.000509
258 0.000505
259 0.000503
260 0.000504
261 0.000502
262 0.000501
263 0.000498
264 0.000491
265 0.000487
266 0.000486
267 0.000488
268 0.000490
269 0.000489
270 0.000487
271 0.000481
272 0.000474
273 0.000467
274 0.000460
275 0.000453
276 0.000444
277 0.000435
278 0.000427
279 0.000421
280 0.000412
281 0.000405
282 0.000398
283 0.000391
284 0.000386
285 0.000382
286 0.000381
287 0.000380
288 0.000379
289 0.000377
290 0.000376
291 0.000375
292 0.000376
293 0.000377
294 0.000377
295 0.000377
296 0.000375
297 0.000373
298 0.000370
299 0.000369
300 0.000367
301 0.000364
302 0.000362
303 0.000362
304 0.000361
305 0.000360
306 0.000360
307 0.000357
308 0.000354
309 0.000350
310 0.000349
311 0.000347
312 0.000347
313 0.000350
314 0.000353
315 0.000353
316 0.000355
317 0.000357
318 0.000360
319 0.000365
320 0.000365
321 0.000366
322 0.000368
323 0.000373
324 0.000373
325 0.000373
326 0.000373
327 0.000372
328 0.000368
329 0.000364
330 0.000362
331 0.000361
332 0.000356
333 0.000353
334 0.000349
335 0.000346
336 0.000343
337 0.000341
338 0.000338
339 0.000335
340 0.000331
341 0.000326
342 0.000324
343 0.000324
344 0.000323
345 0.000323
346 0.000325
347 0.000330
348 0.000332
349 0.000333
350 0.000334
351 0.000332
352 0.000331
353 0.000332
354 0.000335
355 0.000340
356 0.000340
357 0.000344
358 0.000349
359 0.000352
360 0.000355
361 0.000352
362 0.000348
363 0.000347
364 0.000347
365 0.000345
366 0.000340
367 0.000341
368 0.000343
369 0.000340
370 0.000338
371 0.000337
372 0.000335
373 0.000333
374 0.000335
375 0.000337
376 0.000334
377 0.000331
378 0.000330
379 0.000330
380 0.000330
381 0.000329
382 0.000329
383 0.000329
384 0.000328
385 0.000325
386 0.000323
387 0.000318
388 0.000317
389 0.000314
390 0.000314
391 0.000313
392 0.000311
393 0.000310
394 0.000306
395 0.000305
396 0.000304
397 0.000304
398 0.000305
399 0.000308
400 0.000312
401 0.000317
402 0.000323
403 0.000330
404 0.000334
405 0.000340
406 0.000346
407 0.000350
408 0.000355
409 0.000357
410 0.000360
411 0.000361
412 0.000363
413 0.000365
414 0.000367
415 0.000369
416 0.000368
417 0.000363
418 0.000357
419 0.000351
420 0.000347
421 0.000346
422 0.000343
423 0.000341
424 0.000339
425 0.000337
426 0.000334
427 0.000331
428 0.000328
429 0.000322
430 0.000315
431 0.000311
432 0.000308
433 0.000310
434 0.000309
435 0.000312
436 0.000314
437 0.000317
438 0.000318
439 0.000317
440 0.000318
441 0.000319
442 0.000319
443 0.000320
444 0.000323
445 0.000324
446 0.000322
447 0.000322
448 0.000322
449 0.000323
450 0.000322
451 0.000323
452 0.000327
453 0.000326
454 0.000324
455 0.000321
456 0.000318
457 0.000318
458 0.000321
459 0.000323
460 0.000327
461 0.000328
462 0.000331
463 0.000333
464 0.000336
465 0.000340
466 0.000339
467 0.000338
468 0.000337
469 0.000337
470 0.000337
471 0.000336
472 0.000337
473 0.000337
474 0.000335
475 0.000333
476 0.000331
477 0.000332
478 0.000330
479 0.000328
480 0.000325
481 0.000322
482 0.000316
483 0.000311
484 0.000305
485 0.000299
486 0.000293
487 0.000288
488 0.000285
489 0.000282
490 0.000280
491 0.000275
492 0.000272
493 0.000272
494 0.000271
495 0.000271
496 0.000273
497 0.000275
498 0.000279
499 0.000281
500 0.000282
501 0.000283
502 0.000284
503 0.000283
504 0.000284
505 0.000283
506 0.000280
507 0.000278
508 0.000275
509 0.000275
510 0.000273
511 0.000270
512 0.000268
513 0.000271
514 0.000270
515 0.000268
516 0.000267
517 0.000265
518 0.000265
519 0.000264
520 0.000266
521 0.000268
522 0.000269
523 0.000267
524 0.000267
525 0.000265
526 0.000260
527 0.000256
528 0.000253
529 0.000251
530 0.000247
531 0.000243
532 0.000235
533 0.000229
534 0.000221
535 0.000213
536 0.000207
537 0.000199
538 0.000192
539 0.000183
540 0.000176
541 0.000172
542 0.000169
543 0.000168
544 0.000168
545 0.000169
546 0.000168
547 0.000169
548 0.000172
549 0.000176
550 0.000180
551 0.000183
552 0.000188
553 0.000193
554 0.000198
555 0.000205
556 0.000212
557 0.000215
558 0.000218
559 0.000217
560 0.000216
561 0.000214
562 0.000211
563 0.000208
564 0.000205
565 0.000199
566 0.000196
567 0.000194
568 0.000192
569 0.000187
570 0.000186
571 0.000187
572 0.000187
573 0.000189
574 0.000193
575 0.000195
576 0.000197
577 0.000198
578 0.000200
579 0.000203
580 0.000204
581 0.000206
582 0.000210
583 0.000217
584 0.000219
585 0.000222
586 0.000225
587 0.000228
588 0.000232
589 0.000233
590 0.000234
591 0.000233
592 0.000232
593 0.000234
594 0.000235
595 0.000233
596 0.000232
597 0.000233
598 0.000236
599 0.000237
600 0.000239
601 0.000237
602 0.000234
603 0.000230
604 0.000230
605 0.000231
606 0.000233
607 0.000234
608 0.000235
609 0.000237
610 0.000238
611 0.000238
612 0.000238
613 0.000236
614 0.000233
615 0.000232
616 0.000232
617 0.000233
618 0.000233
619 0.000231
620 0.000229
621 0.000224
622 0.000220
623 0.000215
624 0.000211
625 0.000208
626 0.000203
627 0.000202
628 0.000200
629 0.000202
630 0.000200
631 0.000198
632 0.000196
633 0.000195
634 0.000195
635 0.000196
636 0.000196
637 0.000196
638 0.000195
639 0.000195
640 0.000196
641 0.000195
642 0.000197
643 0.000198
644 0.000197
645 0.000197
646 0.000196
647 0.000194
648 0.000188
649 0.000184
650 0.000185
651 0.000185
652 0.000186
653 0.000186
654 0.000187
655 0.000188
656 0.000188
657 0.000188
658 0.000188
659 0.000186
660 0.000183
661 0.000181
662 0.000177
663 0.000176
664 0.000177
665 0.000179
666 0.000181
667 0.000183
668 0.000183
669 0.000185
670 0.000185
671 0.000185
672 0.000184
673 0.000184
674 0.000185
675 0.000183
676 0.000182
677 0.000183
678 0.000183
679 0.000181
680 0.000179
681 0.000178
682 0.000176
683 0.000174
684 0.000173
685 0.000170
686 0.000167
687 0.000162
688 0.000158
689 0.000154
690 0.000151
691 0.000150
692 0.000150
693 0.000152
694 0.000155
695 0.000159
696 0.000163
697 0.000165
698 0.000165
699 0.000165
700 0.000166
701 0.000167
702 0.000169
703 0.000168
704 0.000168
705 0.000166
706 0.000165
707 0.000165
708 0.000163
709 0.000161
710 0.000157
711 0.000153
712 0.000151
713 0.000148
714 0.000144
715 0.000141
716 0.000138
717 0.000135
718 0.000133
719 0.000132
720 0.000131
721 0.000133
722 0.000138
723 0.000139
724 0.000142
725 0.000142
726 0.000144
727 0.000146
728 0.000150
729 0.000154
730 0.000156
731 0.000157
732 0.000159
733 0.000159
734 0.000157
735 0.000155
736 0.000154
737 0.000152
738 0.000149
739 0.000149
740 0.000147
741 0.000143
742 0.000138
743 0.000136
744 0.000133
745 0.000129
746 0.000129
747 0.000130
748 0.000133
749 0.000137
750 0.000140
751 0.000143
752 0.000144
753 0.000144
754 0.000144
755 0.000142
756 0.000141
757 0.000138
758 0.000136
759 0.000135
760 0.000132
761 0.000131
762 0.000127
763 0.000126
764 0.000122
765 0.000120
766 0.000117
767 0.000117
768 0.000116
769 0.000114
770 0.000112
771 0.000111
772 0.000108
773 0.000108
774 0.000108
775 0.000111
776 0.000113
777 0.000115
778 0.000115
779 0.000115
780 0.000116
781 0.000119
782 0.000120
783 0.000123
784 0.000123
785 0.000124
786 0.000125
787 0.000124
788 0.000124
789 0.000122
790 0.000120
791 0.000120
792 0.000118
793 0.000115
794 0.000110
795 0.000105
796 0.000102
797 0.000099
798 0.000096
799 0.000093
800 0.000092
801 0.000093
802 0.000092
803 0.000091
804 0.000091
805 0.000090
806 0.000090
807 0.000091
808 0.000095
809 0.000095
