# i correlation
1 0.001628
2 0.001594
3 0.001564
4 0.001541
5 0.001520
6 0.001502
7 0.001485
8 0.001469
9 0.001453
10 0.001436
11 0.001419
12 0.001404
13 0.001388
14 0.001379
15 0.001373
16 0.001367
17 0.001359
18 0.001354
19 0.001349
20 0.001344
21 0.001336
22 0.001332
23 0.001324
24 0.001316
25 0.001306
26 0.001299
27 0.001290
28 0.001282
29 0.001266
30 0.001252
31 0.001239
32 0.001228
33 0.001216
34 0.001206
35 0.001198
36 0.001188
37 0.001186
38 0.001180
39 0.001173
40 0.001167
41 0.001164
42 0.001162
43 0.001161
44 0.001163
45 0.001162
46 0.001160
47 0.001159
48 0.001157
49 0.001152
50 0.001148
51 0.001145
52 0.001140
53 0.001139
54 0.001138
55 0.001138
56 0.001138
57 0.001135
58 0.001132
59 0.001128
60 0.001125
61 0.001120
62 0.001118
63 0.001116
64 0.001115
65 0.001115
66 0.001114
67 0.001111
68 0.001108
69 0.001103
70 0.001094
71 0.001088
72 0.001085
73 0.001083
74 0.001082
75 0.001082
76 0.001086
77 0.001084
78 0.001082
79 0.001078
80 0.001075
81 0.001076
82 0.001073
83 0.001070
84 0.001067
85 0.001065
86 0.001056
87 0.001049
88 0.001042
89 0.001035
90 0.001027
91 0.001022
92 0.001016
93 0.001011
94 0.001005
95 0.001000
96 0.000996
97 0.000992
98 0.000993
99 0.000991
100 0.000986
101 0.000985
102 0.000983
103 0.000982
104 0.000979
105 0.000971
106 0.000962
107 0.000953
108 0.000943
109 0.000940
110 0.000938
111 0.000934
112 0.000930
113 0.000926
114 0.000917
115 0.000907
116 0.000899
117 0.000890
118 0.000883
119 0.000880
120 0.000879
121 0.000880
122 0.000882
123 0.000880
124 0.000876
125 0.000869
126 0.000866
127 0.000863
128 0.000862
129 0.000863
130 0.000862
131 0.000864
132 0.000864
133 0.000860
134 0.000855
135 0.000854
136 0.000858
137 0.000859
138 0.000861
139 0.000860
140 0.000860
141 0.000859
142 0.000857
143 0.000854
144 0.000851
145 0.000847
146 0.000844
147 0.000839
148 0.000834
149 0.000831
150 0.000828
151 0.000826
152 0.000828
153 0.000827
154 0.000827
155 0.000828
156 0.000832
157 0.000837
158 0.000841
159 0.000844
160 0.000847
161 0.000848
162 0.000848
163 0.000849
164 0.000852
165 0.000853
166 0.000856
167 0.000856
168 0.000852
169 0.000846
170 0.000840
171 0.000835
172 0.000827
173 0.000823
174 0.000819
175 0.000818
176 0.000814
177 0.000812
178 0.000815
179 0.000816
180 0.000816
181 0.000815
182 0.000814
183 0.000811
184 0.000808
185 0.000804
186 0.000800
187 0.000798
188 0.000800
189 0.000801
190 0.000798
191 0.000792
192 0.000787
193 0.000782
194 0.000780
195 0.000773
196 0.000765
197 0.000759
198 0.000754
199 0.000749
200 0.000745
201 0.000739
202 0.000733
203 0.000732
204 0.000730
205 0.000733
206 0.000731
207 0.000730
208 0.000730
209 0.000728
210 0.000722
211 0.000714
212 0.000711
213 0.000709
214 0.000708
215 0.000711
216 0.000710
217 0.000708
218 0.000704
219 0.000700
220 0.000697
221 0.000695
222 0.000695
223 0.000694
224 0.000695
225 0.000696
226 0.000694
227 0.000691
228 0.000686
229 0.000683
230 0.000675
231 0.000674
232 0.000675
233 0.000675
234 0.000674
235 0.000674
236 0.000673
237 0.000669
238 0.000668
239 0.000667
240 0.000663
241 0.000664
242 0.000668
243 0.000674
244 0.000678
245 0.000680
246 0.000679
247 0.000677
248 0.000676
249 0.000674
250 0.000674
251 0.000673
252 0.000670
253 0.000666
254 0.000662
255 0.000661
256 0.000663
257 0.000664
258 0.000663
259 0.000664
260 0.000666
261 0.000666
262 0.000670
263 0.000672
264 0.000676
265 0.000677
266 0.000679
267 0.000679
268 0.000680
269 0.000680
270 0.000684
271 0.000686
272 0.000684
273 0.000683
274 0.000680
275 0.000676
276 0.000670
277 0.000664
278 0.000656
279 0.000654
280 0.000650
281 0.000646
282 0.000642
283 0.000639
284 0.000638
285 0.000638
286 0.000636
287 0.000634
288 0.000634
289 0.000635
290 0.000636
291 0.000632
292 0.000628
293 0.000624
294 0.000623
295 0.000619
296 0.000617
297 0.000615
298 0.000614
299 0.000613
300 0.000610
301 0.000607
302 0.000604
303 0.000597
304 0.000596
305 0.000592
306 0.000591
307 0.000591
308 0.000588
309 0.000587
310 0.000588
311 0.000588
312 0.000592
313 0.000592
314 0.000590
315 0.000584
316 0.000583
317 0.000584
318 0.000586
319 0.000588
320 0.000589
321 0.000589
322 0.000587
323 0.000580
324 0.000575
325 0.000570
326 0.000569
327 0.000569
328 0.000570
329 0.000571
330 0.000573
331 0.000574
332 0.000574
333 0.000572
334 0.000571
335 0.000571
336 0.000575
337 0.000577
338 0.000579
339 0.000576
340 0.000573
341 0.000569
342 0.000565
343 0.000560
344 0.000559
345 0.000563
346 0.000568
347 0.000571
348 0.000570
349 0.000570
350 0.000566
351 0.000563
352 0.000559
353 0.000558
354 0.000557
355 0.000558
356 0.000557
357 0.000557
358 0.000556
359 0.000556
360 0.000557
361 0.000560
362 0.000560
363 0.000558
364 0.000558
365 0.000561
366 0.000562
367 0.000563
368 0.000562
369 0.000562
370 0.000558
371 0.000552
372 0.000547
373 0.000542
374 0.000538
375 0.000534
376 0.000527
377 0.000518
378 0.000513
379 0.000508
380 0.000505
381 0.000503
382 0.000501
383 0.000502
384 0.000502
385 0.000500
386 0.000500
387 0.000500
388 0.000503
389 0.000502
390 0.000502
391 0.000499
392 0.000496
393 0.000496
394 0.000495
395 0.000496
396 0.000496
397 0.000497
398 0.000497
399 0.000495
400 0.000491
401 0.000488
402 0.000488
403 0.000488
404 0.000486
405 0.000483
406 0.000481
407 0.000480
408 0.000478
409 0.000478
410 0.000480
411 0.000481
412 0.000481
413 0.000482
414 0.000480
415 0.000476
416 0.000473
417 0.000472
418 0.000471
419 0.000467
420 0.000465
421 0.000467
422 0.000469
423 0.000473
424 0.000473
425 0.000475
426 0.000476
427 0.000477
428 0.000480
429 0.000482
430 0.000485
431 0.000486
432 0.000487
433 0.000489
434 0.000492
435 0.000491
436 0.000488
437 0.000485
438 0.000482
439 0.000476
440 0.000473
441 0.000470
442 0.000467
443 0.000461
444 0.000458
445 0.000453
446 0.000449
447 0.000444
448 0.000443
449 0.000443
450 0.000445
451 0.000445
452 0.000443
453 0.000442
454 0.000441
455 0.000435
456 0.000432
457 0.000426
458 0.000423
459 0.000420
460 0.000414
461 0.000404
462 0.000396
463 0.000390
464 0.000385
465 0.000381
466 0.000377
467 0.000375
468 0.000376
469 0.000376
470 0.000372
471 0.000371
472 0.000370
473 0.000371
474 0.000373
475 0.000373
476 0.000371
477 0.000375
478 0.000378
479 0.000380
480 0.000378
481 0.000374
482 0.000371
483 0.000368
484 0.000364
485 0.000360
486 0.000355
487 0.000348
488 0.000343
489 0.000338
490 0.000332
491 0.000330
492 0.000326
493 0.000323
494 0.000324
495 0.000326
496 0.000325
497 0.000324
498 0.000323
499 0.000324
500 0.000325
501 0.000328
502 0.000332
503 0.000333
504 0.000332
505 0.000332
506 0.000334
507 0.000334
508 0.000330
509 0.000327
510 0.000327
511 0.000327
512 0.000328
513 0.000326
514 0.000326
515 0.000322
516 0.000319
517 0.000318
518 0.000316
519 0.000316
520 0.000314
521 0.000316
522 0.000319
523 0.000322
524 0.000324
525 0.000326
526 0.000331
527 0.000340
528 0.000344
529 0.000345
530 0.000345
531 0.000345
532 0.000347
533 0.000350
534 0.000354
535 0.000359
536 0.000362
537 0.000363
538 0.000361
539 0.000360
540 0.000359
541 0.000358
542 0.000354
543 0.000354
544 0.000353
545 0.000353
546 0.000352
547 0.000349
548 0.000344
549 0.000340
550 0.000337
551 0.000332
552 0.000328
553 0.000325
554 0.000324
555 0.000323
556 0.000321
557 0.000318
558 0.000315
559 0.000310
560 0.000307
561 0.000303
562 0.000302
563 0.000299
564 0.000298
565 0.000295
566 0.000288
567 0.000283
568 0.000277
569 0.000274
570 0.000273
571 0.000273
572 0.000274
573 0.000272
574 0.000270
575 0.000267
576 0.000264
577 0.000262
578 0.000261
579 0.000259
580 0.000258
581 0.000256
582 0.000254
583 0.000251
584 0.000250
585 0.000244
586 0.000241
587 0.000241
588 0.000241
589 0.000240
590 0.000242
591 0.000244
592 0.000244
593 0.000243
594 0.000243
595 0.000241
596 0.000239
597 0.000236
598 0.000234
599 0.000230
600 0.000228
601 0.000227
602 0.000228
603 0.000228
604 0.000228
605 0.000226
606 0.000225
607 0.000220
608 0.000218
609 0.000215
610 0.000214
611 0.000213
612 0.000214
613 0.000213
614 0.000210
615 0.000211
616 0.000210
617 0.000211
618 0.000213
619 0.000213
620 0.000214
621 0.000214
622 0.000215
623 0.000214
624 0.000213
625 0.000212
626 0.000212
627 0.000209
628 0.000206
629 0.000202
630 0.000199
631 0.000196
632 0.000194
633 0.000191
634 0.000189
635 0.000186
636 0.000184
637 0.000179
638 0.000177
639 0.000174
640 0.000172
641 0.000170
642 0.000169
643 0.000169
644 0.000168
645 0.000168
646 0.000168
647 0.000168
648 0.000168
649 0.000168
650 0.000167
651 0.000162
652 0.000159
653 0.000154
654 0.000150
655 0.000147
656 0.000146
657 0.000145
658 0.000145
659 0.000147
660 0.000148
661 0.000145
662 0.000143
663 0.000143
664 0.000140
665 0.000137
666 0.000138
667 0.000138
668 0.000141
669 0.000144
670 0.000145
671 0.000147
672 0.000148
673 0.000150
674 0.000149
675 0.000147
676 0.000147
677 0.000147
678 0.000148
679 0.000148
680 0.000147
681 0.000146
682 0.000147
683 0.000145
684 0.000147
685 0.000149
686 0.000149
687 0.000150
688 0.000151
689 0.000151
690 0.000149
691 0.000148
692 0.000148
693 0.000149
694 0.000152
695 0.000152
696 0.000152
697 0.000151
698 0.000150
699 0.000149
700 0.000154
701 0.000158
702 0.000162
703 0.000166
704 0.000168
705 0.000168
706 0.000168
707 0.000169
708 0.000170
709 0.000168
710 0.000167
711 0.000165
712 0.000164
713 0.000162
714 0.000160
715 0.000159
716 0.000159
717 0.000159
718 0.000157
719 0.000156
720 0.000156
721 0.000155
722 0.000155
723 0.000154
724 0.000153
725 0.000150
726 0.000148
727 0.000148
728 0.000147
729 0.000148
730 0.000148
731 0.000146
732 0.000143
733 0.000140
734 0.000137
735 0.000135
736 0.000130
737 0.000125
738 0.000121
739 0.000118
740 0.000116
741 0.000113
742 0.000110
743 0.000108
744 0.000108
745 0.000108
746 0.000109
747 0.000110
748 0.000114
749 0.000116
750 0.000118
751 0.000120
752 0.000120
753 0.000120
754 0.000121
755 0.000122
756 0.000122
757 0.000122
758 0.000123
759 0.000123
760 0.000122
761 0.000120
762 0.000118
763 0.000114
764 0.000110
765 0.000107
766 0.000106
767 0.000105
768 0.000104
769 0.000103
770 0.000104
771 0.000105
772 0.000109
773 0.000110
774 0.000110
775 0.000107
776 0.000105
777 0.000102
778 0.000102
779 0.000103
780 0.000101
781 0.000099
782 0.000096
783 0.000094
784 0.000091
785 0.000091
786 0.000091
787 0.000089
788 0.000087
789 0.000084
790 0.000080
791 0.000076
792 0.000074
793 0.000073
794 0.000071
795 0.000069
796 0.000066
797 0.000064
798 0.000060
799 0.000058
800 0.000055
801 0.000053
802 0.000050
803 0.000048
804 0.000048
805 0.000046
806 0.000046
807 0.000046
808 0.000043
809 0.000042
