# i correlation
1 0.001474
2 0.001442
3 0.001417
4 0.001393
5 0.001373
6 0.001355
7 0.001341
8 0.001328
9 0.001319
10 0.001309
11 0.001301
12 0.001295
13 0.001289
14 0.001283
15 0.001276
16 0.001267
17 0.001260
18 0.001251
19 0.001243
20 0.001236
21 0.001231
22 0.001224
23 0.001216
24 0.001208
25 0.001201
26 0.001196
27 0.001196
28 0.001191
29 0.001188
30 0.001183
31 0.001172
32 0.001164
33 0.001153
34 0.001144
35 0.001137
36 0.001128
37 0.001118
38 0.001111
39 0.001105
40 0.001100
41 0.001099
42 0.001097
43 0.001094
44 0.001091
45 0.001087
46 0.001085
47 0.001081
48 0.001075
49 0.001071
50 0.001070
51 0.001072
52 0.001069
53 0.001062
54 0.001057
55 0.001049
56 0.001042
57 0.001036
58 0.001026
59 0.001021
60 0.001015
61 0.001006
62 0.000998
63 0.000991
64 0.000983
65 0.000978
66 0.000977
67 0.000973
68 0.000972
69 0.000973
70 0.000972
71 0.000975
72 0.000981
73 0.000984
74 0.000984
75 0.000982
76 0.000976
77 0.000972
78 0.000967
79 0.000964
80 0.000959
81 0.000957
82 0.000954
83 0.000951
84 0.000951
85 0.000945
86 0.000940
87 0.000933
88 0.000930
89 0.000925
90 0.000920
91 0.000913
92 0.000908
93 0.000907
94 0.000901
95 0.000896
96 0.000894
97 0.000890
98 0.000889
99 0.000887
100 0.000885
101 0.000886
102 0.000887
103 0.000888
104 0.000889
105 0.000887
106 0.000883
107 0.000878
108 0.000872
109 0.000865
110 0.000858
111 0.000852
112 0.000842
113 0.000834
114 0.000828
115 0.000821
116 0.000816
117 0.000812
118 0.000810
119 0.000809
120 0.000809
121 0.000809
122 0.000813
123 0.000816
124 0.000819
125 0.000824
126 0.000827
127 0.000825
128 0.000826
129 0.000828
130 0.000828
131 0.000831
132 0.000837
133 0.000841
134 0.000846
135 0.000847
136 0.000848
137 0.000847
138 0.000844
139 0.000839
140 0.000835
141 0.000829
142 0.000820
143 0.000812
144 0.000810
145 0.000809
146 0.000810
147 0.000812
148 0.000813
149 0.000810
150 0.000808
151 0.000807
152 0.000808
153 0.000809
154 0.000807
155 0.000805
156 0.000803
157 0.000799
158 0.000793
159 0.000784
160 0.000778
161 0.000774
162 0.000770
163 0.000770
164 0.000768
165 0.000768
166 0.000767
167 0.000770
168 0.000770
169 0.000769
170 0.000766
171 0.000757
172 0.000754
173 0.000748
174 0.000747
175 0.000750
176 0.000752
177 0.000758
178 0.000763
179 0.000770
180 0.000774
181 0.000775
182 0.000775
183 0.000779
184 0.000779
185 0.000777
186 0.000776
187 0.000772
188 0.000769
189 0.000768
190 0.000766
191 0.000766
192 0.000766
193 0.000763
194 0.000762
195 0.000759
196 0.000758
197 0.000761
198 0.000760
199 0.000760
200 0.000755
201 0.000752
202 0.000748
203 0.000741
204 0.000741
205 0.000740
206 0.000742
207 0.000745
208 0.000748
209 0.000754
210 0.000753
211 0.000754
212 0.000753
213 0.000753
214 0.000752
215 0.000751
216 0.000748
217 0.000746
218 0.000746
219 0.000748
220 0.000745
221 0.000742
222 0.000739
223 0.000735
224 0.000729
225 0.000725
226 0.000724
227 0.000718
228 0.000715
229 0.000713
230 0.000709
231 0.000706
232 0.000703
233 0.000701
234 0.000700
235 0.000701
236 0.000703
237 0.000701
238 0.000700
239 0.000697
240 0.000694
241 0.000689
242 0.000683
243 0.000680
244 0.000678
245 0.000674
246 0.000667
247 0.000661
248 0.000652
249 0.000646
250 0.000642
251 0.000643
252 0.000643
253 0.000644
254 0.000645
255 0.000644
256 0.000645
257 0.000642
258 0.000641
259 0.000639
260 0.000641
261 0.000639
262 0.000635
263 0.000632
264 0.000631
265 0.000631
266 0.000631
267 0.000630
268 0.000631
269 0.000628
270 0.000629
271 0.000627
272 0.000626
273 0.000626
274 0.000629
275 0.000629
276 0.000627
277 0.000626
278 0.000623
279 0.000622
280 0.000623
281 0.000628
282 0.000632
283 0.000634
284 0.000632
285 0.000634
286 0.000634
287 0.000632
288 0.000634
289 0.000638
290 0.000641
291 0.000641
292 0.000641
293 0.000638
294 0.000632
295 0.000628
296 0.000620
297 0.000615
298 0.000608
299 0.000602
300 0.000598
301 0.000597
302 0.000598
303 0.000598
304 0.000597
305 0.000595
306 0.000593
307 0.000589
308 0.000587
309 0.000585
310 0.000583
311 0.000585
312 0.000587
313 0.000585
314 0.000583
315 0.000584
316 0.000586
317 0.000588
318 0.000589
319 0.000590
320 0.000590
321 0.000588
322 0.000587
323 0.000584
324 0.000584
325 0.000582
326 0.000583
327 0.000581
328 0.000579
329 0.000573
330 0.000568
331 0.000566
332 0.000561
333 0.000559
334 0.000553
335 0.000547
336 0.000544
337 0.000541
338 0.000537
339 0.000535
340 0.000533
341 0.000529
342 0.000527
343 0.000527
344 0.000528
345 0.000530
346 0.000528
347 0.000528
348 0.000528
349 0.000526
350 0.000522
351 0.000514
352 0.000508
353 0.000503
354 0.000500
355 0.000499
356 0.000497
357 0.000494
358 0.000494
359 0.000495
360 0.000495
361 0.000497
362 0.000498
363 0.000499
364 0.000499
365 0.000499
366 0.000497
367 0.000497
368 0.000495
369 0.000491
370 0.000486
371 0.000482
372 0.000477
373 0.000471
374 0.000467
375 0.000462
376 0.000458
377 0.000457
378 0.000455
379 0.000452
380 0.000446
381 0.000440
382 0.000435
383 0.000434
384 0.000430
385 0.000424
386 0.000418
387 0.000409
388 0.000405
389 0.000400
390 0.000398
391 0.000397
392 0.000399
393 0.000399
394 0.000396
395 0.000392
396 0.000392
397 0.000388
398 0.000386
399 0.000384
400 0.000385
401 0.000386
402 0.000384
403 0.000383
404 0.000379
405 0.000377
406 0.000377
407 0.000375
408 0.000375
409 0.000375
410 0.000377
411 0.000379
412 0.000379
413 0.000382
414 0.000382
415 0.000383
416 0.000382
417 0.000380
418 0.000378
419 0.000378
420 0.000376
421 0.000374
422 0.000374
423 0.000378
424 0.000379
425 0.000377
426 0.000379
427 0.000378
428 0.000379
429 0.000378
430 0.000381
431 0.000381
432 0.000380
433 0.000379
434 0.000376
435 0.000376
436 0.000375
437 0.000376
438 0.000374
439 0.000371
440 0.000368
441 0.000365
442 0.000359
443 0.000356
444 0.000352
445 0.000348
446 0.000345
447 0.000341
448 0.000337
449 0.000336
450 0.000338
451 0.000341
452 0.000346
453 0.000350
454 0.000352
455 0.000354
456 0.000354
457 0.000356
458 0.000359
459 0.000361
460 0.000360
461 0.000357
462 0.000354
463 0.000351
464 0.000349
465 0.000350
466 0.000349
467 0.000349
468 0.000348
469 0.000350
470 0.000350
471 0.000349
472 0.000348
473 0.000347
474 0.000345
475 0.000343
476 0.000340
477 0.000337
478 0.000336
479 0.000339
480 0.000340
481 0.000345
482 0.000348
483 0.000348
484 0.000349
485 0.000350
486 0.000348
487 0.000349
488 0.000345
489 0.000344
490 0.000342
491 0.000339
492 0.000340
493 0.000338
494 0.000339
495 0.000337
496 0.000337
497 0.000338
498 0.000340
499 0.000344
500 0.000349
501 0.000351
502 0.000352
503 0.000352
504 0.000350
505 0.000350
506 0.000350
507 0.000349
508 0.000350
509 0.000351
510 0.000353
511 0.000357
512 0.000360
513 0.000360
514 0.000361
515 0.000357
516 0.000353
517 0.000350
518 0.000346
519 0.000341
520 0.000336
521 0.000332
522 0.000328
523 0.000323
524 0.000319
525 0.000319
526 0.000314
527 0.000309
528 0.000308
529 0.000306
530 0.000303
531 0.000297
532 0.000294
533 0.000294
534 0.000292
535 0.000290
536 0.000290
537 0.000291
538 0.000290
539 0.000289
540 0.000285
541 0.000283
542 0.000283
543 0.000282
544 0.000279
545 0.000278
546 0.000278
547 0.000279
548 0.000279
549 0.000279
550 0.000278
551 0.000278
552 0.000277
553 0.000276
554 0.000274
555 0.000273
556 0.000272
557 0.000272
558 0.000274
559 0.000275
560 0.000277
561 0.000279
562 0.000283
563 0.000286
564 0.000287
565 0.000287
566 0.000287
567 0.000286
568 0.000283
569 0.000279
570 0.000274
571 0.000273
572 0.000272
573 0.000269
574 0.000266
575 0.000265
576 0.000264
577 0.000264
578 0.000262
579 0.000259
580 0.000257
581 0.000254
582 0.000251
583 0.000252
584 0.000256
585 0.000258
586 0.000258
587 0.000258
588 0.000258
589 0.000258
590 0.000258
591 0.000258
592 0.000258
593 0.000259
594 0.000257
595 0.000256
596 0.000253
597 0.000251
598 0.000250
599 0.000248
600 0.000246
601 0.000244
602 0.000244
603 0.000244
604 0.000245
605 0.000247
606 0.000248
607 0.000252
608 0.000252
609 0.000252
610 0.000252
611 0.000251
612 0.000251
613 0.000251
614 0.000249
615 0.000248
616 0.000246
617 0.000246
618 0.000246
619 0.000247
620 0.000249
621 0.000252
622 0.000255
623 0.000256
624 0.000252
625 0.000251
626 0.000247
627 0.000244
628 0.000242
629 0.000238
630 0.000235
631 0.000230
632 0.000227
633 0.000225
634 0.000225
635 0.000226
636 0.000231
637 0.000236
638 0.000240
639 0.000243
640 0.000241
641 0.000238
642 0.000236
643 0.000232
644 0.000230
645 0.000230
646 0.000231
647 0.000232
648 0.000234
649 0.000236
650 0.000239
651 0.000243
652 0.000246
653 0.000246
654 0.000245
655 0.000242
656 0.000240
657 0.000238
658 0.000234
659 0.000231
660 0.000229
661 0.000226
662 0.000223
663 0.000219
664 0.000217
665 0.000215
666 0.000214
667 0.000215
668 0.000216
669 0.000216
670 0.000214
671 0.000210
672 0.000208
673 0.000205
674 0.000200
675 0.000195
676 0.000191
677 0.000191
678 0.000191
679 0.000190
680 0.000188
681 0.000189
682 0.000186
683 0.000185
684 0.000182
685 0.000180
686 0.000178
687 0.000176
688 0.000175
689 0.000174
690 0.000174
691 0.000174
692 0.000173
693 0.000174
694 0.000174
695 0.000173
696 0.000175
697 0.000175
698 0.000175
699 0.000175
700 0.000174
701 0.000173
702 0.000171
703 0.000169
704 0.000168
705 0.000169
706 0.000167
707 0.000167
708 0.000167
709 0.000166
710 0.000163
711 0.000162
712 0.000161
713 0.000158
714 0.000156
715 0.000154
716 0.000153
717 0.000151
718 0.000150
719 0.000150
720 0.000151
721 0.000152
722 0.000152
723 0.000153
724 0.000151
725 0.000151
726 0.000152
727 0.000152
728 0.000152
729 0.000151
730 0.000150
731 0.000148
732 0.000148
733 0.000146
734 0.000145
735 0.000145
736 0.000143
737 0.000142
738 0.000143
739 0.000143
740 0.000145
741 0.000149
742 0.000152
743 0.000154
744 0.000157
745 0.000160
746 0.000162
747 0.000164
748 0.000163
749 0.000162
750 0.000163
751 0.000163
752 0.000163
753 0.000162
754 0.000161
755 0.000160
756 0.000159
757 0.000158
758 0.000158
759 0.000158
760 0.000155
761 0.000155
762 0.000156
763 0.000154
764 0.000152
765 0.000149
766 0.000144
767 0.000141
768 0.000138
769 0.000136
770 0.000132
771 0.000130
772 0.000129
773 0.000130
774 0.000131
775 0.000133
776 0.000136
777 0.000138
778 0.000139
779 0.000139
780 0.000138
781 0.000137
782 0.000138
783 0.000139
784 0.000141
785 0.000142
786 0.000144
787 0.000142
788 0.000141
789 0.000140
790 0.000141
791 0.000140
792 0.000139
793 0.000140
794 0.000140
795 0.000139
796 0.000139
797 0.000140
798 0.000142
799 0.000142
800 0.000143
801 0.000144
802 0.000147
803 0.000153
804 0.000157
805 0.000158
806 0.000160
807 0.000160
808 0.000157
809 0.000156
