# i correlation
1 0.001570
2 0.001534
3 0.001507
4 0.001478
5 0.001453
6 0.001430
7 0.001411
8 0.001394
9 0.001380
10 0.001367
11 0.001355
12 0.001346
13 0.001334
14 0.001322
15 0.001315
16 0.001304
17 0.001287
18 0.001274
19 0.001264
20 0.001256
21 0.001246
22 0.001235
23 0.001223
24 0.001210
25 0.001200
26 0.001193
27 0.001187
28 0.001181
29 0.001179
30 0.001174
31 0.001172
32 0.001171
33 0.001168
34 0.001163
35 0.001158
36 0.001151
37 0.001144
38 0.001139
39 0.001134
40 0.001129
41 0.001127
42 0.001122
43 0.001119
44 0.001115
45 0.001112
46 0.001105
47 0.001099
48 0.001091
49 0.001084
50 0.001078
51 0.001072
52 0.001069
53 0.001062
54 0.001058
55 0.001052
56 0.001045
57 0.001041
58 0.001037
59 0.001034
60 0.001030
61 0.001025
62 0.001018
63 0.001013
64 0.001007
65 0.001001
66 0.000996
67 0.000990
68 0.000987
69 0.000985
70 0.000984
71 0.000976
72 0.000971
73 0.000964
74 0.000958
75 0.000955
76 0.000949
77 0.000948
78 0.000946
79 0.000945
80 0.000943
81 0.000937
82 0.000932
83 0.000929
84 0.000927
85 0.000927
86 0.000925
87 0.000924
88 0.000925
89 0.000929
90 0.000931
91 0.000932
92 0.000929
93 0.000925
94 0.000922
95 0.000921
96 0.000916
97 0.000911
98 0.000909
99 0.000908
100 0.000906
101 0.000907
102 0.000909
103 0.000910
104 0.000911
105 0.000911
106 0.000909
107 0.000904
108 0.000896
109 0.000891
110 0.000885
111 0.000879
112 0.000876
113 0.000873
114 0.000868
115 0.000865
116 0.000861
117 0.000860
118 0.000858
119 0.000855
120 0.000852
121 0.000848
122 0.000848
123 0.000845
124 0.000842
125 0.000842
126 0.000838
127 0.000836
128 0.000834
129 0.000837
130 0.000835
131 0.000832
132 0.000831
133 0.000829
134 0.000828
135 0.000829
136 0.000833
137 0.000835
138 0.000840
139 0.000843
140 0.000845
141 0.000847
142 0.000844
143 0.000843
144 0.000842
145 0.000840
146 0.000838
147 0.000835
148 0.000835
149 0.000834
150 0.000831
151 0.000829
152 0.000826
153 0.000825
154 0.000821
155 0.000816
156 0.000811
157 0.000806
158 0.000804
159 0.000800
160 0.000796
161 0.000796
162 0.000795
163 0.000791
164 0.000788
165 0.000785
166 0.000782
167 0.000780
168 0.000776
169 0.000772
170 0.000770
171 0.000764
172 0.000759
173 0.000755
174 0.000749
175 0.000745
176 0.000736
177 0.000730
178 0.000726
179 0.000721
180 0.000716
181 0.000715
182 0.000714
183 0.000714
184 0.000719
185 0.000717
186 0.000710
187 0.000707
188 0.000703
189 0.000701
190 0.000703
191 0.000704
192 0.000701
193 0.000701
194 0.000698
195 0.000696
196 0.000691
197 0.000685
198 0.000679
199 0.000678
200 0.000678
201 0.000677
202 0.000676
203 0.000674
204 0.000675
205 0.000675
206 0.000674
207 0.000671
208 0.000667
209 0.000662
210 0.000658
211 0.000652
212 0.000644
213 0.000639
214 0.000633
215 0.000626
216 0.000626
217 0.000623
218 0.000617
219 0.000611
220 0.000605
221 0.000597
222 0.000587
223 0.000576
224 0.000568
225 0.000565
226 0.000560
227 0.000557
228 0.000556
229 0.000555
230 0.000553
231 0.000554
232 0.000555
233 0.000555
234 0.000557
235 0.000559
236 0.000559
237 0.000554
238 0.000550
239 0.000549
240 0.000548
241 0.000544
242 0.000542
243 0.000539
244 0.000538
245 0.000537
246 0.000531
247 0.000531
248 0.000531
249 0.000529
250 0.000529
251 0.000526
252 0.000520
253 0.000514
254 0.000509
255 0.000510
256 0.000509
257 0.000506
258 0.000504
259 0.000506
260 0.000508
261 0.000510
262 0.000509
263 0.000510
264 0.000509
265 0.000506
266 0.000502
267 0.000500
268 0.000500
269 0.000500
270 0.000505
271 0.000512
272 0.000518
273 0.000523
274 0.000526
275 0.000529
276 0.000533
277 0.000537
278 0.000539
279 0.000545
280 0.000550
281 0.000549
282 0.000549
283 0.000547
284 0.000544
285 0.000541
286 0.000539
287 0.000541
288 0.000542
289 0.000543
290 0.000544
291 0.000546
292 0.000550
293 0.000551
294 0.000555
295 0.000557
296 0.000560
297 0.000563
298 0.000562
299 0.000559
300 0.000558
301 0.000554
302 0.000552
303 0.000549
304 0.000545
305 0.000543
306 0.000541
307 0.000538
308 0.000536
309 0.000537
310 0.000535
311 0.000534
312 0.000533
313 0.000529
314 0.000525
315 0.000521
316 0.000516
317 0.000512
318 0.000509
319 0.000506
320 0.000504
321 0.000501
322 0.000495
323 0.000490
324 0.000488
325 0.000488
326 0.000487
327 0.000486
328 0.000485
329 0.000485
330 0.000483
331 0.000480
332 0.000478
333 0.000478
334 0.000475
335 0.000471
336 0.000464
337 0.000457
338 0.000447
339 0.000440
340 0.000437
341 0.000436
342 0.000433
343 0.000431
344 0.000429
345 0.000430
346 0.000433
347 0.000435
348 0.000438
349 0.000440
350 0.000440
351 0.000440
352 0.000440
353 0.000437
354 0.000434
355 0.000427
356 0.000422
357 0.000422
358 0.000417
359 0.000411
360 0.000407
361 0.000405
362 0.000405
363 0.000403
364 0.000403
365 0.000404
366 0.000403
367 0.000402
368 0.000403
369 0.000401
370 0.000396
371 0.000392
372 0.000391
373 0.000387
374 0.000387
375 0.000386
376 0.000382
377 0.000383
378 0.000384
379 0.000385
380 0.000388
381 0.000392
382 0.000394
383 0.000397
384 0.000402
385 0.000404
386 0.000406
387 0.000409
388 0.000412
389 0.000413
390 0.000411
391 0.000409
392 0.000406
393 0.000403
394 0.000401
395 0.000400
396 0.000399
397 0.000399
398 0.000400
399 0.000405
400 0.000407
401 0.000405
402 0.000404
403 0.000402
404 0.000398
405 0.000394
406 0.000392
407 0.000392
408 0.000389
409 0.000391
410 0.000395
411 0.000400
412 0.000406
413 0.000410
414 0.000410
415 0.000412
416 0.000413
417 0.000412
418 0.000411
419 0.000409
420 0.000408
421 0.000406
422 0.000403
423 0.000400
424 0.000395
425 0.000391
426 0.000387
427 0.000383
428 0.000378
429 0.000372
430 0.000365
431 0.000360
432 0.000357
433 0.000354
434 0.000351
435 0.000346
436 0.000343
437 0.000341
438 0.000338
439 0.000332
440 0.000330
441 0.000330
442 0.000329
443 0.000328
444 0.000329
445 0.000329
446 0.000329
447 0.000329
448 0.000329
449 0.000329
450 0.000329
451 0.000327
452 0.000331
453 0.000332
454 0.000331
455 0.000332
456 0.000334
457 0.000338
458 0.000337
459 0.000335
460 0.000336
461 0.000335
462 0.000333
463 0.000333
464 0.000338
465 0.000341
466 0.000344
467 0.000347
468 0.000347
469 0.000348
470 0.000351
471 0.000353
472 0.000358
473 0.000363
474 0.000362
475 0.000360
476 0.000358
477 0.000358
478 0.000357
479 0.000357
480 0.000357
481 0.000358
482 0.000358
483 0.000355
484 0.000355
485 0.000351
486 0.000350
487 0.000352
488 0.000353
489 0.000354
490 0.000357
491 0.000357
492 0.000357
493 0.000356
494 0.000354
495 0.000352
496 0.000350
497 0.000347
498 0.000342
499 0.000337
500 0.000335
501 0.000331
502 0.000330
503 0.000330
504 0.000330
505 0.000332
506 0.000336
507 0.000338
508 0.000338
509 0.000338
510 0.000340
511 0.000345
512 0.000351
513 0.000355
514 0.000357
515 0.000359
516 0.000362
517 0.000361
518 0.000362
519 0.000364
520 0.000362
521 0.000360
522 0.000357
523 0.000354
524 0.000352
525 0.000350
526 0.000346
527 0.000343
528 0.000338
529 0.000333
530 0.000328
531 0.000325
532 0.000326
533 0.000325
534 0.000322
535 0.000321
536 0.000321
537 0.000319
538 0.000318
539 0.000317
540 0.000316
541 0.000317
542 0.000319
543 0.000314
544 0.000309
545 0.000305
546 0.000303
547 0.000304
548 0.000303
549 0.000303
550 0.000304
551 0.000306
552 0.000311
553 0.000315
554 0.000318
555 0.000318
556 0.000317
557 0.000315
558 0.000311
559 0.000310
560 0.000309
561 0.000311
562 0.000312
563 0.000314
564 0.000314
565 0.000315
566 0.000315
567 0.000314
568 0.000312
569 0.000312
570 0.000309
571 0.000307
572 0.000304
573 0.000302
574 0.000300
575 0.000301
576 0.000299
577 0.000299
578 0.000297
579 0.000293
580 0.000290
581 0.000288
582 0.000289
583 0.000291
584 0.000291
585 0.000293
586 0.000293
587 0.000289
588 0.000283
589 0.000279
590 0.000277
591 0.000274
592 0.000270
593 0.000269
594 0.000270
595 0.000268
596 0.000269
597 0.000267
598 0.000264
599 0.000260
600 0.000254
601 0.000251
602 0.000252
603 0.000250
604 0.000249
605 0.000248
606 0.000250
607 0.000248
608 0.000246
609 0.000244
610 0.000242
611 0.000242
612 0.000244
613 0.000247
614 0.000247
615 0.000249
616 0.000253
617 0.000255
618 0.000256
619 0.000257
620 0.000258
621 0.000259
622 0.000262
623 0.000265
624 0.000268
625 0.000272
626 0.000274
627 0.000277
628 0.000279
629 0.000281
630 0.000281
631 0.000281
632 0.000279
633 0.000275
634 0.000270
635 0.000264
636 0.000260
637 0.000256
638 0.000253
639 0.000249
640 0.000245
641 0.000244
642 0.000241
643 0.000237
644 0.000237
645 0.000238
646 0.000237
647 0.000237
648 0.000237
649 0.000235
650 0.000230
651 0.000226
652 0.000223
653 0.000218
654 0.000217
655 0.000215
656 0.000215
657 0.000216
658 0.000217
659 0.000217
660 0.000219
661 0.000219
662 0.000221
663 0.000223
664 0.000223
665 0.000220
666 0.000219
667 0.000217
668 0.000216
669 0.000214
670 0.000212
671 0.000210
672 0.000209
673 0.000207
674 0.000206
675 0.000202
676 0.000201
677 0.000200
678 0.000199
679 0.000197
680 0.000196
681 0.000198
682 0.000201
683 0.000204
684 0.000203
685 0.000203
686 0.000204
687 0.000202
688 0.000201
689 0.000200
690 0.000199
691 0.000198
692 0.000199
693 0.000200
694 0.000198
695 0.000197
696 0.000195
697 0.000195
698 0.000195
699 0.000193
700 0.000193
701 0.000191
702 0.000189
703 0.000187
704 0.000184
705 0.000183
706 0.000181
707 0.000181
708 0.000182
709 0.000182
710 0.000179
711 0.000176
712 0.000175
713 0.000172
714 0.000170
715 0.000170
716 0.000170
717 0.000170
718 0.000166
719 0.000163
720 0.000159
721 0.000157
722 0.000153
723 0.000150
724 0.000147
725 0.000146
726 0.000144
727 0.000141
728 0.000138
729 0.000134
730 0.000130
731 0.000128
732 0.000126
733 0.000123
734 0.000118
735 0.000113
736 0.000107
737 0.000101
738 0.000096
739 0.000091
740 0.000086
741 0.000083
742 0.000081
743 0.000080
744 0.000081
745 0.000081
746 0.000082
747 0.000084
748 0.000084
749 0.000084
750 0.000082
751 0.000081
752 0.000081
753 0.000082
754 0.000082
755 0.000082
756 0.000081
757 0.000079
758 0.000077
759 0.000077
760 0.000078
761 0.000080
762 0.000081
763 0.000080
764 0.000080
765 0.000078
766 0.000079
767 0.000082
768 0.000084
769 0.000087
770 0.000088
771 0.000089
772 0.000087
773 0.000087
774 0.000086
775 0.000086
776 0.000086
777 0.000086
778 0.000086
779 0.000084
780 0.000082
781 0.000083
782 0.000083
783 0.000083
784 0.000084
785 0.000084
786 0.000086
787 0.000088
788 0.000089
789 0.000090
790 0.000091
791 0.000091
792 0.000092
793 0.000091
794 0.000090
795 0.000089
796 0.000089
797 0.000091
798 0.000093
799 0.000096
800 0.000100
801 0.000103
802 0.000107
803 0.000110
804 0.000110
805 0.000110
806 0.000110
807 0.000108
808 0.000105
809 0.000101
