# i correlation
1 0.001592
2 0.001553
3 0.001518
4 0.001491
5 0.001466
6 0.001444
7 0.001421
8 0.001401
9 0.001379
10 0.001360
11 0.001341
12 0.001326
13 0.001313
14 0.001300
15 0.001284
16 0.001269
17 0.001256
18 0.001238
19 0.001220
20 0.001203
21 0.001188
22 0.001177
23 0.001169
24 0.001158
25 0.001148
26 0.001145
27 0.001143
28 0.001131
29 0.001123
30 0.001113
31 0.001109
32 0.001103
33 0.001098
34 0.001092
35 0.001087
36 0.001081
37 0.001078
38 0.001074
39 0.001074
40 0.001072
41 0.001071
42 0.001071
43 0.001070
44 0.001068
45 0.001065
46 0.001060
47 0.001057
48 0.001055
49 0.001052
50 0.001053
51 0.001052
52 0.001048
53 0.001043
54 0.001035
55 0.001029
56 0.001021
57 0.001012
58 0.001007
59 0.000999
60 0.000989
61 0.000980
62 0.000970
63 0.000960
64 0.000950
65 0.000944
66 0.000938
67 0.000929
68 0.000920
69 0.000913
70 0.000904
71 0.000898
72 0.000891
73 0.000886
74 0.000879
75 0.000873
76 0.000868
77 0.000861
78 0.000855
79 0.000853
80 0.000849
81 0.000848
82 0.000843
83 0.000837
84 0.000831
85 0.000825
86 0.000820
87 0.000818
88 0.000816
89 0.000817
90 0.000814
91 0.000812
92 0.000814
93 0.000812
94 0.000808
95 0.000809
96 0.000809
97 0.000812
98 0.000811
99 0.000807
100 0.000801
101 0.000797
102 0.000794
103 0.000797
104 0.000797
105 0.000796
106 0.000797
107 0.000796
108 0.000793
109 0.000791
110 0.000790
111 0.000791
112 0.000793
113 0.000792
114 0.000793
115 0.000797
116 0.000801
117 0.000800
118 0.000801
119 0.000801
120 0.000803
121 0.000800
122 0.000797
123 0.000793
124 0.000791
125 0.000786
126 0.000782
127 0.000775
128 0.000771
129 0.000769
130 0.000767
131 0.000768
132 0.000769
133 0.000768
134 0.000764
135 0.000762
136 0.000758
137 0.000752
138 0.000745
139 0.000738
140 0.000728
141 0.000718
142 0.000713
143 0.000711
144 0.000704
145 0.000703
146 0.000703
147 0.000705
148 0.000707
149 0.000710
150 0.000711
151 0.000711
152 0.000705
153 0.000700
154 0.000696
155 0.000695
156 0.000692
157 0.000689
158 0.000687
159 0.000685
160 0.000680
161 0.000679
162 0.000685
163 0.000693
164 0.000696
165 0.000699
166 0.000700
167 0.000697
168 0.000698
169 0.000700
170 0.000705
171 0.000706
172 0.000706
173 0.000705
174 0.000708
175 0.000710
176 0.000711
177 0.000708
178 0.000704
179 0.000698
180 0.000695
181 0.000687
182 0.000681
183 0.000674
184 0.000671
185 0.000667
186 0.000662
187 0.000655
188 0.000651
189 0.000647
190 0.000644
191 0.000637
192 0.000629
193 0.000620
194 0.000611
195 0.000599
196 0.000594
197 0.000589
198 0.000589
199 0.000583
200 0.000577
201 0.000577
202 0.000576
203 0.000572
204 0.000566
205 0.000561
206 0.000556
207 0.000553
208 0.000549
209 0.000545
210 0.000543
211 0.000544
212 0.000546
213 0.000549
214 0.000550
215 0.000554
216 0.000559
217 0.000565
218 0.000570
219 0.000575
220 0.000579
221 0.000583
222 0.000583
223 0.000581
224 0.000583
225 0.000587
226 0.000590
227 0.000594
228 0.000599
229 0.000595
230 0.000594
231 0.000594
232 0.000596
233 0.000594
234 0.000594
235 0.000593
236 0.000590
237 0.000585
238 0.000585
239 0.000581
240 0.000579
241 0.000576
242 0.000572
243 0.000569
244 0.000564
245 0.000558
246 0.000554
247 0.000549
248 0.000542
249 0.000532
250 0.000521
251 0.000515
252 0.000508
253 0.000502
254 0.000495
255 0.000489
256 0.000482
257 0.000477
258 0.000474
259 0.000471
260 0.000466
261 0.000466
262 0.000466
263 0.000467
264 0.000470
265 0.000475
266 0.000480
267 0.000489
268 0.000495
269 0.000502
270 0.000507
271 0.000510
272 0.000513
273 0.000514
274 0.000516
275 0.000517
276 0.000516
277 0.000516
278 0.000515
279 0.000513
280 0.000513
281 0.000512
282 0.000513
283 0.000512
284 0.000512
285 0.000511
286 0.000512
287 0.000515
288 0.000517
289 0.000514
290 0.000513
291 0.000510
292 0.000508
293 0.000510
294 0.000512
295 0.000512
296 0.000511
297 0.000511
298 0.000508
299 0.000507
300 0.000507
301 0.000506
302 0.000503
303 0.000497
304 0.000495
305 0.000492
306 0.000489
307 0.000486
308 0.000485
309 0.000485
310 0.000483
311 0.000480
312 0.000477
313 0.000472
314 0.000468
315 0.000459
316 0.000453
317 0.000452
318 0.000450
319 0.000449
320 0.000448
321 0.000448
322 0.000449
323 0.000446
324 0.000445
325 0.000442
326 0.000439
327 0.000440
328 0.000437
329 0.000433
330 0.000425
331 0.000421
332 0.000415
333 0.000412
334 0.000412
335 0.000416
336 0.000418
337 0.000420
338 0.000420
339 0.000422
340 0.000423
341 0.000423
342 0.000418
343 0.000415
344 0.000412
345 0.000411
346 0.000408
347 0.000404
348 0.000402
349 0.000402
350 0.000403
351 0.000401
352 0.000400
353 0.000400
354 0.000400
355 0.000397
356 0.000393
357 0.000388
358 0.000384
359 0.000380
360 0.000379
361 0.000378
362 0.000382
363 0.000384
364 0.000385
365 0.000383
366 0.000380
367 0.000380
368 0.000379
369 0.000377
370 0.000375
371 0.000372
372 0.000367
373 0.000362
374 0.000356
375 0.000350
376 0.000346
377 0.000339
378 0.000333
379 0.000326
380 0.000320
381 0.000315
382 0.000310
383 0.000305
384 0.000299
385 0.000293
386 0.000288
387 0.000285
388 0.000283
389 0.000286
390 0.000292
391 0.000301
392 0.000306
393 0.000313
394 0.000317
395 0.000321
396 0.000323
397 0.000325
398 0.000325
399 0.000321
400 0.000321
401 0.000323
402 0.000324
403 0.000325
404 0.000327
405 0.000328
406 0.000330
407 0.000328
408 0.000333
409 0.000335
410 0.000339
411 0.000340
412 0.000338
413 0.000336
414 0.000336
415 0.000335
416 0.000333
417 0.000335
418 0.000339
419 0.000341
420 0.000340
421 0.000337
422 0.000332
423 0.000328
424 0.000325
425 0.000322
426 0.000322
427 0.000319
428 0.000314
429 0.000308
430 0.000303
431 0.000296
432 0.000290
433 0.000283
434 0.000277
435 0.000272
436 0.000264
437 0.000258
438 0.000252
439 0.000247
440 0.000241
441 0.000240
442 0.000240
443 0.000244
444 0.000249
445 0.000254
446 0.000254
447 0.000255
448 0.000255
449 0.000256
450 0.000256
451 0.000259
452 0.000262
453 0.000267
454 0.000266
455 0.000269
456 0.000274
457 0.000280
458 0.000284
459 0.000290
460 0.000297
461 0.000300
462 0.000304
463 0.000308
464 0.000309
465 0.000308
466 0.000308
467 0.000309
468 0.000311
469 0.000313
470 0.000317
471 0.000318
472 0.000319
473 0.000318
474 0.000319
475 0.000317
476 0.000314
477 0.000310
478 0.000309
479 0.000308
480 0.000305
481 0.000303
482 0.000299
483 0.000293
484 0.000293
485 0.000293
486 0.000293
487 0.000291
488 0.000288
489 0.000284
490 0.000281
491 0.000277
492 0.000275
493 0.000273
494 0.000271
495 0.000268
496 0.000268
497 0.000270
498 0.000273
499 0.000274
500 0.000275
501 0.000277
502 0.000280
503 0.000281
504 0.000281
505 0.000284
506 0.000287
507 0.000289
508 0.000290
509 0.000292
510 0.000293
511 0.000296
512 0.000298
513 0.000299
514 0.000296
515 0.000297
516 0.000300
517 0.000299
518 0.000297
519 0.000295
520 0.000295
521 0.000296
522 0.000293
523 0.000289
524 0.000288
525 0.000289
526 0.000289
527 0.000288
528 0.000288
529 0.000289
530 0.000289
531 0.000283
532 0.000278
533 0.000272
534 0.000268
535 0.000262
536 0.000257
537 0.000255
538 0.000256
539 0.000259
540 0.000260
541 0.000259
542 0.000262
543 0.000263
544 0.000265
545 0.000264
546 0.000262
547 0.000260
548 0.000257
549 0.000252
550 0.000249
551 0.000245
552 0.000242
553 0.000239
554 0.000235
555 0.000231
556 0.000229
557 0.000226
558 0.000222
559 0.000222
560 0.000224
561 0.000228
562 0.000226
563 0.000226
564 0.000223
565 0.000221
566 0.000222
567 0.000222
568 0.000222
569 0.000224
570 0.000225
571 0.000227
572 0.000229
573 0.000232
574 0.000234
575 0.000233
576 0.000236
577 0.000240
578 0.000242
579 0.000242
580 0.000240
581 0.000241
582 0.000242
583 0.000244
584 0.000245
585 0.000242
586 0.000238
587 0.000234
588 0.000231
589 0.000233
590 0.000235
591 0.000235
592 0.000238
593 0.000240
594 0.000243
595 0.000244
596 0.000245
597 0.000245
598 0.000242
599 0.000239
600 0.000236
601 0.000233
602 0.000230
603 0.000227
604 0.000225
605 0.000220
606 0.000216
607 0.000213
608 0.000212
609 0.000212
610 0.000214
611 0.000215
612 0.000214
613 0.000212
614 0.000209
615 0.000207
616 0.000206
617 0.000206
618 0.000207
619 0.000209
620 0.000208
621 0.000211
622 0.000212
623 0.000215
624 0.000214
625 0.000213
626 0.000210
627 0.000211
628 0.000213
629 0.000217
630 0.000217
631 0.000222
632 0.000226
633 0.000231
634 0.000237
635 0.000242
636 0.000249
637 0.000256
638 0.000259
639 0.000262
640 0.000264
641 0.000266
642 0.000269
643 0.000271
644 0.000271
645 0.000273
646 0.000272
647 0.000269
648 0.000267
649 0.000267
650 0.000265
651 0.000261
652 0.000256
653 0.000247
654 0.000238
655 0.000231
656 0.000226
657 0.000221
658 0.000219
659 0.000215
660 0.000210
661 0.000206
662 0.000203
663 0.000199
664 0.000197
665 0.000192
666 0.000189
667 0.000184
668 0.000178
669 0.000172
670 0.000168
671 0.000165
672 0.000162
673 0.000157
674 0.000152
675 0.000151
676 0.000152
677 0.000152
678 0.000152
679 0.000154
680 0.000155
681 0.000156
682 0.000156
683 0.000153
684 0.000151
685 0.000150
686 0.000149
687 0.000149
688 0.000150
689 0.000152
690 0.000155
691 0.000157
692 0.000159
693 0.000163
694 0.000167
695 0.000171
696 0.000176
697 0.000176
698 0.000178
699 0.000180
700 0.000181
701 0.000181
702 0.000184
703 0.000185
704 0.000184
705 0.000182
706 0.000180
707 0.000179
708 0.000180
709 0.000181
710 0.000180
711 0.000176
712 0.000172
713 0.000167
714 0.000166
715 0.000164
716 0.000164
717 0.000160
718 0.000156
719 0.000151
720 0.000146
721 0.000139
722 0.000135
723 0.000132
724 0.000129
725 0.000126
726 0.000124
727 0.000124
728 0.000125
729 0.000125
730 0.000125
731 0.000124
732 0.000127
733 0.000127
734 0.000124
735 0.000122
736 0.000117
737 0.000117
738 0.000115
739 0.000114
740 0.000115
741 0.000113
742 0.000109
743 0.000107
744 0.000105
745 0.000105
746 0.000105
747 0.000106
748 0.000107
749 0.000106
750 0.000103
751 0.000101
752 0.000099
753 0.000097
754 0.000098
755 0.000102
756 0.000104
757 0.000106
758 0.000105
759 0.000107
760 0.000107
761 0.000108
762 0.000110
763 0.000110
764 0.000110
765 0.000110
766 0.000110
767 0.000111
768 0.000112
769 0.000113
770 0.000113
771 0.000114
772 0.000116
773 0.000117
774 0.000121
775 0.000121
776 0.000118
777 0.000115
778 0.000112
779 0.000109
780 0.000106
781 0.000102
782 0.000100
783 0.000097
784 0.000095
785 0.000090
786 0.000088
787 0.000086
788 0.000083
789 0.000078
790 0.000075
791 0.000073
792 0.000071
793 0.000069
794 0.000067
795 0.000066
796 0.000063
797 0.000062
798 0.000062
799 0.000062
800 0.000060
801 0.000057
802 0.000055
803 0.000054
804 0.000052
805 0.000051
806 0.000052
807 0.000052
808 0.000053
809 0.000054
