# i correlation
1 0.001794
2 0.001756
3 0.001723
4 0.001694
5 0.001666
6 0.001646
7 0.001631
8 0.001615
9 0.001599
10 0.001582
11 0.001566
12 0.001550
13 0.001540
14 0.001531
15 0.001525
16 0.001522
17 0.001520
18 0.001516
19 0.001508
20 0.001502
21 0.001496
22 0.001485
23 0.001476
24 0.001465
25 0.001453
26 0.001444
27 0.001435
28 0.001424
29 0.001413
30 0.001402
31 0.001396
32 0.001393
33 0.001395
34 0.001395
35 0.001389
36 0.001381
37 0.001370
38 0.001361
39 0.001351
40 0.001345
41 0.001339
42 0.001334
43 0.001330
44 0.001322
45 0.001312
46 0.001305
47 0.001301
48 0.001295
49 0.001294
50 0.001293
51 0.001295
52 0.001296
53 0.001295
54 0.001292
55 0.001286
56 0.001283
57 0.001278
58 0.001272
59 0.001266
60 0.001259
61 0.001249
62 0.001236
63 0.001223
64 0.001209
65 0.001200
66 0.001194
67 0.001189
68 0.001182
69 0.001178
70 0.001173
71 0.001167
72 0.001160
73 0.001156
74 0.001149
75 0.001142
76 0.001139
77 0.001134
78 0.001129
79 0.001127
80 0.001123
81 0.001120
82 0.001118
83 0.001117
84 0.001114
85 0.001113
86 0.001114
87 0.001114
88 0.001114
89 0.001114
90 0.001115
91 0.001116
92 0.001117
93 0.001115
94 0.001113
95 0.001109
96 0.001103
97 0.001098
98 0.001094
99 0.001089
100 0.001090
101 0.001086
102 0.001085
103 0.001085
104 0.001083
105 0.001080
106 0.001078
107 0.001077
108 0.001075
109 0.001073
110 0.001073
111 0.001073
112 0.001074
113 0.001073
114 0.001069
115 0.001062
116 0.001055
117 0.001049
118 0.001041
119 0.001037
120 0.001033
121 0.001030
122 0.001026
123 0.001021
124 0.001016
125 0.001011
126 0.001009
127 0.001006
128 0.001002
129 0.000998
130 0.000992
131 0.000987
132 0.000983
133 0.000982
134 0.000977
135 0.000972
136 0.000969
137 0.000965
138 0.000964
139 0.000963
140 0.000964
141 0.000964
142 0.000963
143 0.000959
144 0.000956
145 0.000956
146 0.000960
147 0.000960
148 0.000958
149 0.000957
150 0.000956
151 0.000954
152 0.000949
153 0.000947
154 0.000946
155 0.000943
156 0.000942
157 0.000936
158 0.000927
159 0.000920
160 0.000916
161 0.000911
162 0.000907
163 0.000902
164 0.000900
165 0.000900
166 0.000898
167 0.000895
168 0.000894
169 0.000891
170 0.000883
171 0.000878
172 0.000873
173 0.000872
174 0.000869
175 0.000866
176 0.000864
177 0.000862
178 0.000859
179 0.000859
180 0.000856
181 0.000852
182 0.000847
183 0.000842
184 0.000839
185 0.000836
186 0.000833
187 0.000829
188 0.000823
189 0.000821
190 0.000814
191 0.000804
192 0.000799
193 0.000795
194 0.000792
195 0.000790
196 0.000788
197 0.000786
198 0.000785
199 0.000785
200 0.000787
201 0.000786
202 0.000787
203 0.000785
204 0.000784
205 0.000782
206 0.000781
207 0.000783
208 0.000783
209 0.000784
210 0.000785
211 0.000783
212 0.000780
213 0.000774
214 0.000769
215 0.000764
216 0.000761
217 0.000758
218 0.000755
219 0.000755
220 0.000755
221 0.000752
222 0.000751
223 0.000747
224 0.000740
225 0.000734
226 0.000731
227 0.000730
228 0.000729
229 0.000729
230 0.000732
231 0.000732
232 0.000733
233 0.000734
234 0.000732
235 0.000729
236 0.000728
237 0.000727
238 0.000729
239 0.000728
240 0.000727
241 0.000728
242 0.000728
243 0.000728
244 0.000726
245 0.000723
246 0.000719
247 0.000714
248 0.000707
249 0.000701
250 0.000695
251 0.000690
252 0.000686
253 0.000684
254 0.000685
255 0.000686
256 0.000687
257 0.000691
258 0.000693
259 0.000692
260 0.000693
261 0.000695
262 0.000693
263 0.000696
264 0.000692
265 0.000692
266 0.000687
267 0.000687
268 0.000684
269 0.000683
270 0.000677
271 0.000675
272 0.000671
273 0.000665
274 0.000660
275 0.000658
276 0.000655
277 0.000652
278 0.000651
279 0.000648
280 0.000643
281 0.000636
282 0.000631
283 0.000625
284 0.000622
285 0.000620
286 0.000618
287 0.000616
288 0.000617
289 0.000618
290 0.000618
291 0.000620
292 0.000624
293 0.000626
294 0.000626
295 0.000623
296 0.000621
297 0.000620
298 0.000618
299 0.000614
300 0.000613
301 0.000616
302 0.000617
303 0.000614
304 0.000606
305 0.000599
306 0.000591
307 0.000585
308 0.000579
309 0.000573
310 0.000570
311 0.000567
312 0.000564
313 0.000559
314 0.000557
315 0.000555
316 0.000551
317 0.000545
318 0.000537
319 0.000532
320 0.000528
321 0.000527
322 0.000526
323 0.000524
324 0.000523
325 0.000521
326 0.000519
327 0.000517
328 0.000516
329 0.000517
330 0.000518
331 0.000518
332 0.000517
333 0.000517
334 0.000516
335 0.000518
336 0.000523
337 0.000524
338 0.000524
339 0.000520
340 0.000515
341 0.000514
342 0.000513
343 0.000515
344 0.000514
345 0.000517
346 0.000513
347 0.000509
348 0.000506
349 0.000501
350 0.000495
351 0.000488
352 0.000484
353 0.000481
354 0.000481
355 0.000478
356 0.000475
357 0.000471
358 0.000469
359 0.000465
360 0.000465
361 0.000464
362 0.000462
363 0.000463
364 0.000460
365 0.000459
366 0.000455
367 0.000452
368 0.000449
369 0.000446
370 0.000443
371 0.000445
372 0.000447
373 0.000446
374 0.000447
375 0.000447
376 0.000448
377 0.000450
378 0.000450
379 0.000452
380 0.000453
381 0.000454
382 0.000451
383 0.000451
384 0.000453
385 0.000451
386 0.000449
387 0.000446
388 0.000446
389 0.000446
390 0.000446
391 0.000445
392 0.000446
393 0.000449
394 0.000454
395 0.000459
396 0.000466
397 0.000472
398 0.000477
399 0.000480
400 0.000482
401 0.000483
402 0.000483
403 0.000485
404 0.000486
405 0.000486
406 0.000484
407 0.000481
408 0.000478
409 0.000474
410 0.000471
411 0.000470
412 0.000469
413 0.000467
414 0.000468
415 0.000470
416 0.000469
417 0.000468
418 0.000465
419 0.000463
420 0.000460
421 0.000456
422 0.000452
423 0.000449
424 0.000446
425 0.000442
426 0.000440
427 0.000440
428 0.000442
429 0.000440
430 0.000437
431 0.000435
432 0.000433
433 0.000434
434 0.000434
435 0.000433
436 0.000433
437 0.000434
438 0.000435
439 0.000436
440 0.000435
441 0.000435
442 0.000435
443 0.000434
444 0.000431
445 0.000428
446 0.000421
447 0.000415
448 0.000412
449 0.000411
450 0.000412
451 0.000410
452 0.000411
453 0.000412
454 0.000411
455 0.000412
456 0.000412
457 0.000415
458 0.000416
459 0.000414
460 0.000410
461 0.000407
462 0.000404
463 0.000404
464 0.000406
465 0.000408
466 0.000410
467 0.000410
468 0.000406
469 0.000403
470 0.000402
471 0.000405
472 0.000407
473 0.000406
474 0.000409
475 0.000412
476 0.000416
477 0.000419
478 0.000421
479 0.000423
480 0.000423
481 0.000421
482 0.000418
483 0.000416
484 0.000415
485 0.000415
486 0.000414
487 0.000417
488 0.000418
489 0.000418
490 0.000419
491 0.000420
492 0.000421
493 0.000424
494 0.000427
495 0.000428
496 0.000427
497 0.000427
498 0.000429
499 0.000431
500 0.000433
501 0.000436
502 0.000437
503 0.000438
504 0.000436
505 0.000435
506 0.000431
507 0.000431
508 0.000430
509 0.000428
510 0.000428
511 0.000430
512 0.000431
513 0.000433
514 0.000437
515 0.000439
516 0.000440
517 0.000442
518 0.000440
519 0.000437
520 0.000436
521 0.000436
522 0.000435
523 0.000436
524 0.000433
525 0.000430
526 0.000430
527 0.000426
528 0.000422
529 0.000416
530 0.000412
531 0.000408
532 0.000405
533 0.000403
534 0.000405
535 0.000404
536 0.000404
537 0.000404
538 0.000401
539 0.000395
540 0.000390
541 0.000385
542 0.000380
543 0.000376
544 0.000373
545 0.000368
546 0.000365
547 0.000360
548 0.000355
549 0.000350
550 0.000349
551 0.000348
552 0.000347
553 0.000346
554 0.000347
555 0.000349
556 0.000348
557 0.000349
558 0.000347
559 0.000342
560 0.000338
561 0.000336
562 0.000328
563 0.000324
564 0.000322
565 0.000319
566 0.000315
567 0.000312
568 0.000312
569 0.000310
570 0.000308
571 0.000306
572 0.000305
573 0.000305
574 0.000306
575 0.000307
576 0.000307
577 0.000308
578 0.000310
579 0.000312
580 0.000311
581 0.000308
582 0.000306
583 0.000304
584 0.000303
585 0.000300
586 0.000300
587 0.000299
588 0.000298
589 0.000298
590 0.000300
591 0.000302
592 0.000302
593 0.000306
594 0.000306
595 0.000307
596 0.000308
597 0.000306
598 0.000304
599 0.000303
600 0.000303
601 0.000301
602 0.000299
603 0.000298
604 0.000299
605 0.000300
606 0.000301
607 0.000303
608 0.000303
609 0.000302
610 0.000301
611 0.000300
612 0.000299
613 0.000298
614 0.000296
615 0.000295
616 0.000292
617 0.000290
618 0.000288
619 0.000285
620 0.000283
621 0.000282
622 0.000281
623 0.000279
624 0.000277
625 0.000277
626 0.000279
627 0.000281
628 0.000284
629 0.000286
630 0.000289
631 0.000293
632 0.000297
633 0.000299
634 0.000305
635 0.000308
636 0.000311
637 0.000316
638 0.000321
639 0.000324
640 0.000325
641 0.000325
642 0.000324
643 0.000321
644 0.000323
645 0.000325
646 0.000328
647 0.000329
648 0.000329
649 0.000331
650 0.000330
651 0.000327
652 0.000326
653 0.000324
654 0.000323
655 0.000324
656 0.000324
657 0.000322
658 0.000318
659 0.000316
660 0.000313
661 0.000310
662 0.000308
663 0.000307
664 0.000306
665 0.000304
666 0.000302
667 0.000300
668 0.000296
669 0.000294
670 0.000291
671 0.000288
672 0.000288
673 0.000289
674 0.000288
675 0.000285
676 0.000281
677 0.000276
678 0.000271
679 0.000267
680 0.000264
681 0.000263
682 0.000264
683 0.000265
684 0.000264
685 0.000261
686 0.000258
687 0.000256
688 0.000256
689 0.000255
690 0.000256
691 0.000256
692 0.000254
693 0.000250
694 0.000244
695 0.000238
696 0.000234
697 0.000232
698 0.000231
699 0.000230
700 0.000228
701 0.000225
702 0.000223
703 0.000222
704 0.000220
705 0.000219
706 0.000219
707 0.000219
708 0.000217
709 0.000215
710 0.000214
711 0.000210
712 0.000205
713 0.000199
714 0.000192
715 0.000186
716 0.000181
717 0.000177
718 0.000172
719 0.000167
720 0.000165
721 0.000163
722 0.000160
723 0.000159
724 0.000159
725 0.000159
726 0.000159
727 0.000158
728 0.000158
729 0.000156
730 0.000155
731 0.000153
732 0.000153
733 0.000153
734 0.000154
735 0.000156
736 0.000157
737 0.000157
738 0.000155
739 0.000154
740 0.000154
741 0.000156
742 0.000159
743 0.000164
744 0.000171
745 0.000177
746 0.000181
747 0.000183
748 0.000182
749 0.000181
750 0.000181
751 0.000181
752 0.000181
753 0.000181
754 0.000181
755 0.000179
756 0.000177
757 0.000179
758 0.000179
759 0.000179
760 0.000179
761 0.000178
762 0.000177
763 0.000174
764 0.000172
765 0.000171
766 0.000169
767 0.000165
768 0.000164
769 0.000162
770 0.000161
771 0.000157
772 0.000154
773 0.000153
774 0.000152
775 0.000151
776 0.000151
777 0.000152
778 0.000153
779 0.000155
780 0.000158
781 0.000161
782 0.000163
783 0.000163
784 0.000162
785 0.000159
786 0.000159
787 0.000159
788 0.000160
789 0.000160
790 0.000160
791 0.000163
792 0.000164
793 0.000165
794 0.000166
795 0.000170
796 0.000173
797 0.000174
798 0.000175
799 0.000177
800 0.000177
801 0.000180
802 0.000183
803 0.000183
804 0.000182
805 0.000180
806 0.000178
807 0.000175
808 0.000172
809 0.000170
