# i correlation
1 0.001315
2 0.001276
3 0.001245
4 0.001217
5 0.001193
6 0.001170
7 0.001146
8 0.001127
9 0.001113
10 0.001102
11 0.001094
12 0.001085
13 0.001076
14 0.001064
15 0.001054
16 0.001049
17 0.001041
18 0.001031
19 0.001018
20 0.001008
21 0.000998
22 0.000988
23 0.000977
24 0.000971
25 0.000963
26 0.000957
27 0.000950
28 0.000942
29 0.000938
30 0.000928
31 0.000919
32 0.000908
33 0.000901
34 0.000898
35 0.000895
36 0.000888
37 0.000884
38 0.000880
39 0.000876
40 0.000874
41 0.000870
42 0.000864
43 0.000857
44 0.000851
45 0.000844
46 0.000840
47 0.000834
48 0.000827
49 0.000821
50 0.000816
51 0.000815
52 0.000813
53 0.000811
54 0.000810
55 0.000807
56 0.000803
57 0.000801
58 0.000801
59 0.000801
60 0.000802
61 0.000800
62 0.000798
63 0.000796
64 0.000793
65 0.000791
66 0.000788
67 0.000782
68 0.000777
69 0.000771
70 0.000768
71 0.000765
72 0.000760
73 0.000757
74 0.000753
75 0.000753
76 0.000753
77 0.000750
78 0.000742
79 0.000735
80 0.000730
81 0.000724
82 0.000719
83 0.000710
84 0.000700
85 0.000694
86 0.000692
87 0.000689
88 0.000686
89 0.000683
90 0.000679
91 0.000676
92 0.000674
93 0.000675
94 0.000675
95 0.000676
96 0.000672
97 0.000670
98 0.000670
99 0.000665
100 0.000658
101 0.000655
102 0.000651
103 0.000649
104 0.000649
105 0.000648
106 0.000651
107 0.000655
108 0.000664
109 0.000673
110 0.000676
111 0.000681
112 0.000682
113 0.000679
114 0.000678
115 0.000678
116 0.000674
117 0.000669
118 0.000663
119 0.000658
120 0.000657
121 0.000658
122 0.000658
123 0.000655
124 0.000651
125 0.000648
126 0.000648
127 0.000648
128 0.000648
129 0.000648
130 0.000645
131 0.000644
132 0.000646
133 0.000648
134 0.000648
135 0.000645
136 0.000641
137 0.000637
138 0.000634
139 0.000631
140 0.000623
141 0.000614
142 0.000605
143 0.000601
144 0.000595
145 0.000586
146 0.000579
147 0.000575
148 0.000570
149 0.000570
150 0.000567
151 0.000565
152 0.000565
153 0.000568
154 0.000568
155 0.000569
156 0.000569
157 0.000566
158 0.000563
159 0.000564
160 0.000563
161 0.000562
162 0.000560
163 0.000558
164 0.000559
165 0.000560
166 0.000563
167 0.000563
168 0.000561
169 0.000561
170 0.000558
171 0.000553
172 0.000552
173 0.000550
174 0.000547
175 0.000545
176 0.000542
177 0.000540
178 0.000536
179 0.000535
180 0.000535
181 0.000537
182 0.000539
183 0.000540
184 0.000540
185 0.000538
186 0.000538
187 0.000541
188 0.000545
189 0.000545
190 0.000545
191 0.000544
192 0.000540
193 0.000536
194 0.000532
195 0.000525
196 0.000518
197 0.000514
198 0.000512
199 0.000508
200 0.000503
201 0.000500
202 0.000498
203 0.000500
204 0.000503
205 0.000507
206 0.000511
207 0.000512
208 0.000514
209 0.000519
210 0.000521
211 0.000518
212 0.000513
213 0.000507
214 0.000503
215 0.000503
216 0.000501
217 0.000498
218 0.000500
219 0.000506
220 0.000510
221 0.000511
222 0.000509
223 0.000509
224 0.000511
225 0.000513
226 0.000512
227 0.000512
228 0.000514
229 0.000515
230 0.000516
231 0.000521
232 0.000524
233 0.000524
234 0.000525
235 0.000526
236 0.000530
237 0.000532
238 0.000534
239 0.000534
240 0.000535
241 0.000536
242 0.000538
243 0.000539
244 0.000539
245 0.000541
246 0.000544
247 0.000546
248 0.000549
249 0.000550
250 0.000549
251 0.000547
252 0.000546
253 0.000544
254 0.000541
255 0.000539
256 0.000536
257 0.000531
258 0.000531
259 0.000531
260 0.000530
261 0.000529
262 0.000529
263 0.000526
264 0.000525
265 0.000526
266 0.000524
267 0.000520
268 0.000518
269 0.000516
270 0.000517
271 0.000519
272 0.000518
273 0.000515
274 0.000511
275 0.000507
276 0.000506
277 0.000505
278 0.000503
279 0.000501
280 0.000501
281 0.000501
282 0.000500
283 0.000496
284 0.000492
285 0.000489
286 0.000489
287 0.000488
288 0.000485
289 0.000480
290 0.000475
291 0.000469
292 0.000465
293 0.000459
294 0.000455
295 0.000453
296 0.000454
297 0.000454
298 0.000454
299 0.000454
300 0.000453
301 0.000452
302 0.000452
303 0.000451
304 0.000451
305 0.000451
306 0.000449
307 0.000444
308 0.000437
309 0.000431
310 0.000423
311 0.000414
312 0.000406
313 0.000402
314 0.000402
315 0.000403
316 0.000404
317 0.000405
318 0.000405
319 0.000406
320 0.000406
321 0.000404
322 0.000403
323 0.000406
324 0.000408
325 0.000410
326 0.000412
327 0.000417
328 0.000419
329 0.000417
330 0.000416
331 0.000417
332 0.000415
333 0.000413
334 0.000407
335 0.000401
336 0.000396
337 0.000391
338 0.000385
339 0.000377
340 0.000372
341 0.000370
342 0.000369
343 0.000370
344 0.000369
345 0.000369
346 0.000371
347 0.000374
348 0.000375
349 0.000374
350 0.000368
351 0.000361
352 0.000356
353 0.000350
354 0.000345
355 0.000338
356 0.000331
357 0.000330
358 0.000330
359 0.000332
360 0.000331
361 0.000327
362 0.000327
363 0.000328
364 0.000330
365 0.000327
366 0.000323
367 0.000320
368 0.000317
369 0.000315
370 0.000315
371 0.000315
372 0.000314
373 0.000312
374 0.000309
375 0.000308
376 0.000305
377 0.000304
378 0.000302
379 0.000297
380 0.000293
381 0.000289
382 0.000284
383 0.000282
384 0.000281
385 0.000281
386 0.000283
387 0.000284
388 0.000286
389 0.000289
390 0.000291
391 0.000294
392 0.000298
393 0.000302
394 0.000304
395 0.000305
396 0.000306
397 0.000306
398 0.000306
399 0.000305
400 0.000304
401 0.000306
402 0.000309
403 0.000310
404 0.000312
405 0.000312
406 0.000312
407 0.000313
408 0.000315
409 0.000314
410 0.000313
411 0.000313
412 0.000313
413 0.000315
414 0.000316
415 0.000316
416 0.000314
417 0.000311
418 0.000307
419 0.000306
420 0.000303
421 0.000301
422 0.000297
423 0.000296
424 0.000299
425 0.000305
426 0.000309
427 0.000310
428 0.000315
429 0.000318
430 0.000318
431 0.000313
432 0.000308
433 0.000302
434 0.000296
435 0.000292
436 0.000286
437 0.000281
438 0.000278
439 0.000277
440 0.000276
441 0.000276
442 0.000273
443 0.000269
444 0.000264
445 0.000262
446 0.000261
447 0.000257
448 0.000252
449 0.000247
450 0.000244
451 0.000241
452 0.000239
453 0.000240
454 0.000242
455 0.000244
456 0.000246
457 0.000247
458 0.000247
459 0.000249
460 0.000248
461 0.000244
462 0.000241
463 0.000239
464 0.000238
465 0.000236
466 0.000232
467 0.000230
468 0.000230
469 0.000230
470 0.000231
471 0.000231
472 0.000231
473 0.000228
474 0.000227
475 0.000224
476 0.000221
477 0.000216
478 0.000210
479 0.000207
480 0.000208
481 0.000210
482 0.000211
483 0.000211
484 0.000211
485 0.000211
486 0.000215
487 0.000217
488 0.000217
489 0.000218
490 0.000217
491 0.000212
492 0.000209
493 0.000207
494 0.000203
495 0.000198
496 0.000196
497 0.000197
498 0.000195
499 0.000197
500 0.000197
501 0.000199
502 0.000200
503 0.000202
504 0.000204
505 0.000209
506 0.000213
507 0.000214
508 0.000214
509 0.000213
510 0.000216
511 0.000218
512 0.000220
513 0.000223
514 0.000229
515 0.000236
516 0.000243
517 0.000248
518 0.000254
519 0.000257
520 0.000258
521 0.000258
522 0.000257
523 0.000257
524 0.000258
525 0.000257
526 0.000256
527 0.000255
528 0.000253
529 0.000251
530 0.000248
531 0.000243
532 0.000239
533 0.000236
534 0.000234
535 0.000235
536 0.000237
537 0.000237
538 0.000235
539 0.000233
540 0.000234
541 0.000235
542 0.000234
543 0.000233
544 0.000231
545 0.000229
546 0.000226
547 0.000222
548 0.000216
549 0.000209
550 0.000204
551 0.000200
552 0.000198
553 0.000196
554 0.000194
555 0.000192
556 0.000190
557 0.000189
558 0.000187
559 0.000186
560 0.000183
561 0.000182
562 0.000182
563 0.000181
564 0.000179
565 0.000177
566 0.000175
567 0.000174
568 0.000174
569 0.000173
570 0.000171
571 0.000165
572 0.000160
573 0.000157
574 0.000154
575 0.000154
576 0.000156
577 0.000158
578 0.000163
579 0.000171
580 0.000178
581 0.000183
582 0.000188
583 0.000191
584 0.000194
585 0.000196
586 0.000194
587 0.000191
588 0.000188
589 0.000186
590 0.000186
591 0.000186
592 0.000188
593 0.000185
594 0.000184
595 0.000186
596 0.000186
597 0.000185
598 0.000184
599 0.000181
600 0.000178
601 0.000175
602 0.000172
603 0.000168
604 0.000163
605 0.000157
606 0.000150
607 0.000145
608 0.000142
609 0.000140
610 0.000137
611 0.000135
612 0.000134
613 0.000133
614 0.000133
615 0.000131
616 0.000127
617 0.000124
618 0.000121
619 0.000120
620 0.000121
621 0.000121
622 0.000121
623 0.000120
624 0.000120
625 0.000120
626 0.000119
627 0.000117
628 0.000115
629 0.000115
630 0.000116
631 0.000116
632 0.000116
633 0.000118
634 0.000117
635 0.000115
636 0.000115
637 0.000114
638 0.000114
639 0.000113
640 0.000110
641 0.000107
642 0.000104
643 0.000101
644 0.000102
645 0.000101
646 0.000098
647 0.000096
648 0.000096
649 0.000098
650 0.000101
651 0.000103
652 0.000106
653 0.000108
654 0.000112
655 0.000114
656 0.000115
657 0.000116
658 0.000115
659 0.000113
660 0.000111
661 0.000110
662 0.000109
663 0.000105
664 0.000100
665 0.000096
666 0.000090
667 0.000083
668 0.000079
669 0.000073
670 0.000067
671 0.000062
672 0.000060
673 0.000059
674 0.000062
675 0.000062
676 0.000059
677 0.000056
678 0.000055
679 0.000053
680 0.000049
681 0.000042
682 0.000034
683 0.000026
684 0.000019
685 0.000014
686 0.000010
687 0.000009
688 0.000008
689 0.000006
690 0.000006
691 0.000007
692 0.000008
693 0.000010
694 0.000012
695 0.000014
696 0.000017
697 0.000018
698 0.000020
699 0.000023
700 0.000025
701 0.000029
702 0.000033
703 0.000036
704 0.000036
705 0.000037
706 0.000038
707 0.000037
708 0.000037
709 0.000038
710 0.000039
711 0.000042
712 0.000046
713 0.000049
714 0.000051
715 0.000052
716 0.000051
717 0.000050
718 0.000051
719 0.000050
720 0.000048
721 0.000047
722 0.000047
723 0.000047
724 0.000048
725 0.000050
726 0.000052
727 0.000053
728 0.000054
729 0.000057
730 0.000058
731 0.000060
732 0.000060
733 0.000059
734 0.000060
735 0.000060
736 0.000059
737 0.000059
738 0.000056
739 0.000054
740 0.000052
741 0.000050
742 0.000048
743 0.000047
744 0.000046
745 0.000047
746 0.000046
747 0.000047
748 0.000049
749 0.000050
750 0.000050
751 0.000050
752 0.000052
753 0.000054
754 0.000055
755 0.000056
756 0.000059
757 0.000060
758 0.000059
759 0.000058
760 0.000059
761 0.000062
762 0.000063
763 0.000064
764 0.000066
765 0.000067
766 0.000069
767 0.000068
768 0.000071
769 0.000072
770 0.000073
771 0.000074
772 0.000075
773 0.000076
774 0.000077
775 0.000075
776 0.000076
777 0.000076
778 0.000074
779 0.000072
780 0.000067
781 0.000063
782 0.000061
783 0.000058
784 0.000056
785 0.000057
786 0.000057
787 0.000059
788 0.000063
789 0.000068
790 0.000070
791 0.000074
792 0.000076
793 0.000075
794 0.000073
795 0.000071
796 0.000068
797 0.000066
798 0.000065
799 0.000063
800 0.000061
801 0.000061
802 0.000060
803 0.000061
804 0.000060
805 0.000060
806 0.000059
807 0.000059
808 0.000057
809 0.000054
