# i correlation
1 0.001577
2 0.001542
3 0.001511
4 0.001481
5 0.001453
6 0.001427
7 0.001406
8 0.001387
9 0.001378
10 0.001368
11 0.001362
12 0.001354
13 0.001348
14 0.001341
15 0.001333
16 0.001323
17 0.001311
18 0.001300
19 0.001292
20 0.001284
21 0.001278
22 0.001275
23 0.001270
24 0.001264
25 0.001259
26 0.001249
27 0.001240
28 0.001238
29 0.001233
30 0.001229
31 0.001226
32 0.001225
33 0.001217
34 0.001213
35 0.001209
36 0.001204
37 0.001199
38 0.001190
39 0.001182
40 0.001173
41 0.001165
42 0.001156
43 0.001150
44 0.001146
45 0.001141
46 0.001138
47 0.001132
48 0.001124
49 0.001113
50 0.001107
51 0.001103
52 0.001095
53 0.001087
54 0.001079
55 0.001070
56 0.001069
57 0.001067
58 0.001062
59 0.001060
60 0.001062
61 0.001064
62 0.001064
63 0.001065
64 0.001068
65 0.001068
66 0.001060
67 0.001056
68 0.001051
69 0.001045
70 0.001038
71 0.001029
72 0.001022
73 0.001015
74 0.001007
75 0.001000
76 0.000998
77 0.000993
78 0.000986
79 0.000981
80 0.000976
81 0.000972
82 0.000967
83 0.000960
84 0.000951
85 0.000943
86 0.000937
87 0.000931
88 0.000927
89 0.000921
90 0.000915
91 0.000911
92 0.000909
93 0.000905
94 0.000902
95 0.000900
96 0.000900
97 0.000903
98 0.000901
99 0.000902
100 0.000900
101 0.000896
102 0.000890
103 0.000886
104 0.000880
105 0.000876
106 0.000872
107 0.000866
108 0.000860
109 0.000855
110 0.000850
111 0.000841
112 0.000834
113 0.000829
114 0.000828
115 0.000825
116 0.000821
117 0.000821
118 0.000822
119 0.000827
120 0.000832
121 0.000838
122 0.000839
123 0.000839
124 0.000838
125 0.000835
126 0.000831
127 0.000828
128 0.000825
129 0.000821
130 0.000814
131 0.000810
132 0.000805
133 0.000802
134 0.000801
135 0.000800
136 0.000796
137 0.000793
138 0.000793
139 0.000790
140 0.000786
141 0.000780
142 0.000774
143 0.000771
144 0.000771
145 0.000773
146 0.000770
147 0.000766
148 0.000762
149 0.000763
150 0.000765
151 0.000761
152 0.000754
153 0.000749
154 0.000745
155 0.000738
156 0.000736
157 0.000735
158 0.000733
159 0.000733
160 0.000735
161 0.000734
162 0.000729
163 0.000726
164 0.000723
165 0.000723
166 0.000724
167 0.000724
168 0.000725
169 0.000726
170 0.000729
171 0.000728
172 0.000725
173 0.000721
174 0.000717
175 0.000710
176 0.000704
177 0.000699
178 0.000699
179 0.000698
180 0.000694
181 0.000690
182 0.000691
183 0.000690
184 0.000688
185 0.000687
186 0.000683
187 0.000680
188 0.000677
189 0.000676
190 0.000677
191 0.000675
192 0.000673
193 0.000668
194 0.000661
195 0.000657
196 0.000655
197 0.000653
198 0.000651
199 0.000646
200 0.000642
201 0.000640
202 0.000639
203 0.000640
204 0.000639
205 0.000636
206 0.000633
207 0.000632
208 0.000629
209 0.000624
210 0.000617
211 0.000611
212 0.000607
213 0.000605
214 0.000605
215 0.000607
216 0.000607
217 0.000609
218 0.000612
219 0.000617
220 0.000622
221 0.000628
222 0.000632
223 0.000634
224 0.000636
225 0.000638
226 0.000644
227 0.000645
228 0.000645
229 0.000643
230 0.000641
231 0.000638
232 0.000634
233 0.000631
234 0.000625
235 0.000625
236 0.000622
237 0.000617
238 0.000614
239 0.000610
240 0.000604
241 0.000601
242 0.000599
243 0.000599
244 0.000598
245 0.000595
246 0.000593
247 0.000595
248 0.000597
249 0.000603
250 0.000609
251 0.000614
252 0.000617
253 0.000618
254 0.000618
255 0.000618
256 0.000611
257 0.000608
258 0.000602
259 0.000600
260 0.000601
261 0.000600
262 0.000596
263 0.000595
264 0.000595
265 0.000597
266 0.000602
267 0.000604
268 0.000607
269 0.000606
270 0.000605
271 0.000601
272 0.000598
273 0.000594
274 0.000590
275 0.000586
276 0.000582
277 0.000578
278 0.000572
279 0.000568
280 0.000565
281 0.000563
282 0.000560
283 0.000560
284 0.000563
285 0.000568
286 0.000571
287 0.000576
288 0.000577
289 0.000581
290 0.000583
291 0.000586
292 0.000587
293 0.000585
294 0.000583
295 0.000580
296 0.000576
297 0.000572
298 0.000568
299 0.000566
300 0.000565
301 0.000563
302 0.000563
303 0.000560
304 0.000559
305 0.000560
306 0.000560
307 0.000561
308 0.000560
309 0.000558
310 0.000554
311 0.000549
312 0.000545
313 0.000537
314 0.000532
315 0.000525
316 0.000519
317 0.000515
318 0.000517
319 0.000520
320 0.000520
321 0.000522
322 0.000520
323 0.000518
324 0.000514
325 0.000510
326 0.000505
327 0.000506
328 0.000506
329 0.000506
330 0.000508
331 0.000510
332 0.000510
333 0.000509
334 0.000506
335 0.000502
336 0.000496
337 0.000490
338 0.000486
339 0.000479
340 0.000475
341 0.000476
342 0.000475
343 0.000477
344 0.000476
345 0.000475
346 0.000474
347 0.000472
348 0.000474
349 0.000474
350 0.000475
351 0.000477
352 0.000480
353 0.000483
354 0.000484
355 0.000483
356 0.000483
357 0.000482
358 0.000479
359 0.000474
360 0.000464
361 0.000455
362 0.000448
363 0.000438
364 0.000430
365 0.000426
366 0.000425
367 0.000424
368 0.000421
369 0.000420
370 0.000419
371 0.000419
372 0.000421
373 0.000423
374 0.000424
375 0.000426
376 0.000427
377 0.000424
378 0.000422
379 0.000418
380 0.000415
381 0.000411
382 0.000409
383 0.000407
384 0.000407
385 0.000408
386 0.000408
387 0.000408
388 0.000409
389 0.000414
390 0.000414
391 0.000416
392 0.000419
393 0.000420
394 0.000421
395 0.000424
396 0.000424
397 0.000425
398 0.000423
399 0.000425
400 0.000426
401 0.000423
402 0.000417
403 0.000410
404 0.000408
405 0.000407
406 0.000406
407 0.000403
408 0.000402
409 0.000403
410 0.000405
411 0.000408
412 0.000408
413 0.000410
414 0.000410
415 0.000413
416 0.000414
417 0.000414
418 0.000415
419 0.000417
420 0.000419
421 0.000423
422 0.000426
423 0.000426
424 0.000425
425 0.000424
426 0.000424
427 0.000423
428 0.000420
429 0.000417
430 0.000415
431 0.000411
432 0.000409
433 0.000408
434 0.000407
435 0.000402
436 0.000399
437 0.000398
438 0.000394
439 0.000391
440 0.000390
441 0.000388
442 0.000386
443 0.000383
444 0.000379
445 0.000380
446 0.000378
447 0.000377
448 0.000377
449 0.000376
450 0.000376
451 0.000376
452 0.000379
453 0.000381
454 0.000382
455 0.000380
456 0.000381
457 0.000379
458 0.000377
459 0.000379
460 0.000375
461 0.000370
462 0.000369
463 0.000368
464 0.000366
465 0.000363
466 0.000361
467 0.000359
468 0.000357
469 0.000354
470 0.000350
471 0.000348
472 0.000349
473 0.000352
474 0.000351
475 0.000353
476 0.000356
477 0.000360
478 0.000363
479 0.000365
480 0.000367
481 0.000368
482 0.000369
483 0.000365
484 0.000363
485 0.000360
486 0.000357
487 0.000354
488 0.000353
489 0.000353
490 0.000356
491 0.000361
492 0.000364
493 0.000366
494 0.000366
495 0.000364
496 0.000364
497 0.000364
498 0.000365
499 0.000365
500 0.000362
501 0.000360
502 0.000359
503 0.000358
504 0.000357
505 0.000355
506 0.000352
507 0.000349
508 0.000343
509 0.000341
510 0.000344
511 0.000343
512 0.000342
513 0.000344
514 0.000346
515 0.000346
516 0.000348
517 0.000348
518 0.000349
519 0.000352
520 0.000354
521 0.000356
522 0.000358
523 0.000359
524 0.000360
525 0.000358
526 0.000356
527 0.000355
528 0.000352
529 0.000349
530 0.000343
531 0.000334
532 0.000327
533 0.000322
534 0.000316
535 0.000314
536 0.000314
537 0.000313
538 0.000312
539 0.000309
540 0.000308
541 0.000305
542 0.000304
543 0.000301
544 0.000300
545 0.000300
546 0.000300
547 0.000298
548 0.000295
549 0.000294
550 0.000291
551 0.000288
552 0.000286
553 0.000284
554 0.000285
555 0.000289
556 0.000291
557 0.000293
558 0.000296
559 0.000300
560 0.000305
561 0.000309
562 0.000310
563 0.000309
564 0.000309
565 0.000307
566 0.000301
567 0.000299
568 0.000293
569 0.000290
570 0.000288
571 0.000287
572 0.000288
573 0.000289
574 0.000293
575 0.000296
576 0.000300
577 0.000299
578 0.000301
579 0.000302
580 0.000302
581 0.000301
582 0.000299
583 0.000299
584 0.000298
585 0.000294
586 0.000292
587 0.000292
588 0.000289
589 0.000288
590 0.000286
591 0.000287
592 0.000288
593 0.000288
594 0.000288
595 0.000287
596 0.000286
597 0.000286
598 0.000289
599 0.000291
600 0.000292
601 0.000293
602 0.000294
603 0.000292
604 0.000292
605 0.000292
606 0.000294
607 0.000293
608 0.000291
609 0.000290
610 0.000289
611 0.000290
612 0.000290
613 0.000291
614 0.000287
615 0.000282
616 0.000277
617 0.000272
618 0.000268
619 0.000266
620 0.000264
621 0.000260
622 0.000259
623 0.000255
624 0.000253
625 0.000252
626 0.000250
627 0.000248
628 0.000245
629 0.000239
630 0.000233
631 0.000227
632 0.000223
633 0.000216
634 0.000213
635 0.000211
636 0.000210
637 0.000210
638 0.000208
639 0.000206
640 0.000205
641 0.000207
642 0.000211
643 0.000216
644 0.000217
645 0.000218
646 0.000219
647 0.000219
648 0.000222
649 0.000224
650 0.000226
651 0.000226
652 0.000228
653 0.000227
654 0.000224
655 0.000222
656 0.000220
657 0.000219
658 0.000216
659 0.000217
660 0.000219
661 0.000220
662 0.000219
663 0.000221
664 0.000222
665 0.000220
666 0.000219
667 0.000217
668 0.000212
669 0.000210
670 0.000207
671 0.000206
672 0.000206
673 0.000207
674 0.000208
675 0.000207
676 0.000208
677 0.000209
678 0.000209
679 0.000206
680 0.000204
681 0.000204
682 0.000202
683 0.000202
684 0.000202
685 0.000199
686 0.000198
687 0.000198
688 0.000198
689 0.000198
690 0.000194
691 0.000188
692 0.000185
693 0.000182
694 0.000179
695 0.000177
696 0.000176
697 0.000175
698 0.000175
699 0.000176
700 0.000178
701 0.000178
702 0.000178
703 0.000177
704 0.000175
705 0.000171
706 0.000172
707 0.000170
708 0.000170
709 0.000169
710 0.000169
711 0.000170
712 0.000170
713 0.000173
714 0.000174
715 0.000175
716 0.000173
717 0.000173
718 0.000173
719 0.000174
720 0.000174
721 0.000173
722 0.000171
723 0.000168
724 0.000167
725 0.000166
726 0.000166
727 0.000167
728 0.000170
729 0.000171
730 0.000174
731 0.000174
732 0.000175
733 0.000177
734 0.000179
735 0.000179
736 0.000176
737 0.000174
738 0.000170
739 0.000167
740 0.000164
741 0.000163
742 0.000164
743 0.000167
744 0.000170
745 0.000175
746 0.000180
747 0.000182
748 0.000184
749 0.000187
750 0.000188
751 0.000189
752 0.000190
753 0.000190
754 0.000188
755 0.000185
756 0.000182
757 0.000180
758 0.000178
759 0.000176
760 0.000172
761 0.000168
762 0.000167
763 0.000167
764 0.000165
765 0.000163
766 0.000161
767 0.000159
768 0.000157
769 0.000153
770 0.000150
771 0.000149
772 0.000149
773 0.000148
774 0.000148
775 0.000149
776 0.000148
777 0.000149
778 0.000151
779 0.000151
780 0.000151
781 0.000153
782 0.000154
783 0.000158
784 0.000162
785 0.000164
786 0.000165
787 0.000168
788 0.000170
789 0.000170
790 0.000171
791 0.000172
792 0.000170
793 0.000169
794 0.000167
795 0.000167
796 0.000166
797 0.000166
798 0.000167
799 0.000167
800 0.000164
801 0.000161
802 0.000159
803 0.000155
804 0.000150
805 0.000147
806 0.000146
807 0.000146
808 0.000145
809 0.000148
