# i correlation
1 0.001741
2 0.001709
3 0.001680
4 0.001649
5 0.001625
6 0.001604
7 0.001582
8 0.001560
9 0.001538
10 0.001523
11 0.001508
12 0.001494
13 0.001480
14 0.001467
15 0.001454
16 0.001441
17 0.001428
18 0.001414
19 0.001401
20 0.001391
21 0.001378
22 0.001367
23 0.001346
24 0.001325
25 0.001309
26 0.001296
27 0.001285
28 0.001275
29 0.001267
30 0.001260
31 0.001252
32 0.001245
33 0.001236
34 0.001228
35 0.001219
36 0.001210
37 0.001200
38 0.001191
39 0.001182
40 0.001175
41 0.001167
42 0.001159
43 0.001152
44 0.001148
45 0.001138
46 0.001133
47 0.001129
48 0.001127
49 0.001121
50 0.001113
51 0.001108
52 0.001104
53 0.001099
54 0.001099
55 0.001097
56 0.001095
57 0.001096
58 0.001098
59 0.001098
60 0.001098
61 0.001096
62 0.001094
63 0.001090
64 0.001087
65 0.001081
66 0.001076
67 0.001068
68 0.001060
69 0.001054
70 0.001048
71 0.001042
72 0.001033
73 0.001025
74 0.001018
75 0.001010
76 0.001002
77 0.001000
78 0.000998
79 0.000995
80 0.000994
81 0.000995
82 0.000994
83 0.000994
84 0.001000
85 0.001000
86 0.000997
87 0.000993
88 0.000991
89 0.000986
90 0.000980
91 0.000976
92 0.000974
93 0.000971
94 0.000971
95 0.000970
96 0.000969
97 0.000967
98 0.000967
99 0.000967
100 0.000964
101 0.000964
102 0.000962
103 0.000957
104 0.000954
105 0.000953
106 0.000952
107 0.000949
108 0.000943
109 0.000934
110 0.000924
111 0.000915
112 0.000909
113 0.000906
114 0.000908
115 0.000909
116 0.000908
117 0.000911
118 0.000915
119 0.000917
120 0.000921
121 0.000924
122 0.000923
123 0.000922
124 0.000918
125 0.000912
126 0.000903
127 0.000897
128 0.000894
129 0.000893
130 0.000890
131 0.000886
132 0.000878
133 0.000873
134 0.000866
135 0.000863
136 0.000857
137 0.000853
138 0.000848
139 0.000845
140 0.000847
141 0.000843
142 0.000841
143 0.000835
144 0.000825
145 0.000818
146 0.000812
147 0.000805
148 0.000800
149 0.000795
150 0.000794
151 0.000789
152 0.000788
153 0.000784
154 0.000778
155 0.000774
156 0.000767
157 0.000758
158 0.000751
159 0.000745
160 0.000738
161 0.000730
162 0.000731
163 0.000726
164 0.000722
165 0.000720
166 0.000717
167 0.000713
168 0.000709
169 0.000707
170 0.000708
171 0.000709
172 0.000710
173 0.000707
174 0.000705
175 0.000705
176 0.000700
177 0.000696
178 0.000693
179 0.000691
180 0.000692
181 0.000693
182 0.000698
183 0.000703
184 0.000706
185 0.000711
186 0.000718
187 0.000721
188 0.000723
189 0.000725
190 0.000725
191 0.000729
192 0.000728
193 0.000727
194 0.000725
195 0.000719
196 0.000712
197 0.000705
198 0.000697
199 0.000690
200 0.000684
201 0.000678
202 0.000673
203 0.000667
204 0.000662
205 0.000654
206 0.000650
207 0.000646
208 0.000642
209 0.000636
210 0.000630
211 0.000627
212 0.000621
213 0.000623
214 0.000623
215 0.000619
216 0.000611
217 0.000602
218 0.000596
219 0.000594
220 0.000596
221 0.000597
222 0.000602
223 0.000605
224 0.000603
225 0.000603
226 0.000604
227 0.000603
228 0.000597
229 0.000594
230 0.000584
231 0.000575
232 0.000567
233 0.000563
234 0.000561
235 0.000561
236 0.000563
237 0.000562
238 0.000558
239 0.000559
240 0.000562
241 0.000565
242 0.000567
243 0.000570
244 0.000575
245 0.000578
246 0.000580
247 0.000582
248 0.000583
249 0.000590
250 0.000596
251 0.000603
252 0.000608
253 0.000613
254 0.000618
255 0.000621
256 0.000625
257 0.000626
258 0.000628
259 0.000630
260 0.000636
261 0.000642
262 0.000644
263 0.000644
264 0.000642
265 0.000640
266 0.000638
267 0.000637
268 0.000637
269 0.000637
270 0.000641
271 0.000645
272 0.000646
273 0.000649
274 0.000651
275 0.000651
276 0.000652
277 0.000652
278 0.000651
279 0.000648
280 0.000647
281 0.000644
282 0.000639
283 0.000639
284 0.000639
285 0.000638
286 0.000632
287 0.000628
288 0.000627
289 0.000622
290 0.000618
291 0.000613
292 0.000610
293 0.000606
294 0.000601
295 0.000595
296 0.000587
297 0.000579
298 0.000570
299 0.000561
300 0.000554
301 0.000546
302 0.000540
303 0.000533
304 0.000527
305 0.000524
306 0.000523
307 0.000525
308 0.000527
309 0.000530
310 0.000532
311 0.000536
312 0.000536
313 0.000533
314 0.000531
315 0.000528
316 0.000525
317 0.000522
318 0.000521
319 0.000518
320 0.000516
321 0.000517
322 0.000518
323 0.000517
324 0.000517
325 0.000518
326 0.000515
327 0.000512
328 0.000512
329 0.000514
330 0.000510
331 0.000508
332 0.000510
333 0.000511
334 0.000509
335 0.000508
336 0.000506
337 0.000503
338 0.000502
339 0.000499
340 0.000497
341 0.000495
342 0.000492
343 0.000489
344 0.000485
345 0.000481
346 0.000477
347 0.000471
348 0.000466
349 0.000459
350 0.000454
351 0.000452
352 0.000444
353 0.000438
354 0.000433
355 0.000433
356 0.000431
357 0.000433
358 0.000433
359 0.000434
360 0.000432
361 0.000427
362 0.000427
363 0.000429
364 0.000427
365 0.000427
366 0.000427
367 0.000423
368 0.000424
369 0.000428
370 0.000427
371 0.000427
372 0.000426
373 0.000428
374 0.000427
375 0.000426
376 0.000428
377 0.000433
378 0.000433
379 0.000433
380 0.000436
381 0.000437
382 0.000441
383 0.000442
384 0.000442
385 0.000445
386 0.000444
387 0.000443
388 0.000439
389 0.000436
390 0.000436
391 0.000437
392 0.000439
393 0.000443
394 0.000444
395 0.000450
396 0.000452
397 0.000453
398 0.000453
399 0.000453
400 0.000452
401 0.000453
402 0.000455
403 0.000456
404 0.000455
405 0.000451
406 0.000449
407 0.000448
408 0.000447
409 0.000445
410 0.000440
411 0.000438
412 0.000432
413 0.000430
414 0.000427
415 0.000424
416 0.000421
417 0.000422
418 0.000423
419 0.000420
420 0.000414
421 0.000408
422 0.000402
423 0.000399
424 0.000399
425 0.000398
426 0.000399
427 0.000400
428 0.000400
429 0.000402
430 0.000403
431 0.000404
432 0.000401
433 0.000400
434 0.000399
435 0.000402
436 0.000404
437 0.000406
438 0.000403
439 0.000401
440 0.000405
441 0.000407
442 0.000408
443 0.000410
444 0.000412
445 0.000412
446 0.000415
447 0.000423
448 0.000424
449 0.000427
450 0.000430
451 0.000431
452 0.000430
453 0.000429
454 0.000426
455 0.000423
456 0.000424
457 0.000426
458 0.000425
459 0.000424
460 0.000423
461 0.000422
462 0.000426
463 0.000430
464 0.000435
465 0.000438
466 0.000440
467 0.000442
468 0.000442
469 0.000443
470 0.000442
471 0.000442
472 0.000440
473 0.000438
474 0.000437
475 0.000437
476 0.000438
477 0.000435
478 0.000434
479 0.000431
480 0.000427
481 0.000426
482 0.000427
483 0.000427
484 0.000429
485 0.000426
486 0.000425
487 0.000422
488 0.000419
489 0.000412
490 0.000406
491 0.000399
492 0.000390
493 0.000380
494 0.000370
495 0.000360
496 0.000353
497 0.000346
498 0.000341
499 0.000335
500 0.000329
501 0.000321
502 0.000315
503 0.000312
504 0.000309
505 0.000310
506 0.000309
507 0.000307
508 0.000303
509 0.000298
510 0.000294
511 0.000289
512 0.000286
513 0.000282
514 0.000277
515 0.000274
516 0.000272
517 0.000269
518 0.000267
519 0.000267
520 0.000265
521 0.000264
522 0.000266
523 0.000267
524 0.000269
525 0.000275
526 0.000277
527 0.000279
528 0.000281
529 0.000281
530 0.000283
531 0.000286
532 0.000290
533 0.000295
534 0.000300
535 0.000304
536 0.000307
537 0.000308
538 0.000309
539 0.000309
540 0.000308
541 0.000306
542 0.000306
543 0.000305
544 0.000307
545 0.000309
546 0.000312
547 0.000315
548 0.000320
549 0.000323
550 0.000323
551 0.000322
552 0.000321
553 0.000317
554 0.000316
555 0.000315
556 0.000314
557 0.000314
558 0.000314
559 0.000314
560 0.000314
561 0.000313
562 0.000311
563 0.000308
564 0.000306
565 0.000305
566 0.000306
567 0.000305
568 0.000308
569 0.000310
570 0.000313
571 0.000317
572 0.000316
573 0.000315
574 0.000314
575 0.000309
576 0.000307
577 0.000308
578 0.000306
579 0.000306
580 0.000306
581 0.000306
582 0.000305
583 0.000303
584 0.000302
585 0.000299
586 0.000299
587 0.000300
588 0.000302
589 0.000306
590 0.000309
591 0.000314
592 0.000320
593 0.000321
594 0.000320
595 0.000317
596 0.000316
597 0.000312
598 0.000307
599 0.000305
600 0.000301
601 0.000294
602 0.000291
603 0.000288
604 0.000284
605 0.000281
606 0.000279
607 0.000275
608 0.000271
609 0.000271
610 0.000268
611 0.000264
612 0.000263
613 0.000260
614 0.000256
615 0.000252
616 0.000250
617 0.000249
618 0.000249
619 0.000250
620 0.000248
621 0.000248
622 0.000247
623 0.000247
624 0.000246
625 0.000242
626 0.000239
627 0.000235
628 0.000231
629 0.000229
630 0.000227
631 0.000224
632 0.000223
633 0.000220
634 0.000218
635 0.000215
636 0.000212
637 0.000208
638 0.000205
639 0.000201
640 0.000201
641 0.000197
642 0.000194
643 0.000192
644 0.000189
645 0.000185
646 0.000184
647 0.000183
648 0.000181
649 0.000177
650 0.000176
651 0.000176
652 0.000176
653 0.000178
654 0.000181
655 0.000182
656 0.000184
657 0.000187
658 0.000191
659 0.000192
660 0.000193
661 0.000191
662 0.000192
663 0.000192
664 0.000191
665 0.000193
666 0.000193
667 0.000194
668 0.000194
669 0.000195
670 0.000196
671 0.000198
672 0.000198
673 0.000201
674 0.000201
675 0.000203
676 0.000206
677 0.000208
678 0.000212
679 0.000214
680 0.000217
681 0.000218
682 0.000217
683 0.000218
684 0.000218
685 0.000216
686 0.000216
687 0.000216
688 0.000216
689 0.000218
690 0.000217
691 0.000220
692 0.000220
693 0.000218
694 0.000217
695 0.000215
696 0.000215
697 0.000216
698 0.000216
699 0.000214
700 0.000211
701 0.000210
702 0.000208
703 0.000204
704 0.000201
705 0.000198
706 0.000195
707 0.000193
708 0.000191
709 0.000192
710 0.000194
711 0.000199
712 0.000201
713 0.000206
714 0.000210
715 0.000210
716 0.000210
717 0.000211
718 0.000213
719 0.000215
720 0.000218
721 0.000218
722 0.000219
723 0.000216
724 0.000215
725 0.000213
726 0.000211
727 0.000211
728 0.000210
729 0.000208
730 0.000207
731 0.000208
732 0.000209
733 0.000211
734 0.000212
735 0.000213
736 0.000211
737 0.000208
738 0.000204
739 0.000202
740 0.000201
741 0.000201
742 0.000202
743 0.000201
744 0.000199
745 0.000194
746 0.000191
747 0.000186
748 0.000182
749 0.000178
750 0.000174
751 0.000170
752 0.000167
753 0.000163
754 0.000161
755 0.000156
756 0.000152
757 0.000149
758 0.000147
759 0.000146
760 0.000145
761 0.000144
762 0.000142
763 0.000139
764 0.000137
765 0.000134
766 0.000128
767 0.000121
768 0.000116
769 0.000111
770 0.000106
771 0.000103
772 0.000100
773 0.000097
774 0.000096
775 0.000096
776 0.000096
777 0.000096
778 0.000095
779 0.000093
780 0.000091
781 0.000087
782 0.000085
783 0.000082
784 0.000078
785 0.000075
786 0.000073
787 0.000070
788 0.000068
789 0.000067
790 0.000066
791 0.000065
792 0.000065
793 0.000068
794 0.000070
795 0.000075
796 0.000077
797 0.000078
798 0.000080
799 0.000081
800 0.000083
801 0.000084
802 0.000084
803 0.000085
804 0.000086
805 0.000088
806 0.000091
807 0.000094
808 0.000096
809 0.000096
