# i correlation
1 0.001818
2 0.001780
3 0.001747
4 0.001717
5 0.001689
6 0.001664
7 0.001643
8 0.001625
9 0.001614
10 0.001601
11 0.001594
12 0.001586
13 0.001578
14 0.001571
15 0.001561
16 0.001549
17 0.001539
18 0.001529
19 0.001518
20 0.001503
21 0.001488
22 0.001478
23 0.001470
24 0.001462
25 0.001451
26 0.001439
27 0.001426
28 0.001417
29 0.001407
30 0.001395
31 0.001382
32 0.001367
33 0.001355
34 0.001347
35 0.001340
36 0.001334
37 0.001330
38 0.001327
39 0.001322
40 0.001317
41 0.001309
42 0.001303
43 0.001298
44 0.001291
45 0.001284
46 0.001273
47 0.001267
48 0.001265
49 0.001264
50 0.001264
51 0.001263
52 0.001263
53 0.001266
54 0.001265
55 0.001262
56 0.001259
57 0.001255
58 0.001247
59 0.001240
60 0.001229
61 0.001219
62 0.001211
63 0.001204
64 0.001194
65 0.001183
66 0.001174
67 0.001171
68 0.001164
69 0.001160
70 0.001150
71 0.001143
72 0.001137
73 0.001130
74 0.001122
75 0.001114
76 0.001105
77 0.001095
78 0.001089
79 0.001086
80 0.001086
81 0.001083
82 0.001076
83 0.001070
84 0.001065
85 0.001059
86 0.001052
87 0.001043
88 0.001032
89 0.001023
90 0.001019
91 0.001015
92 0.001011
93 0.001008
94 0.001009
95 0.001008
96 0.001005
97 0.001002
98 0.001001
99 0.000997
100 0.000989
101 0.000985
102 0.000979
103 0.000976
104 0.000975
105 0.000975
106 0.000972
107 0.000970
108 0.000972
109 0.000978
110 0.000982
111 0.000984
112 0.000986
113 0.000980
114 0.000975
115 0.000971
116 0.000968
117 0.000962
118 0.000957
119 0.000953
120 0.000952
121 0.000950
122 0.000945
123 0.000942
124 0.000936
125 0.000930
126 0.000922
127 0.000913
128 0.000908
129 0.000903
130 0.000903
131 0.000903
132 0.000902
133 0.000902
134 0.000900
135 0.000900
136 0.000901
137 0.000900
138 0.000894
139 0.000892
140 0.000884
141 0.000876
142 0.000865
143 0.000859
144 0.000855
145 0.000851
146 0.000845
147 0.000843
148 0.000843
149 0.000844
150 0.000841
151 0.000839
152 0.000833
153 0.000827
154 0.000823
155 0.000817
156 0.000810
157 0.000801
158 0.000791
159 0.000785
160 0.000779
161 0.000777
162 0.000776
163 0.000775
164 0.000773
165 0.000775
166 0.000775
167 0.000770
168 0.000766
169 0.000758
170 0.000749
171 0.000740
172 0.000732
173 0.000727
174 0.000725
175 0.000718
176 0.000717
177 0.000711
178 0.000707
179 0.000707
180 0.000705
181 0.000700
182 0.000693
183 0.000686
184 0.000680
185 0.000680
186 0.000678
187 0.000675
188 0.000673
189 0.000676
190 0.000678
191 0.000679
192 0.000683
193 0.000690
194 0.000696
195 0.000703
196 0.000706
197 0.000705
198 0.000703
199 0.000701
200 0.000699
201 0.000695
202 0.000695
203 0.000698
204 0.000704
205 0.000706
206 0.000710
207 0.000713
208 0.000717
209 0.000716
210 0.000720
211 0.000724
212 0.000725
213 0.000727
214 0.000729
215 0.000729
216 0.000730
217 0.000734
218 0.000738
219 0.000742
220 0.000745
221 0.000749
222 0.000752
223 0.000750
224 0.000750
225 0.000754
226 0.000755
227 0.000750
228 0.000749
229 0.000748
230 0.000746
231 0.000744
232 0.000740
233 0.000738
234 0.000736
235 0.000737
236 0.000735
237 0.000731
238 0.000727
239 0.000722
240 0.000718
241 0.000713
242 0.000707
243 0.000705
244 0.000702
245 0.000699
246 0.000697
247 0.000696
248 0.000695
249 0.000693
250 0.000689
251 0.000682
252 0.000678
253 0.000675
254 0.000674
255 0.000670
256 0.000668
257 0.000663
258 0.000659
259 0.000660
260 0.000660
261 0.000658
262 0.000654
263 0.000652
264 0.000652
265 0.000653
266 0.000651
267 0.000650
268 0.000645
269 0.000644
270 0.000641
271 0.000642
272 0.000642
273 0.000645
274 0.000649
275 0.000652
276 0.000657
277 0.000661
278 0.000667
279 0.000669
280 0.000669
281 0.000669
282 0.000667
283 0.000666
284 0.000668
285 0.000667
286 0.000664
287 0.000662
288 0.000663
289 0.000664
290 0.000662
291 0.000662
292 0.000657
293 0.000656
294 0.000653
295 0.000648
296 0.000643
297 0.000642
298 0.000641
299 0.000641
300 0.000639
301 0.000637
302 0.000641
303 0.000642
304 0.000641
305 0.000641
306 0.000637
307 0.000633
308 0.000628
309 0.000621
310 0.000613
311 0.000608
312 0.000608
313 0.000609
314 0.000607
315 0.000607
316 0.000608
317 0.000610
318 0.000609
319 0.000610
320 0.000609
321 0.000605
322 0.000602
323 0.000600
324 0.000595
325 0.000592
326 0.000589
327 0.000587
328 0.000588
329 0.000587
330 0.000590
331 0.000596
332 0.000601
333 0.000603
334 0.000605
335 0.000600
336 0.000600
337 0.000600
338 0.000600
339 0.000602
340 0.000608
341 0.000617
342 0.000623
343 0.000626
344 0.000626
345 0.000628
346 0.000626
347 0.000626
348 0.000624
349 0.000622
350 0.000623
351 0.000620
352 0.000614
353 0.000608
354 0.000600
355 0.000595
356 0.000594
357 0.000593
358 0.000592
359 0.000593
360 0.000594
361 0.000597
362 0.000601
363 0.000601
364 0.000601
365 0.000605
366 0.000604
367 0.000599
368 0.000596
369 0.000593
370 0.000590
371 0.000587
372 0.000579
373 0.000571
374 0.000568
375 0.000566
376 0.000564
377 0.000561
378 0.000555
379 0.000552
380 0.000550
381 0.000546
382 0.000544
383 0.000543
384 0.000541
385 0.000541
386 0.000540
387 0.000541
388 0.000542
389 0.000543
390 0.000543
391 0.000539
392 0.000535
393 0.000531
394 0.000528
395 0.000523
396 0.000517
397 0.000514
398 0.000513
399 0.000512
400 0.000513
401 0.000512
402 0.000507
403 0.000505
404 0.000502
405 0.000499
406 0.000494
407 0.000488
408 0.000482
409 0.000477
410 0.000473
411 0.000470
412 0.000467
413 0.000465
414 0.000465
415 0.000463
416 0.000462
417 0.000462
418 0.000464
419 0.000466
420 0.000469
421 0.000471
422 0.000474
423 0.000477
424 0.000480
425 0.000480
426 0.000478
427 0.000476
428 0.000477
429 0.000476
430 0.000475
431 0.000469
432 0.000468
433 0.000466
434 0.000466
435 0.000467
436 0.000469
437 0.000472
438 0.000475
439 0.000477
440 0.000477
441 0.000477
442 0.000479
443 0.000483
444 0.000485
445 0.000486
446 0.000487
447 0.000486
448 0.000486
449 0.000487
450 0.000488
451 0.000493
452 0.000495
453 0.000496
454 0.000498
455 0.000501
456 0.000503
457 0.000504
458 0.000503
459 0.000500
460 0.000497
461 0.000496
462 0.000497
463 0.000495
464 0.000489
465 0.000482
466 0.000474
467 0.000470
468 0.000467
469 0.000465
470 0.000464
471 0.000464
472 0.000462
473 0.000463
474 0.000464
475 0.000462
476 0.000459
477 0.000457
478 0.000455
479 0.000453
480 0.000453
481 0.000455
482 0.000453
483 0.000449
484 0.000443
485 0.000438
486 0.000434
487 0.000429
488 0.000424
489 0.000421
490 0.000416
491 0.000412
492 0.000412
493 0.000412
494 0.000413
495 0.000417
496 0.000420
497 0.000425
498 0.000429
499 0.000435
500 0.000437
501 0.000440
502 0.000444
503 0.000442
504 0.000441
505 0.000441
506 0.000438
507 0.000437
508 0.000436
509 0.000434
510 0.000433
511 0.000434
512 0.000436
513 0.000438
514 0.000439
515 0.000441
516 0.000443
517 0.000442
518 0.000442
519 0.000443
520 0.000440
521 0.000437
522 0.000433
523 0.000428
524 0.000424
525 0.000420
526 0.000418
527 0.000417
528 0.000412
529 0.000407
530 0.000407
531 0.000403
532 0.000398
533 0.000394
534 0.000389
535 0.000384
536 0.000381
537 0.000382
538 0.000382
539 0.000382
540 0.000380
541 0.000379
542 0.000380
543 0.000380
544 0.000380
545 0.000383
546 0.000384
547 0.000380
548 0.000375
549 0.000372
550 0.000371
551 0.000369
552 0.000367
553 0.000365
554 0.000364
555 0.000369
556 0.000375
557 0.000378
558 0.000380
559 0.000383
560 0.000387
561 0.000389
562 0.000389
563 0.000389
564 0.000388
565 0.000389
566 0.000390
567 0.000394
568 0.000398
569 0.000402
570 0.000403
571 0.000401
572 0.000401
573 0.000397
574 0.000393
575 0.000389
576 0.000386
577 0.000382
578 0.000377
579 0.000376
580 0.000375
581 0.000374
582 0.000372
583 0.000372
584 0.000372
585 0.000372
586 0.000373
587 0.000375
588 0.000376
589 0.000373
590 0.000369
591 0.000366
592 0.000362
593 0.000357
594 0.000355
595 0.000353
596 0.000350
597 0.000345
598 0.000341
599 0.000339
600 0.000337
601 0.000336
602 0.000333
603 0.000327
604 0.000320
605 0.000315
606 0.000311
607 0.000306
608 0.000302
609 0.000299
610 0.000297
611 0.000295
612 0.000293
613 0.000291
614 0.000291
615 0.000291
616 0.000288
617 0.000288
618 0.000289
619 0.000290
620 0.000288
621 0.000283
622 0.000280
623 0.000276
624 0.000275
625 0.000274
626 0.000270
627 0.000264
628 0.000259
629 0.000255
630 0.000253
631 0.000252
632 0.000248
633 0.000243
634 0.000238
635 0.000236
636 0.000239
637 0.000239
638 0.000238
639 0.000240
640 0.000241
641 0.000242
642 0.000244
643 0.000246
644 0.000247
645 0.000248
646 0.000252
647 0.000252
648 0.000254
649 0.000256
650 0.000260
651 0.000261
652 0.000261
653 0.000260
654 0.000263
655 0.000267
656 0.000267
657 0.000266
658 0.000266
659 0.000268
660 0.000269
661 0.000272
662 0.000275
663 0.000279
664 0.000285
665 0.000288
666 0.000293
667 0.000299
668 0.000306
669 0.000309
670 0.000312
671 0.000313
672 0.000312
673 0.000311
674 0.000311
675 0.000311
676 0.000310
677 0.000311
678 0.000313
679 0.000316
680 0.000315
681 0.000320
682 0.000324
683 0.000328
684 0.000330
685 0.000329
686 0.000326
687 0.000322
688 0.000320
689 0.000317
690 0.000316
691 0.000316
692 0.000316
693 0.000316
694 0.000313
695 0.000312
696 0.000311
697 0.000309
698 0.000309
699 0.000311
700 0.000313
701 0.000313
702 0.000312
703 0.000313
704 0.000312
705 0.000311
706 0.000311
707 0.000310
708 0.000309
709 0.000307
710 0.000305
711 0.000306
712 0.000307
713 0.000306
714 0.000304
715 0.000304
716 0.000306
717 0.000307
718 0.000307
719 0.000308
720 0.000307
721 0.000307
722 0.000308
723 0.000306
724 0.000303
725 0.000299
726 0.000297
727 0.000293
728 0.000291
729 0.000286
730 0.000287
731 0.000287
732 0.000287
733 0.000289
734 0.000288
735 0.000292
736 0.000293
737 0.000292
738 0.000287
739 0.000283
740 0.000282
741 0.000281
742 0.000280
743 0.000277
744 0.000274
745 0.000271
746 0.000268
747 0.000263
748 0.000258
749 0.000252
750 0.000248
751 0.000245
752 0.000242
753 0.000240
754 0.000239
755 0.000239
756 0.000240
757 0.000237
758 0.000234
759 0.000233
760 0.000230
761 0.000227
762 0.000224
763 0.000223
764 0.000223
765 0.000222
766 0.000222
767 0.000221
768 0.000220
769 0.000217
770 0.000213
771 0.000211
772 0.000208
773 0.000205
774 0.000202
775 0.000201
776 0.000200
777 0.000199
778 0.000198
779 0.000199
780 0.000202
781 0.000203
782 0.000205
783 0.000205
784 0.000203
785 0.000203
786 0.000202
787 0.000204
788 0.000204
789 0.000204
790 0.000204
791 0.000207
792 0.000207
793 0.000208
794 0.000211
795 0.000215
796 0.000219
797 0.000220
798 0.000222
799 0.000224
800 0.000225
801 0.000225
802 0.000226
803 0.000227
804 0.000229
805 0.000231
806 0.000231
807 0.000229
808 0.000224
809 0.000219
