# i correlation
1 0.001654
2 0.001626
3 0.001599
4 0.001574
5 0.001558
6 0.001538
7 0.001520
8 0.001502
9 0.001483
10 0.001467
11 0.001458
12 0.001448
13 0.001435
14 0.001423
15 0.001409
16 0.001396
17 0.001385
18 0.001373
19 0.001360
20 0.001349
21 0.001340
22 0.001334
23 0.001331
24 0.001322
25 0.001314
26 0.001305
27 0.001299
28 0.001297
29 0.001292
30 0.001283
31 0.001275
32 0.001262
33 0.001253
34 0.001246
35 0.001234
36 0.001222
37 0.001212
38 0.001204
39 0.001198
40 0.001190
41 0.001185
42 0.001179
43 0.001172
44 0.001161
45 0.001154
46 0.001144
47 0.001137
48 0.001128
49 0.001115
50 0.001106
51 0.001102
52 0.001097
53 0.001092
54 0.001082
55 0.001068
56 0.001056
57 0.001046
58 0.001037
59 0.001030
60 0.001020
61 0.001018
62 0.001016
63 0.001015
64 0.001013
65 0.001010
66 0.001008
67 0.000999
68 0.000997
69 0.000992
70 0.000988
71 0.000982
72 0.000972
73 0.000962
74 0.000952
75 0.000947
76 0.000947
77 0.000948
78 0.000946
79 0.000944
80 0.000941
81 0.000939
82 0.000938
83 0.000937
84 0.000931
85 0.000921
86 0.000911
87 0.000900
88 0.000889
89 0.000881
90 0.000873
91 0.000867
92 0.000861
93 0.000857
94 0.000856
95 0.000858
96 0.000857
97 0.000854
98 0.000851
99 0.000849
100 0.000847
101 0.000845
102 0.000844
103 0.000842
104 0.000841
105 0.000840
106 0.000844
107 0.000849
108 0.000850
109 0.000852
110 0.000852
111 0.000854
112 0.000852
113 0.000852
114 0.000850
115 0.000850
116 0.000852
117 0.000852
118 0.000849
119 0.000845
120 0.000840
121 0.000831
122 0.000829
123 0.000828
124 0.000824
125 0.000822
126 0.000815
127 0.000814
128 0.000811
129 0.000812
130 0.000813
131 0.000809
132 0.000805
133 0.000800
134 0.000797
135 0.000793
136 0.000792
137 0.000789
138 0.000788
139 0.000786
140 0.000784
141 0.000782
142 0.000780
143 0.000777
144 0.000776
145 0.000778
146 0.000778
147 0.000778
148 0.000777
149 0.000772
150 0.000770
151 0.000767
152 0.000767
153 0.000764
154 0.000759
155 0.000756
156 0.000749
157 0.000742
158 0.000738
159 0.000735
160 0.000733
161 0.000734
162 0.000730
163 0.000727
164 0.000723
165 0.000719
166 0.000716
167 0.000714
168 0.000710
169 0.000708
170 0.000711
171 0.000707
172 0.000706
173 0.000701
174 0.000699
175 0.000699
176 0.000699
177 0.000703
178 0.000704
179 0.000706
180 0.000707
181 0.000709
182 0.000709
183 0.000706
184 0.000704
185 0.000705
186 0.000703
187 0.000700
188 0.000698
189 0.000697
190 0.000695
191 0.000693
192 0.000693
193 0.000697
194 0.000697
195 0.000700
196 0.000702
197 0.000700
198 0.000701
199 0.000701
200 0.000702
201 0.000699
202 0.000695
203 0.000692
204 0.000687
205 0.000681
206 0.000680
207 0.000680
208 0.000683
209 0.000685
210 0.000685
211 0.000684
212 0.000682
213 0.000680
214 0.000680
215 0.000678
216 0.000676
217 0.000672
218 0.000667
219 0.000662
220 0.000660
221 0.000656
222 0.000654
223 0.000654
224 0.000655
225 0.000654
226 0.000652
227 0.000651
228 0.000649
229 0.000648
230 0.000644
231 0.000650
232 0.000652
233 0.000656
234 0.000654
235 0.000651
236 0.000651
237 0.000651
238 0.000656
239 0.000657
240 0.000657
241 0.000658
242 0.000659
243 0.000661
244 0.000662
245 0.000664
246 0.000665
247 0.000668
248 0.000669
249 0.000673
250 0.000673
251 0.000673
252 0.000669
253 0.000662
254 0.000660
255 0.000656
256 0.000656
257 0.000653
258 0.000652
259 0.000650
260 0.000650
261 0.000655
262 0.000659
263 0.000660
264 0.000662
265 0.000663
266 0.000660
267 0.000657
268 0.000658
269 0.000655
270 0.000654
271 0.000652
272 0.000653
273 0.000651
274 0.000650
275 0.000649
276 0.000651
277 0.000652
278 0.000654
279 0.000656
280 0.000657
281 0.000654
282 0.000648
283 0.000645
284 0.000641
285 0.000638
286 0.000634
287 0.000629
288 0.000626
289 0.000625
290 0.000626
291 0.000630
292 0.000634
293 0.000636
294 0.000636
295 0.000636
296 0.000634
297 0.000634
298 0.000631
299 0.000632
300 0.000630
301 0.000627
302 0.000625
303 0.000627
304 0.000627
305 0.000625
306 0.000620
307 0.000618
308 0.000616
309 0.000613
310 0.000610
311 0.000607
312 0.000604
313 0.000599
314 0.000596
315 0.000596
316 0.000595
317 0.000593
318 0.000591
319 0.000589
320 0.000584
321 0.000581
322 0.000580
323 0.000578
324 0.000577
325 0.000574
326 0.000572
327 0.000575
328 0.000575
329 0.000574
330 0.000572
331 0.000570
332 0.000564
333 0.000563
334 0.000559
335 0.000553
336 0.000546
337 0.000538
338 0.000532
339 0.000527
340 0.000524
341 0.000522
342 0.000518
343 0.000513
344 0.000511
345 0.000507
346 0.000504
347 0.000500
348 0.000497
349 0.000490
350 0.000483
351 0.000480
352 0.000474
353 0.000468
354 0.000461
355 0.000455
356 0.000454
357 0.000448
358 0.000444
359 0.000440
360 0.000435
361 0.000431
362 0.000428
363 0.000422
364 0.000416
365 0.000410
366 0.000404
367 0.000401
368 0.000397
369 0.000395
370 0.000393
371 0.000393
372 0.000394
373 0.000392
374 0.000392
375 0.000391
376 0.000389
377 0.000389
378 0.000388
379 0.000388
380 0.000389
381 0.000389
382 0.000385
383 0.000382
384 0.000380
385 0.000378
386 0.000378
387 0.000378
388 0.000378
389 0.000377
390 0.000377
391 0.000375
392 0.000372
393 0.000371
394 0.000369
395 0.000369
396 0.000366
397 0.000361
398 0.000355
399 0.000353
400 0.000352
401 0.000350
402 0.000348
403 0.000348
404 0.000346
405 0.000344
406 0.000344
407 0.000346
408 0.000348
409 0.000347
410 0.000348
411 0.000347
412 0.000345
413 0.000347
414 0.000347
415 0.000343
416 0.000341
417 0.000340
418 0.000338
419 0.000339
420 0.000339
421 0.000337
422 0.000340
423 0.000342
424 0.000344
425 0.000345
426 0.000346
427 0.000345
428 0.000345
429 0.000341
430 0.000339
431 0.000341
432 0.000340
433 0.000339
434 0.000339
435 0.000340
436 0.000343
437 0.000345
438 0.000347
439 0.000348
440 0.000346
441 0.000348
442 0.000351
443 0.000353
444 0.000352
445 0.000350
446 0.000350
447 0.000352
448 0.000356
449 0.000357
450 0.000360
451 0.000365
452 0.000366
453 0.000366
454 0.000367
455 0.000369
456 0.000370
457 0.000371
458 0.000374
459 0.000376
460 0.000383
461 0.000386
462 0.000387
463 0.000389
464 0.000391
465 0.000391
466 0.000388
467 0.000382
468 0.000374
469 0.000371
470 0.000369
471 0.000368
472 0.000369
473 0.000367
474 0.000367
475 0.000368
476 0.000369
477 0.000370
478 0.000371
479 0.000372
480 0.000373
481 0.000372
482 0.000371
483 0.000367
484 0.000363
485 0.000358
486 0.000352
487 0.000345
488 0.000341
489 0.000340
490 0.000339
491 0.000336
492 0.000333
493 0.000328
494 0.000326
495 0.000320
496 0.000315
497 0.000310
498 0.000303
499 0.000300
500 0.000296
501 0.000297
502 0.000295
503 0.000297
504 0.000298
505 0.000299
506 0.000301
507 0.000304
508 0.000306
509 0.000309
510 0.000308
511 0.000310
512 0.000312
513 0.000315
514 0.000316
515 0.000316
516 0.000318
517 0.000319
518 0.000320
519 0.000319
520 0.000318
521 0.000316
522 0.000315
523 0.000318
524 0.000320
525 0.000322
526 0.000322
527 0.000320
528 0.000319
529 0.000316
530 0.000316
531 0.000316
532 0.000314
533 0.000315
534 0.000312
535 0.000310
536 0.000306
537 0.000304
538 0.000301
539 0.000298
540 0.000294
541 0.000294
542 0.000296
543 0.000297
544 0.000300
545 0.000300
546 0.000300
547 0.000298
548 0.000296
549 0.000293
550 0.000289
551 0.000285
552 0.000282
553 0.000280
554 0.000280
555 0.000282
556 0.000284
557 0.000285
558 0.000288
559 0.000289
560 0.000291
561 0.000293
562 0.000293
563 0.000290
564 0.000287
565 0.000282
566 0.000279
567 0.000279
568 0.000278
569 0.000278
570 0.000274
571 0.000270
572 0.000267
573 0.000267
574 0.000265
575 0.000264
576 0.000262
577 0.000263
578 0.000263
579 0.000261
580 0.000262
581 0.000261
582 0.000261
583 0.000260
584 0.000260
585 0.000259
586 0.000261
587 0.000263
588 0.000263
589 0.000266
590 0.000267
591 0.000268
592 0.000271
593 0.000271
594 0.000272
595 0.000272
596 0.000274
597 0.000274
598 0.000274
599 0.000274
600 0.000275
601 0.000275
602 0.000277
603 0.000278
604 0.000275
605 0.000271
606 0.000268
607 0.000267
608 0.000266
609 0.000264
610 0.000261
611 0.000256
612 0.000253
613 0.000248
614 0.000243
615 0.000239
616 0.000235
617 0.000230
618 0.000225
619 0.000221
620 0.000220
621 0.000219
622 0.000219
623 0.000219
624 0.000219
625 0.000220
626 0.000224
627 0.000226
628 0.000227
629 0.000227
630 0.000228
631 0.000228
632 0.000227
633 0.000225
634 0.000225
635 0.000222
636 0.000217
637 0.000213
638 0.000208
639 0.000208
640 0.000206
641 0.000204
642 0.000201
643 0.000200
644 0.000197
645 0.000196
646 0.000194
647 0.000191
648 0.000188
649 0.000183
650 0.000181
651 0.000184
652 0.000184
653 0.000186
654 0.000186
655 0.000188
656 0.000191
657 0.000193
658 0.000196
659 0.000198
660 0.000200
661 0.000202
662 0.000203
663 0.000205
664 0.000206
665 0.000208
666 0.000206
667 0.000205
668 0.000205
669 0.000204
670 0.000205
671 0.000206
672 0.000206
673 0.000207
674 0.000208
675 0.000208
676 0.000207
677 0.000204
678 0.000201
679 0.000200
680 0.000198
681 0.000196
682 0.000191
683 0.000186
684 0.000183
685 0.000180
686 0.000180
687 0.000178
688 0.000175
689 0.000172
690 0.000167
691 0.000161
692 0.000158
693 0.000155
694 0.000154
695 0.000149
696 0.000146
697 0.000146
698 0.000148
699 0.000149
700 0.000150
701 0.000146
702 0.000146
703 0.000147
704 0.000148
705 0.000150
706 0.000151
707 0.000154
708 0.000156
709 0.000157
710 0.000159
711 0.000160
712 0.000161
713 0.000163
714 0.000164
715 0.000165
716 0.000167
717 0.000165
718 0.000163
719 0.000162
720 0.000159
721 0.000158
722 0.000157
723 0.000157
724 0.000156
725 0.000154
726 0.000152
727 0.000152
728 0.000153
729 0.000153
730 0.000152
731 0.000149
732 0.000147
733 0.000145
734 0.000144
735 0.000141
736 0.000140
737 0.000137
738 0.000135
739 0.000134
740 0.000135
741 0.000137
742 0.000139
743 0.000138
744 0.000136
745 0.000134
746 0.000130
747 0.000128
748 0.000123
749 0.000119
750 0.000117
751 0.000114
752 0.000113
753 0.000110
754 0.000110
755 0.000112
756 0.000113
757 0.000115
758 0.000118
759 0.000117
760 0.000116
761 0.000113
762 0.000113
763 0.000112
764 0.000111
765 0.000109
766 0.000108
767 0.000108
768 0.000108
769 0.000110
770 0.000112
771 0.000111
772 0.000109
773 0.000107
774 0.000105
775 0.000104
776 0.000103
777 0.000102
778 0.000100
779 0.000098
780 0.000098
781 0.000098
782 0.000100
783 0.000100
784 0.000100
785 0.000100
786 0.000099
787 0.000098
788 0.000095
789 0.000091
790 0.000088
791 0.000084
792 0.000083
793 0.000083
794 0.000084
795 0.000084
796 0.000083
797 0.000082
798 0.000082
799 0.000080
800 0.000079
801 0.000078
802 0.000076
803 0.000076
804 0.000075
805 0.000075
806 0.000074
807 0.000073
808 0.000074
809 0.000075
