# i correlation
1 0.001761
2 0.001726
3 0.001699
4 0.001673
5 0.001652
6 0.001630
7 0.001610
8 0.001590
9 0.001571
10 0.001551
11 0.001536
12 0.001522
13 0.001511
14 0.001498
15 0.001485
16 0.001472
17 0.001462
18 0.001452
19 0.001440
20 0.001427
21 0.001414
22 0.001401
23 0.001388
24 0.001375
25 0.001367
26 0.001363
27 0.001349
28 0.001340
29 0.001327
30 0.001314
31 0.001303
32 0.001296
33 0.001292
34 0.001287
35 0.001279
36 0.001273
37 0.001266
38 0.001257
39 0.001248
40 0.001244
41 0.001241
42 0.001237
43 0.001237
44 0.001237
45 0.001240
46 0.001246
47 0.001248
48 0.001244
49 0.001243
50 0.001236
51 0.001228
52 0.001223
53 0.001215
54 0.001207
55 0.001201
56 0.001195
57 0.001189
58 0.001186
59 0.001186
60 0.001187
61 0.001185
62 0.001187
63 0.001182
64 0.001178
65 0.001174
66 0.001172
67 0.001166
68 0.001162
69 0.001157
70 0.001151
71 0.001146
72 0.001139
73 0.001132
74 0.001124
75 0.001117
76 0.001109
77 0.001106
78 0.001105
79 0.001101
80 0.001096
81 0.001092
82 0.001090
83 0.001087
84 0.001078
85 0.001071
86 0.001064
87 0.001052
88 0.001045
89 0.001035
90 0.001027
91 0.001018
92 0.001008
93 0.000998
94 0.000990
95 0.000987
96 0.000986
97 0.000982
98 0.000979
99 0.000974
100 0.000968
101 0.000960
102 0.000954
103 0.000949
104 0.000948
105 0.000950
106 0.000952
107 0.000952
108 0.000951
109 0.000953
110 0.000958
111 0.000964
112 0.000965
113 0.000965
114 0.000971
115 0.000973
116 0.000973
117 0.000977
118 0.000978
119 0.000979
120 0.000980
121 0.000980
122 0.000979
123 0.000979
124 0.000978
125 0.000976
126 0.000977
127 0.000975
128 0.000977
129 0.000977
130 0.000978
131 0.000980
132 0.000986
133 0.000986
134 0.000981
135 0.000975
136 0.000972
137 0.000969
138 0.000966
139 0.000964
140 0.000960
141 0.000955
142 0.000950
143 0.000944
144 0.000940
145 0.000935
146 0.000923
147 0.000914
148 0.000906
149 0.000898
150 0.000889
151 0.000882
152 0.000875
153 0.000869
154 0.000867
155 0.000864
156 0.000863
157 0.000863
158 0.000862
159 0.000859
160 0.000856
161 0.000854
162 0.000855
163 0.000857
164 0.000860
165 0.000862
166 0.000864
167 0.000867
168 0.000869
169 0.000871
170 0.000874
171 0.000872
172 0.000868
173 0.000865
174 0.000862
175 0.000860
176 0.000859
177 0.000859
178 0.000858
179 0.000855
180 0.000851
181 0.000848
182 0.000843
183 0.000838
184 0.000831
185 0.000829
186 0.000826
187 0.000824
188 0.000822
189 0.000820
190 0.000821
191 0.000818
192 0.000816
193 0.000814
194 0.000814
195 0.000810
196 0.000805
197 0.000801
198 0.000795
199 0.000789
200 0.000782
201 0.000775
202 0.000769
203 0.000762
204 0.000757
205 0.000754
206 0.000752
207 0.000749
208 0.000744
209 0.000738
210 0.000732
211 0.000729
212 0.000724
213 0.000721
214 0.000721
215 0.000716
216 0.000712
217 0.000709
218 0.000704
219 0.000700
220 0.000696
221 0.000690
222 0.000686
223 0.000684
224 0.000679
225 0.000674
226 0.000672
227 0.000670
228 0.000670
229 0.000669
230 0.000668
231 0.000670
232 0.000669
233 0.000667
234 0.000669
235 0.000670
236 0.000671
237 0.000672
238 0.000670
239 0.000670
240 0.000670
241 0.000668
242 0.000666
243 0.000665
244 0.000661
245 0.000658
246 0.000658
247 0.000657
248 0.000655
249 0.000654
250 0.000651
251 0.000647
252 0.000643
253 0.000640
254 0.000640
255 0.000638
256 0.000638
257 0.000634
258 0.000629
259 0.000624
260 0.000622
261 0.000618
262 0.000611
263 0.000607
264 0.000601
265 0.000596
266 0.000588
267 0.000580
268 0.000575
269 0.000568
270 0.000560
271 0.000551
272 0.000542
273 0.000535
274 0.000527
275 0.000521
276 0.000517
277 0.000518
278 0.000514
279 0.000509
280 0.000507
281 0.000505
282 0.000502
283 0.000496
284 0.000497
285 0.000496
286 0.000493
287 0.000491
288 0.000489
289 0.000484
290 0.000481
291 0.000475
292 0.000471
293 0.000469
294 0.000467
295 0.000464
296 0.000464
297 0.000467
298 0.000467
299 0.000470
300 0.000471
301 0.000473
302 0.000475
303 0.000478
304 0.000480
305 0.000478
306 0.000479
307 0.000480
308 0.000480
309 0.000480
310 0.000481
311 0.000482
312 0.000483
313 0.000488
314 0.000490
315 0.000488
316 0.000489
317 0.000490
318 0.000494
319 0.000498
320 0.000507
321 0.000510
322 0.000510
323 0.000511
324 0.000511
325 0.000515
326 0.000515
327 0.000516
328 0.000515
329 0.000513
330 0.000510
331 0.000510
332 0.000509
333 0.000510
334 0.000511
335 0.000507
336 0.000504
337 0.000503
338 0.000504
339 0.000506
340 0.000503
341 0.000498
342 0.000494
343 0.000489
344 0.000486
345 0.000485
346 0.000488
347 0.000487
348 0.000483
349 0.000481
350 0.000478
351 0.000474
352 0.000468
353 0.000466
354 0.000462
355 0.000460
356 0.000459
357 0.000455
358 0.000451
359 0.000451
360 0.000449
361 0.000448
362 0.000449
363 0.000451
364 0.000452
365 0.000453
366 0.000457
367 0.000459
368 0.000463
369 0.000462
370 0.000461
371 0.000459
372 0.000458
373 0.000454
374 0.000451
375 0.000450
376 0.000448
377 0.000442
378 0.000437
379 0.000437
380 0.000438
381 0.000437
382 0.000437
383 0.000436
384 0.000437
385 0.000439
386 0.000441
387 0.000442
388 0.000444
389 0.000444
390 0.000441
391 0.000440
392 0.000439
393 0.000438
394 0.000437
395 0.000436
396 0.000434
397 0.000431
398 0.000431
399 0.000432
400 0.000432
401 0.000431
402 0.000429
403 0.000425
404 0.000423
405 0.000423
406 0.000423
407 0.000420
408 0.000419
409 0.000416
410 0.000415
411 0.000415
412 0.000412
413 0.000412
414 0.000411
415 0.000406
416 0.000403
417 0.000401
418 0.000398
419 0.000397
420 0.000395
421 0.000390
422 0.000385
423 0.000379
424 0.000376
425 0.000374
426 0.000370
427 0.000366
428 0.000364
429 0.000360
430 0.000355
431 0.000352
432 0.000352
433 0.000351
434 0.000352
435 0.000352
436 0.000353
437 0.000353
438 0.000353
439 0.000354
440 0.000351
441 0.000350
442 0.000348
443 0.000343
444 0.000339
445 0.000338
446 0.000340
447 0.000339
448 0.000338
449 0.000333
450 0.000329
451 0.000331
452 0.000332
453 0.000334
454 0.000337
455 0.000336
456 0.000334
457 0.000333
458 0.000335
459 0.000336
460 0.000337
461 0.000337
462 0.000337
463 0.000335
464 0.000333
465 0.000331
466 0.000331
467 0.000332
468 0.000330
469 0.000326
470 0.000324
471 0.000324
472 0.000324
473 0.000323
474 0.000325
475 0.000324
476 0.000322
477 0.000323
478 0.000324
479 0.000327
480 0.000329
481 0.000330
482 0.000331
483 0.000332
484 0.000334
485 0.000334
486 0.000335
487 0.000338
488 0.000339
489 0.000341
490 0.000341
491 0.000345
492 0.000345
493 0.000346
494 0.000349
495 0.000354
496 0.000356
497 0.000356
498 0.000356
499 0.000355
500 0.000357
501 0.000358
502 0.000358
503 0.000356
504 0.000356
505 0.000354
506 0.000352
507 0.000353
508 0.000356
509 0.000356
510 0.000356
511 0.000355
512 0.000354
513 0.000354
514 0.000354
515 0.000351
516 0.000350
517 0.000351
518 0.000347
519 0.000345
520 0.000343
521 0.000340
522 0.000337
523 0.000334
524 0.000335
525 0.000334
526 0.000333
527 0.000331
528 0.000332
529 0.000332
530 0.000333
531 0.000335
532 0.000335
533 0.000337
534 0.000341
535 0.000342
536 0.000344
537 0.000345
538 0.000345
539 0.000345
540 0.000346
541 0.000344
542 0.000344
543 0.000344
544 0.000344
545 0.000343
546 0.000340
547 0.000340
548 0.000337
549 0.000332
550 0.000328
551 0.000324
552 0.000320
553 0.000318
554 0.000313
555 0.000311
556 0.000314
557 0.000317
558 0.000318
559 0.000318
560 0.000318
561 0.000318
562 0.000319
563 0.000316
564 0.000317
565 0.000317
566 0.000316
567 0.000314
568 0.000311
569 0.000311
570 0.000311
571 0.000310
572 0.000309
573 0.000311
574 0.000311
575 0.000313
576 0.000315
577 0.000320
578 0.000324
579 0.000329
580 0.000333
581 0.000335
582 0.000337
583 0.000337
584 0.000337
585 0.000336
586 0.000334
587 0.000329
588 0.000324
589 0.000317
590 0.000314
591 0.000309
592 0.000305
593 0.000301
594 0.000296
595 0.000291
596 0.000287
597 0.000283
598 0.000277
599 0.000271
600 0.000266
601 0.000261
602 0.000257
603 0.000256
604 0.000252
605 0.000250
606 0.000248
607 0.000247
608 0.000244
609 0.000237
610 0.000230
611 0.000224
612 0.000217
613 0.000212
614 0.000206
615 0.000203
616 0.000201
617 0.000197
618 0.000195
619 0.000195
620 0.000192
621 0.000189
622 0.000188
623 0.000187
624 0.000190
625 0.000191
626 0.000195
627 0.000198
628 0.000201
629 0.000201
630 0.000200
631 0.000202
632 0.000201
633 0.000201
634 0.000203
635 0.000202
636 0.000201
637 0.000199
638 0.000196
639 0.000193
640 0.000193
641 0.000193
642 0.000193
643 0.000194
644 0.000194
645 0.000196
646 0.000199
647 0.000201
648 0.000206
649 0.000209
650 0.000210
651 0.000211
652 0.000217
653 0.000221
654 0.000223
655 0.000223
656 0.000224
657 0.000225
658 0.000223
659 0.000220
660 0.000219
661 0.000217
662 0.000217
663 0.000215
664 0.000212
665 0.000211
666 0.000210
667 0.000209
668 0.000208
669 0.000205
670 0.000205
671 0.000205
672 0.000201
673 0.000201
674 0.000202
675 0.000201
676 0.000198
677 0.000194
678 0.000193
679 0.000192
680 0.000190
681 0.000186
682 0.000180
683 0.000176
684 0.000169
685 0.000163
686 0.000161
687 0.000158
688 0.000160
689 0.000160
690 0.000159
691 0.000156
692 0.000153
693 0.000150
694 0.000148
695 0.000147
696 0.000146
697 0.000143
698 0.000142
699 0.000141
700 0.000138
701 0.000140
702 0.000142
703 0.000145
704 0.000148
705 0.000151
706 0.000153
707 0.000156
708 0.000157
709 0.000160
710 0.000160
711 0.000159
712 0.000160
713 0.000159
714 0.000161
715 0.000163
716 0.000164
717 0.000166
718 0.000167
719 0.000168
720 0.000169
721 0.000169
722 0.000167
723 0.000168
724 0.000171
725 0.000172
726 0.000174
727 0.000173
728 0.000169
729 0.000164
730 0.000159
731 0.000152
732 0.000147
733 0.000143
734 0.000140
735 0.000139
736 0.000138
737 0.000138
738 0.000137
739 0.000136
740 0.000134
741 0.000130
742 0.000127
743 0.000121
744 0.000117
745 0.000114
746 0.000109
747 0.000104
748 0.000103
749 0.000098
750 0.000094
751 0.000094
752 0.000095
753 0.000093
754 0.000093
755 0.000092
756 0.000092
757 0.000091
758 0.000089
759 0.000088
760 0.000086
761 0.000086
762 0.000087
763 0.000089
764 0.000090
765 0.000089
766 0.000088
767 0.000089
768 0.000088
769 0.000085
770 0.000085
771 0.000087
772 0.000088
773 0.000091
774 0.000091
775 0.000090
776 0.000089
777 0.000086
778 0.000085
779 0.000084
780 0.000083
781 0.000083
782 0.000081
783 0.000080
784 0.000083
785 0.000089
786 0.000092
787 0.000095
788 0.000096
789 0.000095
790 0.000093
791 0.000090
792 0.000088
793 0.000085
794 0.000082
795 0.000078
796 0.000073
797 0.000070
798 0.000069
799 0.000068
800 0.000067
801 0.000067
802 0.000066
803 0.000065
804 0.000063
805 0.000063
806 0.000061
807 0.000060
808 0.000058
809 0.000055
