# i correlation
1 0.001734
2 0.001695
3 0.001663
4 0.001634
5 0.001606
6 0.001583
7 0.001559
8 0.001537
9 0.001517
10 0.001499
11 0.001483
12 0.001472
13 0.001461
14 0.001447
15 0.001437
16 0.001428
17 0.001420
18 0.001415
19 0.001410
20 0.001405
21 0.001400
22 0.001391
23 0.001380
24 0.001367
25 0.001352
26 0.001338
27 0.001324
28 0.001315
29 0.001304
30 0.001294
31 0.001281
32 0.001272
33 0.001262
34 0.001254
35 0.001245
36 0.001242
37 0.001236
38 0.001232
39 0.001230
40 0.001225
41 0.001220
42 0.001216
43 0.001213
44 0.001210
45 0.001206
46 0.001201
47 0.001197
48 0.001191
49 0.001181
50 0.001170
51 0.001161
52 0.001152
53 0.001147
54 0.001140
55 0.001134
56 0.001127
57 0.001124
58 0.001124
59 0.001122
60 0.001123
61 0.001123
62 0.001122
63 0.001119
64 0.001114
65 0.001110
66 0.001104
67 0.001099
68 0.001099
69 0.001096
70 0.001090
71 0.001083
72 0.001071
73 0.001061
74 0.001052
75 0.001043
76 0.001033
77 0.001025
78 0.001023
79 0.001021
80 0.001019
81 0.001020
82 0.001021
83 0.001023
84 0.001021
85 0.001017
86 0.001016
87 0.001013
88 0.001010
89 0.001006
90 0.001000
91 0.000998
92 0.000995
93 0.000990
94 0.000986
95 0.000983
96 0.000974
97 0.000969
98 0.000965
99 0.000960
100 0.000957
101 0.000953
102 0.000948
103 0.000941
104 0.000941
105 0.000940
106 0.000940
107 0.000946
108 0.000949
109 0.000952
110 0.000959
111 0.000962
112 0.000961
113 0.000960
114 0.000962
115 0.000963
116 0.000962
117 0.000964
118 0.000960
119 0.000954
120 0.000951
121 0.000947
122 0.000944
123 0.000939
124 0.000935
125 0.000931
126 0.000925
127 0.000919
128 0.000916
129 0.000916
130 0.000915
131 0.000921
132 0.000922
133 0.000923
134 0.000921
135 0.000918
136 0.000914
137 0.000909
138 0.000906
139 0.000900
140 0.000893
141 0.000886
142 0.000880
143 0.000871
144 0.000863
145 0.000850
146 0.000837
147 0.000825
148 0.000815
149 0.000808
150 0.000802
151 0.000795
152 0.000792
153 0.000788
154 0.000782
155 0.000774
156 0.000767
157 0.000759
158 0.000751
159 0.000743
160 0.000737
161 0.000733
162 0.000728
163 0.000724
164 0.000718
165 0.000715
166 0.000713
167 0.000708
168 0.000706
169 0.000705
170 0.000700
171 0.000695
172 0.000691
173 0.000688
174 0.000686
175 0.000682
176 0.000683
177 0.000685
178 0.000691
179 0.000693
180 0.000695
181 0.000695
182 0.000698
183 0.000697
184 0.000698
185 0.000697
186 0.000697
187 0.000696
188 0.000697
189 0.000699
190 0.000702
191 0.000706
192 0.000708
193 0.000708
194 0.000706
195 0.000704
196 0.000706
197 0.000706
198 0.000706
199 0.000709
200 0.000711
201 0.000714
202 0.000719
203 0.000720
204 0.000723
205 0.000727
206 0.000728
207 0.000728
208 0.000726
209 0.000720
210 0.000714
211 0.000710
212 0.000710
213 0.000703
214 0.000698
215 0.000693
216 0.000688
217 0.000685
218 0.000684
219 0.000683
220 0.000683
221 0.000686
222 0.000688
223 0.000688
224 0.000687
225 0.000686
226 0.000682
227 0.000680
228 0.000677
229 0.000674
230 0.000673
231 0.000674
232 0.000673
233 0.000671
234 0.000668
235 0.000664
236 0.000662
237 0.000658
238 0.000655
239 0.000655
240 0.000654
241 0.000654
242 0.000654
243 0.000651
244 0.000650
245 0.000647
246 0.000645
247 0.000644
248 0.000649
249 0.000654
250 0.000654
251 0.000655
252 0.000659
253 0.000666
254 0.000669
255 0.000670
256 0.000668
257 0.000665
258 0.000658
259 0.000655
260 0.000652
261 0.000653
262 0.000652
263 0.000650
264 0.000649
265 0.000648
266 0.000645
267 0.000644
268 0.000644
269 0.000642
270 0.000643
271 0.000645
272 0.000644
273 0.000643
274 0.000644
275 0.000646
276 0.000645
277 0.000640
278 0.000634
279 0.000629
280 0.000625
281 0.000620
282 0.000616
283 0.000613
284 0.000609
285 0.000606
286 0.000604
287 0.000600
288 0.000597
289 0.000594
290 0.000584
291 0.000578
292 0.000574
293 0.000570
294 0.000567
295 0.000564
296 0.000560
297 0.000553
298 0.000546
299 0.000540
300 0.000538
301 0.000537
302 0.000533
303 0.000531
304 0.000528
305 0.000524
306 0.000520
307 0.000519
308 0.000515
309 0.000512
310 0.000509
311 0.000507
312 0.000505
313 0.000506
314 0.000506
315 0.000508
316 0.000512
317 0.000515
318 0.000520
319 0.000524
320 0.000528
321 0.000531
322 0.000537
323 0.000539
324 0.000540
325 0.000536
326 0.000529
327 0.000523
328 0.000519
329 0.000515
330 0.000512
331 0.000513
332 0.000514
333 0.000514
334 0.000515
335 0.000519
336 0.000522
337 0.000523
338 0.000524
339 0.000528
340 0.000534
341 0.000541
342 0.000546
343 0.000549
344 0.000549
345 0.000546
346 0.000547
347 0.000543
348 0.000539
349 0.000531
350 0.000522
351 0.000513
352 0.000502
353 0.000495
354 0.000490
355 0.000482
356 0.000477
357 0.000475
358 0.000473
359 0.000474
360 0.000472
361 0.000472
362 0.000470
363 0.000471
364 0.000472
365 0.000471
366 0.000472
367 0.000469
368 0.000466
369 0.000463
370 0.000464
371 0.000467
372 0.000470
373 0.000472
374 0.000471
375 0.000473
376 0.000472
377 0.000473
378 0.000474
379 0.000474
380 0.000474
381 0.000475
382 0.000477
383 0.000479
384 0.000484
385 0.000490
386 0.000496
387 0.000500
388 0.000501
389 0.000503
390 0.000503
391 0.000504
392 0.000503
393 0.000503
394 0.000504
395 0.000503
396 0.000503
397 0.000501
398 0.000498
399 0.000496
400 0.000492
401 0.000491
402 0.000489
403 0.000488
404 0.000486
405 0.000483
406 0.000481
407 0.000483
408 0.000480
409 0.000479
410 0.000476
411 0.000475
412 0.000470
413 0.000467
414 0.000465
415 0.000464
416 0.000461
417 0.000460
418 0.000458
419 0.000453
420 0.000449
421 0.000445
422 0.000440
423 0.000437
424 0.000435
425 0.000436
426 0.000434
427 0.000432
428 0.000431
429 0.000430
430 0.000431
431 0.000435
432 0.000440
433 0.000444
434 0.000445
435 0.000446
436 0.000445
437 0.000444
438 0.000441
439 0.000439
440 0.000437
441 0.000437
442 0.000436
443 0.000435
444 0.000432
445 0.000431
446 0.000427
447 0.000423
448 0.000418
449 0.000416
450 0.000414
451 0.000413
452 0.000412
453 0.000412
454 0.000416
455 0.000419
456 0.000421
457 0.000423
458 0.000421
459 0.000416
460 0.000414
461 0.000416
462 0.000413
463 0.000411
464 0.000412
465 0.000412
466 0.000412
467 0.000414
468 0.000413
469 0.000411
470 0.000409
471 0.000409
472 0.000410
473 0.000411
474 0.000407
475 0.000404
476 0.000402
477 0.000400
478 0.000398
479 0.000397
480 0.000394
481 0.000389
482 0.000386
483 0.000384
484 0.000380
485 0.000380
486 0.000377
487 0.000374
488 0.000370
489 0.000367
490 0.000364
491 0.000360
492 0.000356
493 0.000356
494 0.000354
495 0.000352
496 0.000352
497 0.000353
498 0.000351
499 0.000349
500 0.000347
501 0.000347
502 0.000346
503 0.000343
504 0.000340
505 0.000338
506 0.000339
507 0.000337
508 0.000337
509 0.000339
510 0.000341
511 0.000344
512 0.000347
513 0.000349
514 0.000353
515 0.000359
516 0.000362
517 0.000363
518 0.000364
519 0.000366
520 0.000368
521 0.000367
522 0.000367
523 0.000367
524 0.000369
525 0.000373
526 0.000373
527 0.000376
528 0.000379
529 0.000382
530 0.000382
531 0.000383
532 0.000383
533 0.000380
534 0.000375
535 0.000372
536 0.000370
537 0.000368
538 0.000365
539 0.000361
540 0.000358
541 0.000353
542 0.000351
543 0.000347
544 0.000342
545 0.000337
546 0.000333
547 0.000327
548 0.000323
549 0.000321
550 0.000318
551 0.000319
552 0.000319
553 0.000320
554 0.000320
555 0.000320
556 0.000320
557 0.000318
558 0.000315
559 0.000311
560 0.000307
561 0.000301
562 0.000296
563 0.000292
564 0.000290
565 0.000291
566 0.000292
567 0.000290
568 0.000287
569 0.000284
570 0.000280
571 0.000278
572 0.000279
573 0.000278
574 0.000277
575 0.000278
576 0.000279
577 0.000280
578 0.000283
579 0.000281
580 0.000279
581 0.000275
582 0.000269
583 0.000266
584 0.000264
585 0.000264
586 0.000260
587 0.000257
588 0.000255
589 0.000253
590 0.000252
591 0.000249
592 0.000246
593 0.000246
594 0.000247
595 0.000249
596 0.000252
597 0.000256
598 0.000258
599 0.000261
600 0.000263
601 0.000264
602 0.000264
603 0.000265
604 0.000266
605 0.000265
606 0.000262
607 0.000259
608 0.000258
609 0.000255
610 0.000252
611 0.000251
612 0.000248
613 0.000243
614 0.000238
615 0.000236
616 0.000234
617 0.000234
618 0.000231
619 0.000228
620 0.000226
621 0.000226
622 0.000226
623 0.000227
624 0.000227
625 0.000225
626 0.000222
627 0.000221
628 0.000220
629 0.000221
630 0.000221
631 0.000218
632 0.000216
633 0.000217
634 0.000218
635 0.000220
636 0.000222
637 0.000225
638 0.000229
639 0.000232
640 0.000234
641 0.000236
642 0.000239
643 0.000238
644 0.000236
645 0.000236
646 0.000238
647 0.000237
648 0.000238
649 0.000240
650 0.000240
651 0.000238
652 0.000239
653 0.000240
654 0.000239
655 0.000239
656 0.000239
657 0.000242
658 0.000246
659 0.000249
660 0.000251
661 0.000254
662 0.000259
663 0.000263
664 0.000267
665 0.000269
666 0.000276
667 0.000279
668 0.000281
669 0.000282
670 0.000282
671 0.000282
672 0.000281
673 0.000279
674 0.000276
675 0.000269
676 0.000263
677 0.000258
678 0.000254
679 0.000252
680 0.000249
681 0.000247
682 0.000245
683 0.000243
684 0.000238
685 0.000236
686 0.000233
687 0.000231
688 0.000230
689 0.000228
690 0.000227
691 0.000225
692 0.000221
693 0.000216
694 0.000214
695 0.000213
696 0.000212
697 0.000210
698 0.000208
699 0.000207
700 0.000206
701 0.000201
702 0.000199
703 0.000198
704 0.000197
705 0.000195
706 0.000194
707 0.000192
708 0.000191
709 0.000192
710 0.000195
711 0.000198
712 0.000199
713 0.000198
714 0.000196
715 0.000194
716 0.000195
717 0.000197
718 0.000201
719 0.000206
720 0.000211
721 0.000217
722 0.000221
723 0.000223
724 0.000222
725 0.000222
726 0.000221
727 0.000221
728 0.000220
729 0.000221
730 0.000218
731 0.000216
732 0.000216
733 0.000215
734 0.000214
735 0.000213
736 0.000212
737 0.000214
738 0.000216
739 0.000219
740 0.000220
741 0.000220
742 0.000220
743 0.000218
744 0.000216
745 0.000213
746 0.000208
747 0.000205
748 0.000200
749 0.000197
750 0.000198
751 0.000195
752 0.000193
753 0.000191
754 0.000188
755 0.000186
756 0.000186
757 0.000188
758 0.000190
759 0.000192
760 0.000193
761 0.000193
762 0.000191
763 0.000190
764 0.000190
765 0.000191
766 0.000191
767 0.000191
768 0.000192
769 0.000191
770 0.000191
771 0.000191
772 0.000190
773 0.000192
774 0.000194
775 0.000193
776 0.000193
777 0.000194
778 0.000196
779 0.000199
780 0.000200
781 0.000204
782 0.000207
783 0.000207
784 0.000207
785 0.000206
786 0.000206
787 0.000205
788 0.000202
789 0.000198
790 0.000196
791 0.000193
792 0.000190
793 0.000187
794 0.000186
795 0.000184
796 0.000183
797 0.000185
798 0.000185
799 0.000184
800 0.000185
801 0.000185
802 0.000185
803 0.000186
804 0.000187
805 0.000188
806 0.000189
807 0.000190
808 0.000190
809 0.000186
