# i correlation
1 0.001476
2 0.001440
3 0.001410
4 0.001383
5 0.001361
6 0.001339
7 0.001324
8 0.001311
9 0.001301
10 0.001291
11 0.001280
12 0.001267
13 0.001252
14 0.001241
15 0.001228
16 0.001220
17 0.001212
18 0.001206
19 0.001199
20 0.001193
21 0.001186
22 0.001182
23 0.001175
24 0.001168
25 0.001158
26 0.001152
27 0.001145
28 0.001138
29 0.001134
30 0.001132
31 0.001129
32 0.001123
33 0.001121
34 0.001118
35 0.001113
36 0.001107
37 0.001102
38 0.001099
39 0.001093
40 0.001089
41 0.001081
42 0.001075
43 0.001070
44 0.001066
45 0.001066
46 0.001065
47 0.001065
48 0.001066
49 0.001068
50 0.001065
51 0.001060
52 0.001054
53 0.001045
54 0.001033
55 0.001022
56 0.001015
57 0.001009
58 0.001003
59 0.000996
60 0.000989
61 0.000982
62 0.000976
63 0.000970
64 0.000968
65 0.000964
66 0.000954
67 0.000946
68 0.000941
69 0.000938
70 0.000938
71 0.000936
72 0.000934
73 0.000934
74 0.000928
75 0.000918
76 0.000911
77 0.000903
78 0.000896
79 0.000885
80 0.000876
81 0.000869
82 0.000863
83 0.000856
84 0.000848
85 0.000839
86 0.000830
87 0.000822
88 0.000812
89 0.000803
90 0.000796
91 0.000789
92 0.000781
93 0.000773
94 0.000769
95 0.000767
96 0.000764
97 0.000760
98 0.000755
99 0.000751
100 0.000750
101 0.000750
102 0.000747
103 0.000749
104 0.000752
105 0.000756
106 0.000759
107 0.000762
108 0.000762
109 0.000764
110 0.000768
111 0.000772
112 0.000773
113 0.000772
114 0.000768
115 0.000763
116 0.000761
117 0.000756
118 0.000754
119 0.000754
120 0.000755
121 0.000756
122 0.000758
123 0.000757
124 0.000754
125 0.000746
126 0.000740
127 0.000735
128 0.000730
129 0.000727
130 0.000727
131 0.000723
132 0.000721
133 0.000719
134 0.000714
135 0.000709
136 0.000697
137 0.000685
138 0.000675
139 0.000664
140 0.000659
141 0.000655
142 0.000654
143 0.000652
144 0.000650
145 0.000643
146 0.000634
147 0.000626
148 0.000616
149 0.000609
150 0.000605
151 0.000600
152 0.000597
153 0.000599
154 0.000601
155 0.000603
156 0.000606
157 0.000607
158 0.000609
159 0.000613
160 0.000613
161 0.000613
162 0.000613
163 0.000608
164 0.000607
165 0.000605
166 0.000601
167 0.000599
168 0.000597
169 0.000597
170 0.000598
171 0.000599
172 0.000601
173 0.000606
174 0.000607
175 0.000606
176 0.000603
177 0.000599
178 0.000600
179 0.000596
180 0.000596
181 0.000598
182 0.000600
183 0.000599
184 0.000597
185 0.000595
186 0.000593
187 0.000588
188 0.000584
189 0.000579
190 0.000576
191 0.000572
192 0.000572
193 0.000572
194 0.000572
195 0.000571
196 0.000569
197 0.000565
198 0.000561
199 0.000553
200 0.000549
201 0.000543
202 0.000541
203 0.000540
204 0.000540
205 0.000542
206 0.000544
207 0.000547
208 0.000549
209 0.000547
210 0.000543
211 0.000537
212 0.000529
213 0.000519
214 0.000511
215 0.000506
216 0.000501
217 0.000497
218 0.000497
219 0.000497
220 0.000497
221 0.000496
222 0.000495
223 0.000491
224 0.000488
225 0.000487
226 0.000489
227 0.000491
228 0.000489
229 0.000488
230 0.000491
231 0.000494
232 0.000497
233 0.000498
234 0.000496
235 0.000494
236 0.000491
237 0.000492
238 0.000493
239 0.000493
240 0.000494
241 0.000493
242 0.000492
243 0.000496
244 0.000499
245 0.000502
246 0.000505
247 0.000508
248 0.000511
249 0.000511
250 0.000510
251 0.000510
252 0.000512
253 0.000515
254 0.000517
255 0.000518
256 0.000520
257 0.000518
258 0.000513
259 0.000507
260 0.000502
261 0.000498
262 0.000490
263 0.000488
264 0.000484
265 0.000478
266 0.000475
267 0.000472
268 0.000469
269 0.000467
270 0.000466
271 0.000462
272 0.000458
273 0.000456
274 0.000456
275 0.000455
276 0.000452
277 0.000456
278 0.000460
279 0.000462
280 0.000463
281 0.000460
282 0.000459
283 0.000459
284 0.000463
285 0.000466
286 0.000467
287 0.000465
288 0.000464
289 0.000464
290 0.000464
291 0.000462
292 0.000463
293 0.000462
294 0.000463
295 0.000464
296 0.000467
297 0.000474
298 0.000476
299 0.000478
300 0.000480
301 0.000483
302 0.000488
303 0.000492
304 0.000494
305 0.000496
306 0.000501
307 0.000501
308 0.000501
309 0.000497
310 0.000492
311 0.000485
312 0.000478
313 0.000475
314 0.000470
315 0.000469
316 0.000469
317 0.000471
318 0.000472
319 0.000470
320 0.000466
321 0.000462
322 0.000458
323 0.000453
324 0.000448
325 0.000447
326 0.000448
327 0.000449
328 0.000451
329 0.000451
330 0.000451
331 0.000451
332 0.000450
333 0.000448
334 0.000445
335 0.000443
336 0.000440
337 0.000440
338 0.000439
339 0.000441
340 0.000441
341 0.000440
342 0.000440
343 0.000437
344 0.000433
345 0.000425
346 0.000418
347 0.000415
348 0.000413
349 0.000412
350 0.000410
351 0.000411
352 0.000412
353 0.000413
354 0.000414
355 0.000413
356 0.000413
357 0.000411
358 0.000406
359 0.000403
360 0.000399
361 0.000397
362 0.000396
363 0.000392
364 0.000389
365 0.000389
366 0.000387
367 0.000388
368 0.000387
369 0.000382
370 0.000379
371 0.000375
372 0.000371
373 0.000370
374 0.000371
375 0.000374
376 0.000374
377 0.000373
378 0.000371
379 0.000372
380 0.000370
381 0.000371
382 0.000369
383 0.000367
384 0.000367
385 0.000366
386 0.000366
387 0.000365
388 0.000366
389 0.000366
390 0.000369
391 0.000373
392 0.000374
393 0.000372
394 0.000364
395 0.000355
396 0.000346
397 0.000338
398 0.000329
399 0.000322
400 0.000315
401 0.000310
402 0.000305
403 0.000305
404 0.000306
405 0.000308
406 0.000309
407 0.000311
408 0.000315
409 0.000314
410 0.000315
411 0.000317
412 0.000325
413 0.000334
414 0.000341
415 0.000343
416 0.000344
417 0.000347
418 0.000349
419 0.000352
420 0.000353
421 0.000354
422 0.000354
423 0.000353
424 0.000351
425 0.000349
426 0.000346
427 0.000343
428 0.000339
429 0.000338
430 0.000341
431 0.000342
432 0.000338
433 0.000337
434 0.000334
435 0.000328
436 0.000323
437 0.000321
438 0.000321
439 0.000325
440 0.000326
441 0.000328
442 0.000329
443 0.000331
444 0.000329
445 0.000325
446 0.000321
447 0.000317
448 0.000311
449 0.000304
450 0.000299
451 0.000297
452 0.000298
453 0.000300
454 0.000296
455 0.000293
456 0.000290
457 0.000289
458 0.000288
459 0.000288
460 0.000288
461 0.000290
462 0.000293
463 0.000298
464 0.000303
465 0.000305
466 0.000305
467 0.000303
468 0.000301
469 0.000298
470 0.000296
471 0.000293
472 0.000291
473 0.000289
474 0.000284
475 0.000280
476 0.000279
477 0.000277
478 0.000277
479 0.000275
480 0.000272
481 0.000269
482 0.000267
483 0.000264
484 0.000262
485 0.000260
486 0.000259
487 0.000259
488 0.000261
489 0.000264
490 0.000265
491 0.000267
492 0.000268
493 0.000267
494 0.000268
495 0.000272
496 0.000273
497 0.000272
498 0.000271
499 0.000272
500 0.000273
501 0.000273
502 0.000271
503 0.000272
504 0.000273
505 0.000273
506 0.000269
507 0.000266
508 0.000262
509 0.000260
510 0.000259
511 0.000259
512 0.000259
513 0.000258
514 0.000258
515 0.000257
516 0.000255
517 0.000258
518 0.000258
519 0.000257
520 0.000252
521 0.000250
522 0.000247
523 0.000248
524 0.000249
525 0.000251
526 0.000255
527 0.000255
528 0.000255
529 0.000256
530 0.000256
531 0.000256
532 0.000253
533 0.000252
534 0.000253
535 0.000256
536 0.000258
537 0.000259
538 0.000260
539 0.000257
540 0.000256
541 0.000256
542 0.000253
543 0.000252
544 0.000249
545 0.000250
546 0.000253
547 0.000256
548 0.000258
549 0.000260
550 0.000262
551 0.000264
552 0.000262
553 0.000263
554 0.000262
555 0.000260
556 0.000256
557 0.000256
558 0.000254
559 0.000253
560 0.000253
561 0.000249
562 0.000246
563 0.000246
564 0.000247
565 0.000250
566 0.000251
567 0.000252
568 0.000253
569 0.000255
570 0.000254
571 0.000253
572 0.000253
573 0.000254
574 0.000258
575 0.000263
576 0.000266
577 0.000269
578 0.000270
579 0.000270
580 0.000270
581 0.000272
582 0.000274
583 0.000277
584 0.000283
585 0.000286
586 0.000290
587 0.000294
588 0.000297
589 0.000298
590 0.000296
591 0.000294
592 0.000289
593 0.000284
594 0.000282
595 0.000282
596 0.000285
597 0.000285
598 0.000287
599 0.000289
600 0.000296
601 0.000299
602 0.000301
603 0.000303
604 0.000300
605 0.000300
606 0.000298
607 0.000297
608 0.000296
609 0.000291
610 0.000287
611 0.000285
612 0.000284
613 0.000283
614 0.000283
615 0.000284
616 0.000286
617 0.000287
618 0.000289
619 0.000291
620 0.000290
621 0.000288
622 0.000289
623 0.000290
624 0.000291
625 0.000290
626 0.000288
627 0.000286
628 0.000282
629 0.000278
630 0.000276
631 0.000274
632 0.000272
633 0.000270
634 0.000270
635 0.000269
636 0.000270
637 0.000270
638 0.000270
639 0.000269
640 0.000266
641 0.000264
642 0.000260
643 0.000257
644 0.000252
645 0.000252
646 0.000252
647 0.000253
648 0.000254
649 0.000257
650 0.000257
651 0.000256
652 0.000256
653 0.000255
654 0.000255
655 0.000253
656 0.000253
657 0.000252
658 0.000250
659 0.000248
660 0.000249
661 0.000249
662 0.000246
663 0.000244
664 0.000242
665 0.000240
666 0.000236
667 0.000232
668 0.000229
669 0.000226
670 0.000222
671 0.000217
672 0.000214
673 0.000211
674 0.000208
675 0.000206
676 0.000205
677 0.000203
678 0.000200
679 0.000198
680 0.000194
681 0.000191
682 0.000185
683 0.000183
684 0.000180
685 0.000178
686 0.000175
687 0.000174
688 0.000170
689 0.000168
690 0.000167
691 0.000166
692 0.000167
693 0.000165
694 0.000164
695 0.000166
696 0.000167
697 0.000169
698 0.000169
699 0.000169
700 0.000168
701 0.000166
702 0.000161
703 0.000157
704 0.000152
705 0.000148
706 0.000145
707 0.000144
708 0.000145
709 0.000145
710 0.000145
711 0.000145
712 0.000143
713 0.000144
714 0.000143
715 0.000141
716 0.000142
717 0.000144
718 0.000146
719 0.000150
720 0.000150
721 0.000150
722 0.000150
723 0.000149
724 0.000147
725 0.000146
726 0.000147
727 0.000148
728 0.000148
729 0.000149
730 0.000150
731 0.000153
732 0.000155
733 0.000157
734 0.000157
735 0.000157
736 0.000160
737 0.000160
738 0.000161
739 0.000160
740 0.000161
741 0.000161
742 0.000161
743 0.000163
744 0.000162
745 0.000164
746 0.000166
747 0.000166
748 0.000166
749 0.000167
750 0.000168
751 0.000167
752 0.000164
753 0.000163
754 0.000160
755 0.000159
756 0.000159
757 0.000160
758 0.000161
759 0.000164
760 0.000165
761 0.000166
762 0.000168
763 0.000168
764 0.000165
765 0.000164
766 0.000164
767 0.000164
768 0.000163
769 0.000163
770 0.000164
771 0.000164
772 0.000165
773 0.000164
774 0.000164
775 0.000162
776 0.000162
777 0.000162
778 0.000161
779 0.000161
780 0.000161
781 0.000161
782 0.000159
783 0.000158
784 0.000158
785 0.000156
786 0.000155
787 0.000152
788 0.000149
789 0.000145
790 0.000141
791 0.000137
792 0.000134
793 0.000133
794 0.000131
795 0.000131
796 0.000134
797 0.000134
798 0.000136
799 0.000136
800 0.000135
801 0.000134
802 0.000132
803 0.000130
804 0.000129
805 0.000129
806 0.000129
807 0.000129
808 0.000131
809 0.000131
