# i correlation
1 0.001490
2 0.001457
3 0.001425
4 0.001399
5 0.001374
6 0.001356
7 0.001340
8 0.001323
9 0.001308
10 0.001294
11 0.001281
12 0.001267
13 0.001255
14 0.001247
15 0.001238
16 0.001228
17 0.001219
18 0.001211
19 0.001202
20 0.001196
21 0.001191
22 0.001185
23 0.001179
24 0.001176
25 0.001172
26 0.001169
27 0.001165
28 0.001162
29 0.001156
30 0.001151
31 0.001147
32 0.001138
33 0.001129
34 0.001121
35 0.001114
36 0.001110
37 0.001105
38 0.001101
39 0.001097
40 0.001092
41 0.001089
42 0.001085
43 0.001086
44 0.001087
45 0.001088
46 0.001089
47 0.001092
48 0.001095
49 0.001095
50 0.001094
51 0.001091
52 0.001091
53 0.001088
54 0.001087
55 0.001085
56 0.001082
57 0.001074
58 0.001063
59 0.001051
60 0.001038
61 0.001027
62 0.001020
63 0.001016
64 0.001009
65 0.001003
66 0.000997
67 0.000994
68 0.000986
69 0.000981
70 0.000976
71 0.000970
72 0.000961
73 0.000953
74 0.000948
75 0.000945
76 0.000942
77 0.000938
78 0.000937
79 0.000934
80 0.000933
81 0.000932
82 0.000930
83 0.000926
84 0.000926
85 0.000924
86 0.000925
87 0.000923
88 0.000923
89 0.000922
90 0.000916
91 0.000912
92 0.000905
93 0.000900
94 0.000895
95 0.000892
96 0.000887
97 0.000883
98 0.000880
99 0.000877
100 0.000877
101 0.000878
102 0.000880
103 0.000880
104 0.000880
105 0.000883
106 0.000882
107 0.000879
108 0.000876
109 0.000871
110 0.000866
111 0.000862
112 0.000856
113 0.000853
114 0.000850
115 0.000850
116 0.000849
117 0.000848
118 0.000847
119 0.000848
120 0.000846
121 0.000845
122 0.000846
123 0.000848
124 0.000850
125 0.000851
126 0.000852
127 0.000849
128 0.000847
129 0.000843
130 0.000841
131 0.000840
132 0.000842
133 0.000841
134 0.000837
135 0.000834
136 0.000830
137 0.000824
138 0.000817
139 0.000811
140 0.000807
141 0.000802
142 0.000797
143 0.000795
144 0.000792
145 0.000790
146 0.000788
147 0.000784
148 0.000780
149 0.000780
150 0.000778
151 0.000774
152 0.000772
153 0.000768
154 0.000764
155 0.000759
156 0.000756
157 0.000752
158 0.000746
159 0.000742
160 0.000737
161 0.000733
162 0.000730
163 0.000724
164 0.000723
165 0.000721
166 0.000722
167 0.000721
168 0.000721
169 0.000720
170 0.000720
171 0.000724
172 0.000729
173 0.000735
174 0.000741
175 0.000745
176 0.000751
177 0.000756
178 0.000760
179 0.000765
180 0.000773
181 0.000780
182 0.000783
183 0.000784
184 0.000780
185 0.000773
186 0.000766
187 0.000759
188 0.000752
189 0.000747
190 0.000742
191 0.000740
192 0.000737
193 0.000732
194 0.000728
195 0.000723
196 0.000717
197 0.000714
198 0.000717
199 0.000716
200 0.000714
201 0.000712
202 0.000710
203 0.000709
204 0.000708
205 0.000703
206 0.000698
207 0.000693
208 0.000689
209 0.000685
210 0.000683
211 0.000681
212 0.000679
213 0.000674
214 0.000668
215 0.000662
216 0.000655
217 0.000647
218 0.000639
219 0.000634
220 0.000630
221 0.000629
222 0.000630
223 0.000633
224 0.000635
225 0.000639
226 0.000643
227 0.000648
228 0.000654
229 0.000658
230 0.000663
231 0.000667
232 0.000672
233 0.000679
234 0.000685
235 0.000692
236 0.000693
237 0.000693
238 0.000690
239 0.000687
240 0.000683
241 0.000679
242 0.000670
243 0.000663
244 0.000653
245 0.000648
246 0.000641
247 0.000637
248 0.000635
249 0.000634
250 0.000634
251 0.000631
252 0.000628
253 0.000625
254 0.000621
255 0.000619
256 0.000614
257 0.000612
258 0.000609
259 0.000606
260 0.000603
261 0.000602
262 0.000599
263 0.000596
264 0.000591
265 0.000588
266 0.000586
267 0.000585
268 0.000583
269 0.000583
270 0.000578
271 0.000574
272 0.000569
273 0.000564
274 0.000560
275 0.000559
276 0.000559
277 0.000557
278 0.000556
279 0.000557
280 0.000560
281 0.000564
282 0.000568
283 0.000573
284 0.000576
285 0.000579
286 0.000584
287 0.000590
288 0.000595
289 0.000601
290 0.000606
291 0.000609
292 0.000609
293 0.000610
294 0.000607
295 0.000604
296 0.000599
297 0.000599
298 0.000596
299 0.000593
300 0.000590
301 0.000585
302 0.000583
303 0.000582
304 0.000582
305 0.000582
306 0.000582
307 0.000581
308 0.000579
309 0.000577
310 0.000572
311 0.000568
312 0.000564
313 0.000560
314 0.000560
315 0.000561
316 0.000562
317 0.000563
318 0.000565
319 0.000566
320 0.000564
321 0.000561
322 0.000556
323 0.000552
324 0.000550
325 0.000550
326 0.000548
327 0.000547
328 0.000547
329 0.000543
330 0.000541
331 0.000538
332 0.000535
333 0.000533
334 0.000531
335 0.000531
336 0.000533
337 0.000532
338 0.000531
339 0.000529
340 0.000528
341 0.000527
342 0.000524
343 0.000521
344 0.000515
345 0.000508
346 0.000503
347 0.000501
348 0.000497
349 0.000495
350 0.000495
351 0.000495
352 0.000493
353 0.000495
354 0.000495
355 0.000494
356 0.000496
357 0.000498
358 0.000499
359 0.000500
360 0.000503
361 0.000504
362 0.000503
363 0.000502
364 0.000500
365 0.000497
366 0.000493
367 0.000490
368 0.000484
369 0.000477
370 0.000470
371 0.000468
372 0.000466
373 0.000465
374 0.000464
375 0.000463
376 0.000460
377 0.000459
378 0.000458
379 0.000454
380 0.000456
381 0.000460
382 0.000462
383 0.000462
384 0.000464
385 0.000464
386 0.000465
387 0.000464
388 0.000462
389 0.000458
390 0.000456
391 0.000454
392 0.000454
393 0.000453
394 0.000451
395 0.000449
396 0.000446
397 0.000442
398 0.000440
399 0.000439
400 0.000440
401 0.000438
402 0.000436
403 0.000432
404 0.000431
405 0.000431
406 0.000433
407 0.000435
408 0.000437
409 0.000443
410 0.000448
411 0.000451
412 0.000454
413 0.000458
414 0.000465
415 0.000468
416 0.000472
417 0.000473
418 0.000472
419 0.000469
420 0.000467
421 0.000464
422 0.000461
423 0.000459
424 0.000457
425 0.000459
426 0.000460
427 0.000463
428 0.000464
429 0.000466
430 0.000468
431 0.000468
432 0.000468
433 0.000467
434 0.000463
435 0.000460
436 0.000458
437 0.000458
438 0.000458
439 0.000458
440 0.000458
441 0.000458
442 0.000458
443 0.000458
444 0.000457
445 0.000454
446 0.000446
447 0.000444
448 0.000443
449 0.000442
450 0.000439
451 0.000435
452 0.000430
453 0.000424
454 0.000416
455 0.000411
456 0.000406
457 0.000403
458 0.000398
459 0.000395
460 0.000393
461 0.000392
462 0.000390
463 0.000389
464 0.000387
465 0.000386
466 0.000387
467 0.000389
468 0.000392
469 0.000393
470 0.000395
471 0.000397
472 0.000398
473 0.000398
474 0.000397
475 0.000395
476 0.000396
477 0.000397
478 0.000399
479 0.000402
480 0.000402
481 0.000405
482 0.000407
483 0.000409
484 0.000410
485 0.000414
486 0.000418
487 0.000420
488 0.000422
489 0.000425
490 0.000426
491 0.000424
492 0.000423
493 0.000423
494 0.000421
495 0.000420
496 0.000420
497 0.000422
498 0.000425
499 0.000427
500 0.000429
501 0.000426
502 0.000423
503 0.000420
504 0.000419
505 0.000419
506 0.000420
507 0.000420
508 0.000417
509 0.000413
510 0.000407
511 0.000401
512 0.000397
513 0.000396
514 0.000396
515 0.000398
516 0.000399
517 0.000402
518 0.000403
519 0.000406
520 0.000407
521 0.000406
522 0.000404
523 0.000402
524 0.000399
525 0.000398
526 0.000398
527 0.000395
528 0.000392
529 0.000391
530 0.000392
531 0.000392
532 0.000393
533 0.000395
534 0.000398
535 0.000400
536 0.000401
537 0.000402
538 0.000403
539 0.000401
540 0.000398
541 0.000396
542 0.000396
543 0.000396
544 0.000395
545 0.000395
546 0.000392
547 0.000386
548 0.000383
549 0.000380
550 0.000376
551 0.000371
552 0.000366
553 0.000361
554 0.000357
555 0.000352
556 0.000348
557 0.000344
558 0.000339
559 0.000332
560 0.000328
561 0.000324
562 0.000323
563 0.000323
564 0.000323
565 0.000323
566 0.000323
567 0.000323
568 0.000322
569 0.000322
570 0.000321
571 0.000320
572 0.000317
573 0.000315
574 0.000312
575 0.000309
576 0.000309
577 0.000304
578 0.000302
579 0.000298
580 0.000294
581 0.000292
582 0.000290
583 0.000287
584 0.000286
585 0.000285
586 0.000285
587 0.000286
588 0.000287
589 0.000287
590 0.000286
591 0.000285
592 0.000284
593 0.000285
594 0.000286
595 0.000286
596 0.000286
597 0.000285
598 0.000282
599 0.000278
600 0.000276
601 0.000273
602 0.000268
603 0.000263
604 0.000259
605 0.000255
606 0.000251
607 0.000249
608 0.000248
609 0.000249
610 0.000251
611 0.000253
612 0.000256
613 0.000257
614 0.000259
615 0.000259
616 0.000260
617 0.000263
618 0.000266
619 0.000268
620 0.000268
621 0.000269
622 0.000272
623 0.000274
624 0.000276
625 0.000277
626 0.000277
627 0.000276
628 0.000275
629 0.000272
630 0.000268
631 0.000263
632 0.000259
633 0.000259
634 0.000258
635 0.000259
636 0.000260
637 0.000260
638 0.000259
639 0.000258
640 0.000259
641 0.000259
642 0.000259
643 0.000261
644 0.000262
645 0.000262
646 0.000260
647 0.000259
648 0.000259
649 0.000261
650 0.000263
651 0.000267
652 0.000268
653 0.000270
654 0.000270
655 0.000270
656 0.000267
657 0.000265
658 0.000262
659 0.000259
660 0.000259
661 0.000258
662 0.000257
663 0.000254
664 0.000254
665 0.000254
666 0.000255
667 0.000257
668 0.000257
669 0.000256
670 0.000256
671 0.000257
672 0.000257
673 0.000257
674 0.000253
675 0.000253
676 0.000252
677 0.000252
678 0.000251
679 0.000253
680 0.000254
681 0.000257
682 0.000259
683 0.000259
684 0.000257
685 0.000254
686 0.000250
687 0.000246
688 0.000242
689 0.000239
690 0.000236
691 0.000234
692 0.000232
693 0.000228
694 0.000222
695 0.000215
696 0.000210
697 0.000207
698 0.000206
699 0.000204
700 0.000203
701 0.000200
702 0.000198
703 0.000197
704 0.000197
705 0.000195
706 0.000196
707 0.000196
708 0.000195
709 0.000192
710 0.000191
711 0.000191
712 0.000190
713 0.000190
714 0.000190
715 0.000189
716 0.000190
717 0.000191
718 0.000192
719 0.000194
720 0.000196
721 0.000197
722 0.000196
723 0.000196
724 0.000197
725 0.000198
726 0.000198
727 0.000198
728 0.000198
729 0.000198
730 0.000198
731 0.000199
732 0.000200
733 0.000200
734 0.000200
735 0.000200
736 0.000198
737 0.000197
738 0.000195
739 0.000192
740 0.000190
741 0.000189
742 0.000190
743 0.000189
744 0.000187
745 0.000184
746 0.000184
747 0.000186
748 0.000188
749 0.000188
750 0.000186
751 0.000183
752 0.000180
753 0.000176
754 0.000174
755 0.000172
756 0.000170
757 0.000168
758 0.000166
759 0.000165
760 0.000164
761 0.000164
762 0.000163
763 0.000160
764 0.000156
765 0.000154
766 0.000151
767 0.000152
768 0.000155
769 0.000158
770 0.000159
771 0.000160
772 0.000160
773 0.000161
774 0.000160
775 0.000161
776 0.000161
777 0.000159
778 0.000158
779 0.000156
780 0.000154
781 0.000151
782 0.000147
783 0.000144
784 0.000141
785 0.000139
786 0.000138
787 0.000137
788 0.000136
789 0.000134
790 0.000132
791 0.000131
792 0.000130
793 0.000128
794 0.000127
795 0.000127
796 0.000124
797 0.000123
798 0.000123
799 0.000122
800 0.000121
801 0.000120
802 0.000119
803 0.000118
804 0.000117
805 0.000115
806 0.000115
807 0.000114
808 0.000114
809 0.000114
