# i correlation
1 0.001644
2 0.001604
3 0.001570
4 0.001539
5 0.001516
6 0.001497
7 0.001476
8 0.001456
9 0.001441
10 0.001429
11 0.001418
12 0.001404
13 0.001396
14 0.001387
15 0.001380
16 0.001375
17 0.001365
18 0.001356
19 0.001346
20 0.001337
21 0.001329
22 0.001321
23 0.001311
24 0.001298
25 0.001288
26 0.001280
27 0.001276
28 0.001271
29 0.001268
30 0.001267
31 0.001265
32 0.001258
33 0.001247
34 0.001237
35 0.001230
36 0.001224
37 0.001222
38 0.001221
39 0.001216
40 0.001212
41 0.001208
42 0.001208
43 0.001206
44 0.001206
45 0.001202
46 0.001199
47 0.001194
48 0.001187
49 0.001179
50 0.001169
51 0.001160
52 0.001152
53 0.001145
54 0.001138
55 0.001133
56 0.001129
57 0.001123
58 0.001117
59 0.001112
60 0.001112
61 0.001104
62 0.001103
63 0.001099
64 0.001096
65 0.001095
66 0.001089
67 0.001084
68 0.001083
69 0.001085
70 0.001083
71 0.001079
72 0.001072
73 0.001068
74 0.001067
75 0.001067
76 0.001064
77 0.001062
78 0.001060
79 0.001060
80 0.001061
81 0.001061
82 0.001059
83 0.001057
84 0.001054
85 0.001053
86 0.001046
87 0.001041
88 0.001036
89 0.001031
90 0.001025
91 0.001022
92 0.001017
93 0.001013
94 0.001009
95 0.001008
96 0.001005
97 0.001000
98 0.000992
99 0.000986
100 0.000987
101 0.000982
102 0.000976
103 0.000966
104 0.000952
105 0.000939
106 0.000929
107 0.000923
108 0.000920
109 0.000917
110 0.000915
111 0.000915
112 0.000916
113 0.000920
114 0.000920
115 0.000919
116 0.000915
117 0.000912
118 0.000906
119 0.000899
120 0.000891
121 0.000885
122 0.000881
123 0.000880
124 0.000881
125 0.000884
126 0.000888
127 0.000892
128 0.000895
129 0.000894
130 0.000890
131 0.000886
132 0.000881
133 0.000879
134 0.000877
135 0.000873
136 0.000866
137 0.000859
138 0.000855
139 0.000851
140 0.000850
141 0.000845
142 0.000838
143 0.000832
144 0.000831
145 0.000833
146 0.000832
147 0.000831
148 0.000830
149 0.000827
150 0.000818
151 0.000809
152 0.000797
153 0.000784
154 0.000775
155 0.000770
156 0.000763
157 0.000759
158 0.000753
159 0.000745
160 0.000740
161 0.000734
162 0.000731
163 0.000725
164 0.000719
165 0.000717
166 0.000717
167 0.000715
168 0.000712
169 0.000707
170 0.000705
171 0.000707
172 0.000705
173 0.000705
174 0.000696
175 0.000691
176 0.000688
177 0.000682
178 0.000679
179 0.000679
180 0.000678
181 0.000679
182 0.000679
183 0.000678
184 0.000678
185 0.000677
186 0.000674
187 0.000671
188 0.000667
189 0.000662
190 0.000656
191 0.000653
192 0.000651
193 0.000650
194 0.000649
195 0.000647
196 0.000644
197 0.000642
198 0.000637
199 0.000631
200 0.000623
201 0.000616
202 0.000610
203 0.000604
204 0.000600
205 0.000594
206 0.000589
207 0.000580
208 0.000576
209 0.000576
210 0.000575
211 0.000576
212 0.000578
213 0.000583
214 0.000589
215 0.000595
216 0.000592
217 0.000593
218 0.000591
219 0.000589
220 0.000588
221 0.000586
222 0.000587
223 0.000588
224 0.000588
225 0.000590
226 0.000590
227 0.000589
228 0.000591
229 0.000591
230 0.000590
231 0.000590
232 0.000592
233 0.000591
234 0.000587
235 0.000584
236 0.000581
237 0.000575
238 0.000569
239 0.000564
240 0.000566
241 0.000571
242 0.000572
243 0.000573
244 0.000571
245 0.000567
246 0.000567
247 0.000569
248 0.000572
249 0.000572
250 0.000570
251 0.000570
252 0.000569
253 0.000568
254 0.000568
255 0.000567
256 0.000566
257 0.000567
258 0.000568
259 0.000567
260 0.000568
261 0.000571
262 0.000573
263 0.000573
264 0.000574
265 0.000574
266 0.000574
267 0.000571
268 0.000571
269 0.000570
270 0.000573
271 0.000574
272 0.000575
273 0.000577
274 0.000576
275 0.000575
276 0.000575
277 0.000572
278 0.000567
279 0.000564
280 0.000560
281 0.000554
282 0.000547
283 0.000540
284 0.000535
285 0.000530
286 0.000524
287 0.000519
288 0.000515
289 0.000509
290 0.000506
291 0.000499
292 0.000492
293 0.000489
294 0.000493
295 0.000496
296 0.000503
297 0.000506
298 0.000507
299 0.000507
300 0.000514
301 0.000518
302 0.000516
303 0.000513
304 0.000506
305 0.000499
306 0.000498
307 0.000498
308 0.000497
309 0.000498
310 0.000500
311 0.000501
312 0.000502
313 0.000504
314 0.000505
315 0.000506
316 0.000508
317 0.000515
318 0.000514
319 0.000510
320 0.000506
321 0.000502
322 0.000498
323 0.000495
324 0.000491
325 0.000488
326 0.000485
327 0.000483
328 0.000487
329 0.000489
330 0.000492
331 0.000492
332 0.000489
333 0.000487
334 0.000483
335 0.000479
336 0.000475
337 0.000470
338 0.000466
339 0.000463
340 0.000462
341 0.000463
342 0.000463
343 0.000462
344 0.000463
345 0.000464
346 0.000462
347 0.000460
348 0.000456
349 0.000456
350 0.000457
351 0.000459
352 0.000458
353 0.000456
354 0.000454
355 0.000455
356 0.000455
357 0.000458
358 0.000462
359 0.000466
360 0.000469
361 0.000474
362 0.000476
363 0.000479
364 0.000479
365 0.000483
366 0.000485
367 0.000484
368 0.000482
369 0.000480
370 0.000479
371 0.000474
372 0.000473
373 0.000471
374 0.000471
375 0.000468
376 0.000468
377 0.000469
378 0.000468
379 0.000468
380 0.000470
381 0.000472
382 0.000473
383 0.000472
384 0.000468
385 0.000466
386 0.000463
387 0.000459
388 0.000458
389 0.000457
390 0.000456
391 0.000458
392 0.000460
393 0.000462
394 0.000460
395 0.000459
396 0.000461
397 0.000464
398 0.000467
399 0.000468
400 0.000466
401 0.000465
402 0.000463
403 0.000462
404 0.000460
405 0.000457
406 0.000455
407 0.000455
408 0.000455
409 0.000455
410 0.000454
411 0.000454
412 0.000455
413 0.000457
414 0.000459
415 0.000455
416 0.000449
417 0.000442
418 0.000432
419 0.000427
420 0.000421
421 0.000417
422 0.000410
423 0.000405
424 0.000402
425 0.000400
426 0.000401
427 0.000403
428 0.000408
429 0.000411
430 0.000416
431 0.000415
432 0.000412
433 0.000406
434 0.000404
435 0.000400
436 0.000398
437 0.000393
438 0.000389
439 0.000386
440 0.000382
441 0.000381
442 0.000382
443 0.000384
444 0.000385
445 0.000390
446 0.000393
447 0.000395
448 0.000394
449 0.000391
450 0.000389
451 0.000390
452 0.000392
453 0.000393
454 0.000392
455 0.000395
456 0.000397
457 0.000400
458 0.000406
459 0.000409
460 0.000409
461 0.000410
462 0.000413
463 0.000417
464 0.000414
465 0.000413
466 0.000410
467 0.000407
468 0.000405
469 0.000405
470 0.000400
471 0.000397
472 0.000396
473 0.000394
474 0.000394
475 0.000395
476 0.000394
477 0.000390
478 0.000388
479 0.000387
480 0.000385
481 0.000386
482 0.000387
483 0.000388
484 0.000384
485 0.000381
486 0.000375
487 0.000370
488 0.000366
489 0.000363
490 0.000363
491 0.000363
492 0.000361
493 0.000364
494 0.000369
495 0.000372
496 0.000374
497 0.000374
498 0.000376
499 0.000376
500 0.000374
501 0.000373
502 0.000372
503 0.000371
504 0.000373
505 0.000375
506 0.000374
507 0.000375
508 0.000373
509 0.000374
510 0.000376
511 0.000379
512 0.000383
513 0.000387
514 0.000391
515 0.000390
516 0.000389
517 0.000390
518 0.000388
519 0.000384
520 0.000383
521 0.000382
522 0.000379
523 0.000379
524 0.000375
525 0.000373
526 0.000373
527 0.000371
528 0.000371
529 0.000370
530 0.000371
531 0.000373
532 0.000373
533 0.000372
534 0.000370
535 0.000365
536 0.000362
537 0.000358
538 0.000354
539 0.000352
540 0.000349
541 0.000350
542 0.000353
543 0.000356
544 0.000357
545 0.000358
546 0.000355
547 0.000351
548 0.000348
549 0.000346
550 0.000345
551 0.000344
552 0.000343
553 0.000344
554 0.000344
555 0.000347
556 0.000348
557 0.000346
558 0.000346
559 0.000344
560 0.000341
561 0.000339
562 0.000337
563 0.000334
564 0.000332
565 0.000330
566 0.000327
567 0.000320
568 0.000313
569 0.000308
570 0.000306
571 0.000305
572 0.000304
573 0.000307
574 0.000311
575 0.000312
576 0.000315
577 0.000318
578 0.000322
579 0.000324
580 0.000323
581 0.000319
582 0.000316
583 0.000314
584 0.000310
585 0.000307
586 0.000306
587 0.000304
588 0.000301
589 0.000298
590 0.000295
591 0.000294
592 0.000292
593 0.000290
594 0.000289
595 0.000289
596 0.000292
597 0.000294
598 0.000297
599 0.000297
600 0.000297
601 0.000298
602 0.000300
603 0.000300
604 0.000300
605 0.000299
606 0.000298
607 0.000297
608 0.000295
609 0.000293
610 0.000289
611 0.000288
612 0.000284
613 0.000280
614 0.000278
615 0.000276
616 0.000275
617 0.000275
618 0.000277
619 0.000274
620 0.000271
621 0.000269
622 0.000267
623 0.000266
624 0.000264
625 0.000263
626 0.000261
627 0.000264
628 0.000267
629 0.000272
630 0.000276
631 0.000279
632 0.000282
633 0.000283
634 0.000285
635 0.000287
636 0.000289
637 0.000287
638 0.000287
639 0.000289
640 0.000291
641 0.000292
642 0.000295
643 0.000298
644 0.000299
645 0.000300
646 0.000301
647 0.000300
648 0.000300
649 0.000298
650 0.000295
651 0.000293
652 0.000292
653 0.000292
654 0.000293
655 0.000291
656 0.000288
657 0.000285
658 0.000284
659 0.000284
660 0.000285
661 0.000287
662 0.000287
663 0.000283
664 0.000277
665 0.000272
666 0.000269
667 0.000266
668 0.000262
669 0.000261
670 0.000260
671 0.000261
672 0.000260
673 0.000261
674 0.000261
675 0.000261
676 0.000259
677 0.000260
678 0.000264
679 0.000269
680 0.000276
681 0.000277
682 0.000277
683 0.000276
684 0.000275
685 0.000273
686 0.000270
687 0.000270
688 0.000270
689 0.000271
690 0.000270
691 0.000272
692 0.000273
693 0.000275
694 0.000274
695 0.000269
696 0.000267
697 0.000265
698 0.000263
699 0.000262
700 0.000262
701 0.000260
702 0.000260
703 0.000260
704 0.000261
705 0.000259
706 0.000259
707 0.000257
708 0.000255
709 0.000254
710 0.000256
711 0.000256
712 0.000256
713 0.000257
714 0.000257
715 0.000258
716 0.000260
717 0.000262
718 0.000263
719 0.000264
720 0.000261
721 0.000258
722 0.000258
723 0.000260
724 0.000264
725 0.000266
726 0.000268
727 0.000269
728 0.000270
729 0.000274
730 0.000277
731 0.000281
732 0.000283
733 0.000281
734 0.000278
735 0.000278
736 0.000276
737 0.000276
738 0.000272
739 0.000269
740 0.000266
741 0.000261
742 0.000259
743 0.000258
744 0.000256
745 0.000258
746 0.000259
747 0.000260
748 0.000259
749 0.000256
750 0.000249
751 0.000242
752 0.000232
753 0.000225
754 0.000219
755 0.000215
756 0.000213
757 0.000208
758 0.000204
759 0.000201
760 0.000198
761 0.000194
762 0.000192
763 0.000189
764 0.000188
765 0.000186
766 0.000185
767 0.000183
768 0.000181
769 0.000181
770 0.000181
771 0.000181
772 0.000183
773 0.000183
774 0.000183
775 0.000186
776 0.000187
777 0.000186
778 0.000186
779 0.000183
780 0.000178
781 0.000175
782 0.000172
783 0.000171
784 0.000168
785 0.000166
786 0.000164
787 0.000163
788 0.000165
789 0.000165
790 0.000163
791 0.000165
792 0.000166
793 0.000170
794 0.000173
795 0.000172
796 0.000169
797 0.000167
798 0.000163
799 0.000161
800 0.000160
801 0.000160
802 0.000159
803 0.000158
804 0.000157
805 0.000156
806 0.000159
807 0.000161
808 0.000162
809 0.000162
