# i correlation
1 0.001519
2 0.001487
3 0.001456
4 0.001429
5 0.001408
6 0.001389
7 0.001372
8 0.001359
9 0.001343
10 0.001330
11 0.001319
12 0.001307
13 0.001296
14 0.001291
15 0.001283
16 0.001277
17 0.001268
18 0.001259
19 0.001250
20 0.001245
21 0.001237
22 0.001230
23 0.001221
24 0.001211
25 0.001205
26 0.001198
27 0.001187
28 0.001178
29 0.001174
30 0.001168
31 0.001162
32 0.001154
33 0.001141
34 0.001127
35 0.001112
36 0.001099
37 0.001085
38 0.001070
39 0.001054
40 0.001040
41 0.001028
42 0.001017
43 0.001010
44 0.001001
45 0.000993
46 0.000987
47 0.000983
48 0.000981
49 0.000977
50 0.000978
51 0.000978
52 0.000976
53 0.000972
54 0.000968
55 0.000965
56 0.000965
57 0.000968
58 0.000969
59 0.000967
60 0.000965
61 0.000960
62 0.000957
63 0.000953
64 0.000944
65 0.000938
66 0.000929
67 0.000924
68 0.000915
69 0.000906
70 0.000898
71 0.000890
72 0.000883
73 0.000878
74 0.000875
75 0.000872
76 0.000872
77 0.000870
78 0.000865
79 0.000857
80 0.000851
81 0.000850
82 0.000848
83 0.000844
84 0.000840
85 0.000837
86 0.000833
87 0.000832
88 0.000832
89 0.000831
90 0.000825
91 0.000822
92 0.000818
93 0.000816
94 0.000814
95 0.000814
96 0.000813
97 0.000815
98 0.000815
99 0.000814
100 0.000810
101 0.000802
102 0.000797
103 0.000792
104 0.000789
105 0.000785
106 0.000782
107 0.000781
108 0.000779
109 0.000776
110 0.000772
111 0.000766
112 0.000762
113 0.000760
114 0.000757
115 0.000753
116 0.000749
117 0.000747
118 0.000745
119 0.000743
120 0.000742
121 0.000740
122 0.000736
123 0.000732
124 0.000728
125 0.000726
126 0.000724
127 0.000721
128 0.000720
129 0.000718
130 0.000716
131 0.000710
132 0.000702
133 0.000698
134 0.000695
135 0.000695
136 0.000695
137 0.000693
138 0.000690
139 0.000687
140 0.000687
141 0.000685
142 0.000683
143 0.000681
144 0.000680
145 0.000678
146 0.000677
147 0.000676
148 0.000674
149 0.000670
150 0.000669
151 0.000670
152 0.000670
153 0.000667
154 0.000667
155 0.000669
156 0.000670
157 0.000673
158 0.000676
159 0.000677
160 0.000680
161 0.000682
162 0.000684
163 0.000684
164 0.000684
165 0.000683
166 0.000682
167 0.000682
168 0.000681
169 0.000680
170 0.000677
171 0.000677
172 0.000678
173 0.000676
174 0.000676
175 0.000678
176 0.000679
177 0.000679
178 0.000678
179 0.000675
180 0.000672
181 0.000667
182 0.000662
183 0.000659
184 0.000655
185 0.000650
186 0.000646
187 0.000644
188 0.000641
189 0.000636
190 0.000633
191 0.000633
192 0.000634
193 0.000635
194 0.000631
195 0.000628
196 0.000626
197 0.000623
198 0.000620
199 0.000613
200 0.000604
201 0.000600
202 0.000596
203 0.000595
204 0.000594
205 0.000596
206 0.000596
207 0.000600
208 0.000601
209 0.000602
210 0.000600
211 0.000596
212 0.000591
213 0.000587
214 0.000582
215 0.000582
216 0.000578
217 0.000577
218 0.000576
219 0.000574
220 0.000572
221 0.000570
222 0.000570
223 0.000570
224 0.000570
225 0.000572
226 0.000571
227 0.000570
228 0.000569
229 0.000569
230 0.000565
231 0.000560
232 0.000554
233 0.000553
234 0.000554
235 0.000558
236 0.000560
237 0.000560
238 0.000559
239 0.000557
240 0.000551
241 0.000550
242 0.000549
243 0.000549
244 0.000549
245 0.000547
246 0.000542
247 0.000537
248 0.000532
249 0.000529
250 0.000528
251 0.000528
252 0.000524
253 0.000519
254 0.000517
255 0.000516
256 0.000515
257 0.000514
258 0.000514
259 0.000517
260 0.000521
261 0.000526
262 0.000526
263 0.000524
264 0.000521
265 0.000521
266 0.000521
267 0.000525
268 0.000533
269 0.000539
270 0.000543
271 0.000546
272 0.000552
273 0.000557
274 0.000561
275 0.000563
276 0.000564
277 0.000564
278 0.000564
279 0.000565
280 0.000565
281 0.000562
282 0.000560
283 0.000557
284 0.000553
285 0.000553
286 0.000553
287 0.000551
288 0.000550
289 0.000548
290 0.000548
291 0.000548
292 0.000552
293 0.000554
294 0.000557
295 0.000558
296 0.000559
297 0.000560
298 0.000559
299 0.000560
300 0.000561
301 0.000561
302 0.000560
303 0.000563
304 0.000566
305 0.000568
306 0.000568
307 0.000568
308 0.000565
309 0.000561
310 0.000557
311 0.000554
312 0.000549
313 0.000544
314 0.000538
315 0.000532
316 0.000524
317 0.000519
318 0.000515
319 0.000514
320 0.000512
321 0.000510
322 0.000510
323 0.000510
324 0.000512
325 0.000514
326 0.000517
327 0.000517
328 0.000513
329 0.000512
330 0.000510
331 0.000509
332 0.000513
333 0.000517
334 0.000519
335 0.000521
336 0.000526
337 0.000527
338 0.000528
339 0.000528
340 0.000525
341 0.000523
342 0.000520
343 0.000520
344 0.000518
345 0.000517
346 0.000512
347 0.000508
348 0.000501
349 0.000500
350 0.000496
351 0.000492
352 0.000486
353 0.000482
354 0.000474
355 0.000472
356 0.000473
357 0.000473
358 0.000473
359 0.000473
360 0.000470
361 0.000470
362 0.000468
363 0.000467
364 0.000464
365 0.000462
366 0.000458
367 0.000458
368 0.000455
369 0.000452
370 0.000452
371 0.000451
372 0.000449
373 0.000447
374 0.000444
375 0.000439
376 0.000433
377 0.000428
378 0.000421
379 0.000416
380 0.000411
381 0.000409
382 0.000408
383 0.000403
384 0.000401
385 0.000400
386 0.000396
387 0.000396
388 0.000394
389 0.000393
390 0.000392
391 0.000390
392 0.000387
393 0.000384
394 0.000380
395 0.000376
396 0.000375
397 0.000374
398 0.000374
399 0.000373
400 0.000370
401 0.000371
402 0.000373
403 0.000373
404 0.000369
405 0.000366
406 0.000364
407 0.000361
408 0.000358
409 0.000351
410 0.000345
411 0.000335
412 0.000329
413 0.000325
414 0.000321
415 0.000314
416 0.000311
417 0.000309
418 0.000309
419 0.000307
420 0.000307
421 0.000309
422 0.000313
423 0.000316
424 0.000316
425 0.000316
426 0.000316
427 0.000317
428 0.000318
429 0.000318
430 0.000319
431 0.000318
432 0.000317
433 0.000315
434 0.000316
435 0.000316
436 0.000315
437 0.000317
438 0.000318
439 0.000319
440 0.000320
441 0.000317
442 0.000316
443 0.000317
444 0.000322
445 0.000325
446 0.000325
447 0.000325
448 0.000326
449 0.000326
450 0.000325
451 0.000324
452 0.000324
453 0.000327
454 0.000331
455 0.000335
456 0.000335
457 0.000335
458 0.000335
459 0.000336
460 0.000338
461 0.000338
462 0.000337
463 0.000336
464 0.000336
465 0.000336
466 0.000338
467 0.000336
468 0.000333
469 0.000330
470 0.000324
471 0.000319
472 0.000311
473 0.000305
474 0.000301
475 0.000295
476 0.000293
477 0.000291
478 0.000292
479 0.000296
480 0.000301
481 0.000302
482 0.000303
483 0.000303
484 0.000300
485 0.000299
486 0.000298
487 0.000297
488 0.000295
489 0.000291
490 0.000288
491 0.000283
492 0.000278
493 0.000271
494 0.000266
495 0.000263
496 0.000260
497 0.000261
498 0.000259
499 0.000259
500 0.000257
501 0.000256
502 0.000257
503 0.000258
504 0.000258
505 0.000259
506 0.000257
507 0.000255
508 0.000252
509 0.000248
510 0.000248
511 0.000252
512 0.000257
513 0.000261
514 0.000263
515 0.000265
516 0.000266
517 0.000265
518 0.000265
519 0.000263
520 0.000259
521 0.000257
522 0.000256
523 0.000253
524 0.000248
525 0.000245
526 0.000240
527 0.000236
528 0.000234
529 0.000231
530 0.000231
531 0.000231
532 0.000229
533 0.000229
534 0.000229
535 0.000228
536 0.000228
537 0.000231
538 0.000232
539 0.000232
540 0.000233
541 0.000235
542 0.000238
543 0.000242
544 0.000245
545 0.000245
546 0.000245
547 0.000243
548 0.000243
549 0.000241
550 0.000238
551 0.000237
552 0.000237
553 0.000235
554 0.000236
555 0.000236
556 0.000236
557 0.000233
558 0.000231
559 0.000229
560 0.000227
561 0.000225
562 0.000225
563 0.000226
564 0.000228
565 0.000230
566 0.000231
567 0.000232
568 0.000236
569 0.000237
570 0.000240
571 0.000240
572 0.000243
573 0.000246
574 0.000250
575 0.000251
576 0.000251
577 0.000250
578 0.000250
579 0.000248
580 0.000248
581 0.000252
582 0.000251
583 0.000249
584 0.000248
585 0.000248
586 0.000249
587 0.000249
588 0.000249
589 0.000248
590 0.000245
591 0.000239
592 0.000235
593 0.000230
594 0.000231
595 0.000231
596 0.000231
597 0.000232
598 0.000231
599 0.000232
600 0.000233
601 0.000235
602 0.000235
603 0.000235
604 0.000237
605 0.000238
606 0.000243
607 0.000246
608 0.000247
609 0.000246
610 0.000246
611 0.000245
612 0.000244
613 0.000242
614 0.000243
615 0.000245
616 0.000247
617 0.000249
618 0.000249
619 0.000250
620 0.000249
621 0.000250
622 0.000249
623 0.000248
624 0.000247
625 0.000248
626 0.000251
627 0.000251
628 0.000250
629 0.000250
630 0.000248
631 0.000248
632 0.000248
633 0.000249
634 0.000246
635 0.000245
636 0.000245
637 0.000246
638 0.000247
639 0.000246
640 0.000247
641 0.000250
642 0.000251
643 0.000253
644 0.000254
645 0.000252
646 0.000251
647 0.000251
648 0.000251
649 0.000249
650 0.000246
651 0.000245
652 0.000244
653 0.000242
654 0.000239
655 0.000236
656 0.000235
657 0.000234
658 0.000236
659 0.000237
660 0.000235
661 0.000234
662 0.000234
663 0.000233
664 0.000232
665 0.000227
666 0.000224
667 0.000221
668 0.000218
669 0.000215
670 0.000212
671 0.000208
672 0.000206
673 0.000206
674 0.000207
675 0.000207
676 0.000208
677 0.000208
678 0.000209
679 0.000209
680 0.000206
681 0.000206
682 0.000206
683 0.000205
684 0.000205
685 0.000204
686 0.000201
687 0.000196
688 0.000193
689 0.000192
690 0.000190
691 0.000189
692 0.000187
693 0.000185
694 0.000184
695 0.000183
696 0.000180
697 0.000175
698 0.000171
699 0.000169
700 0.000167
701 0.000162
702 0.000159
703 0.000155
704 0.000152
705 0.000149
706 0.000148
707 0.000145
708 0.000143
709 0.000143
710 0.000142
711 0.000140
712 0.000137
713 0.000133
714 0.000131
715 0.000129
716 0.000127
717 0.000128
718 0.000127
719 0.000123
720 0.000120
721 0.000115
722 0.000110
723 0.000107
724 0.000107
725 0.000107
726 0.000106
727 0.000104
728 0.000101
729 0.000100
730 0.000098
731 0.000097
732 0.000098
733 0.000100
734 0.000102
735 0.000104
736 0.000105
737 0.000107
738 0.000110
739 0.000112
740 0.000115
741 0.000118
742 0.000119
743 0.000120
744 0.000119
745 0.000117
746 0.000117
747 0.000117
748 0.000117
749 0.000120
750 0.000122
751 0.000123
752 0.000124
753 0.000124
754 0.000124
755 0.000122
756 0.000120
757 0.000120
758 0.000120
759 0.000121
760 0.000122
761 0.000123
762 0.000124
763 0.000126
764 0.000129
765 0.000131
766 0.000133
767 0.000134
768 0.000133
769 0.000133
770 0.000132
771 0.000132
772 0.000132
773 0.000133
774 0.000132
775 0.000130
776 0.000126
777 0.000123
778 0.000121
779 0.000120
780 0.000119
781 0.000118
782 0.000118
783 0.000117
784 0.000117
785 0.000118
786 0.000118
787 0.000120
788 0.000121
789 0.000122
790 0.000122
791 0.000123
792 0.000122
793 0.000122
794 0.000122
795 0.000121
796 0.000121
797 0.000118
798 0.000119
799 0.000117
800 0.000112
801 0.000109
802 0.000106
803 0.000104
804 0.000101
805 0.000099
806 0.000097
807 0.000095
808 0.000092
809 0.000091
