# i correlation
1 0.001574
2 0.001536
3 0.001503
4 0.001476
5 0.001454
6 0.001435
7 0.001417
8 0.001398
9 0.001381
10 0.001363
11 0.001350
12 0.001336
13 0.001326
14 0.001315
15 0.001305
16 0.001294
17 0.001284
18 0.001280
19 0.001272
20 0.001273
21 0.001271
22 0.001265
23 0.001261
24 0.001256
25 0.001248
26 0.001244
27 0.001234
28 0.001225
29 0.001214
30 0.001204
31 0.001204
32 0.001204
33 0.001197
34 0.001189
35 0.001180
36 0.001174
37 0.001171
38 0.001167
39 0.001162
40 0.001153
41 0.001149
42 0.001142
43 0.001135
44 0.001134
45 0.001131
46 0.001131
47 0.001126
48 0.001122
49 0.001114
50 0.001103
51 0.001094
52 0.001091
53 0.001091
54 0.001090
55 0.001090
56 0.001088
57 0.001084
58 0.001080
59 0.001076
60 0.001076
61 0.001074
62 0.001073
63 0.001069
64 0.001068
65 0.001073
66 0.001074
67 0.001066
68 0.001057
69 0.001049
70 0.001042
71 0.001032
72 0.001026
73 0.001023
74 0.001018
75 0.001014
76 0.001013
77 0.001004
78 0.000999
79 0.000998
80 0.000999
81 0.000998
82 0.000996
83 0.000995
84 0.000992
85 0.000994
86 0.000995
87 0.000996
88 0.000994
89 0.000991
90 0.000987
91 0.000981
92 0.000970
93 0.000960
94 0.000952
95 0.000940
96 0.000935
97 0.000932
98 0.000927
99 0.000921
100 0.000919
101 0.000918
102 0.000917
103 0.000914
104 0.000914
105 0.000915
106 0.000914
107 0.000912
108 0.000911
109 0.000911
110 0.000906
111 0.000903
112 0.000897
113 0.000893
114 0.000890
115 0.000886
116 0.000874
117 0.000867
118 0.000858
119 0.000850
120 0.000846
121 0.000840
122 0.000839
123 0.000835
124 0.000832
125 0.000829
126 0.000823
127 0.000819
128 0.000816
129 0.000815
130 0.000814
131 0.000814
132 0.000813
133 0.000811
134 0.000809
135 0.000810
136 0.000808
137 0.000808
138 0.000808
139 0.000807
140 0.000803
141 0.000799
142 0.000797
143 0.000792
144 0.000785
145 0.000782
146 0.000782
147 0.000781
148 0.000779
149 0.000779
150 0.000779
151 0.000782
152 0.000784
153 0.000785
154 0.000785
155 0.000788
156 0.000790
157 0.000788
158 0.000786
159 0.000781
160 0.000772
161 0.000764
162 0.000759
163 0.000752
164 0.000743
165 0.000735
166 0.000729
167 0.000722
168 0.000717
169 0.000713
170 0.000716
171 0.000722
172 0.000723
173 0.000726
174 0.000724
175 0.000722
176 0.000722
177 0.000723
178 0.000725
179 0.000725
180 0.000723
181 0.000722
182 0.000722
183 0.000721
184 0.000721
185 0.000718
186 0.000712
187 0.000710
188 0.000708
189 0.000702
190 0.000699
191 0.000698
192 0.000694
193 0.000692
194 0.000692
195 0.000691
196 0.000693
197 0.000692
198 0.000691
199 0.000688
200 0.000683
201 0.000676
202 0.000673
203 0.000673
204 0.000675
205 0.000678
206 0.000673
207 0.000669
208 0.000665
209 0.000663
210 0.000662
211 0.000662
212 0.000659
213 0.000656
214 0.000656
215 0.000655
216 0.000659
217 0.000662
218 0.000664
219 0.000668
220 0.000668
221 0.000669
222 0.000666
223 0.000662
224 0.000659
225 0.000654
226 0.000648
227 0.000646
228 0.000641
229 0.000637
230 0.000633
231 0.000630
232 0.000628
233 0.000624
234 0.000615
235 0.000610
236 0.000610
237 0.000608
238 0.000608
239 0.000608
240 0.000605
241 0.000604
242 0.000604
243 0.000604
244 0.000605
245 0.000602
246 0.000599
247 0.000597
248 0.000595
249 0.000593
250 0.000589
251 0.000584
252 0.000581
253 0.000579
254 0.000574
255 0.000569
256 0.000565
257 0.000561
258 0.000560
259 0.000561
260 0.000564
261 0.000567
262 0.000571
263 0.000574
264 0.000575
265 0.000577
266 0.000578
267 0.000578
268 0.000578
269 0.000575
270 0.000575
271 0.000574
272 0.000568
273 0.000565
274 0.000563
275 0.000564
276 0.000561
277 0.000557
278 0.000549
279 0.000545
280 0.000541
281 0.000541
282 0.000541
283 0.000542
284 0.000544
285 0.000543
286 0.000542
287 0.000540
288 0.000539
289 0.000538
290 0.000538
291 0.000536
292 0.000534
293 0.000535
294 0.000535
295 0.000535
296 0.000536
297 0.000537
298 0.000540
299 0.000539
300 0.000538
301 0.000538
302 0.000542
303 0.000541
304 0.000542
305 0.000543
306 0.000546
307 0.000550
308 0.000554
309 0.000556
310 0.000555
311 0.000552
312 0.000548
313 0.000547
314 0.000542
315 0.000540
316 0.000538
317 0.000536
318 0.000532
319 0.000528
320 0.000524
321 0.000522
322 0.000523
323 0.000521
324 0.000517
325 0.000510
326 0.000505
327 0.000504
328 0.000506
329 0.000510
330 0.000515
331 0.000513
332 0.000512
333 0.000513
334 0.000513
335 0.000514
336 0.000519
337 0.000520
338 0.000520
339 0.000514
340 0.000511
341 0.000510
342 0.000507
343 0.000503
344 0.000500
345 0.000496
346 0.000493
347 0.000489
348 0.000485
349 0.000480
350 0.000479
351 0.000478
352 0.000475
353 0.000471
354 0.000472
355 0.000472
356 0.000474
357 0.000471
358 0.000470
359 0.000467
360 0.000467
361 0.000467
362 0.000469
363 0.000470
364 0.000469
365 0.000465
366 0.000462
367 0.000461
368 0.000461
369 0.000463
370 0.000466
371 0.000468
372 0.000470
373 0.000468
374 0.000468
375 0.000469
376 0.000469
377 0.000469
378 0.000469
379 0.000468
380 0.000463
381 0.000456
382 0.000452
383 0.000452
384 0.000451
385 0.000449
386 0.000447
387 0.000448
388 0.000449
389 0.000449
390 0.000449
391 0.000445
392 0.000441
393 0.000436
394 0.000435
395 0.000438
396 0.000440
397 0.000440
398 0.000441
399 0.000440
400 0.000437
401 0.000437
402 0.000437
403 0.000438
404 0.000436
405 0.000430
406 0.000425
407 0.000421
408 0.000417
409 0.000416
410 0.000413
411 0.000410
412 0.000407
413 0.000405
414 0.000404
415 0.000403
416 0.000403
417 0.000406
418 0.000406
419 0.000407
420 0.000407
421 0.000409
422 0.000410
423 0.000414
424 0.000415
425 0.000415
426 0.000414
427 0.000414
428 0.000409
429 0.000404
430 0.000401
431 0.000397
432 0.000397
433 0.000394
434 0.000391
435 0.000388
436 0.000385
437 0.000385
438 0.000383
439 0.000381
440 0.000380
441 0.000383
442 0.000384
443 0.000389
444 0.000393
445 0.000397
446 0.000396
447 0.000397
448 0.000397
449 0.000399
450 0.000400
451 0.000401
452 0.000403
453 0.000405
454 0.000406
455 0.000405
456 0.000403
457 0.000400
458 0.000397
459 0.000393
460 0.000390
461 0.000389
462 0.000388
463 0.000388
464 0.000388
465 0.000390
466 0.000388
467 0.000386
468 0.000387
469 0.000390
470 0.000391
471 0.000392
472 0.000393
473 0.000391
474 0.000390
475 0.000390
476 0.000389
477 0.000391
478 0.000397
479 0.000401
480 0.000406
481 0.000408
482 0.000409
483 0.000408
484 0.000407
485 0.000408
486 0.000407
487 0.000408
488 0.000408
489 0.000409
490 0.000407
491 0.000402
492 0.000399
493 0.000398
494 0.000397
495 0.000395
496 0.000390
497 0.000385
498 0.000380
499 0.000375
500 0.000374
501 0.000376
502 0.000373
503 0.000371
504 0.000367
505 0.000364
506 0.000361
507 0.000360
508 0.000358
509 0.000360
510 0.000363
511 0.000366
512 0.000370
513 0.000371
514 0.000370
515 0.000370
516 0.000372
517 0.000372
518 0.000372
519 0.000371
520 0.000369
521 0.000366
522 0.000361
523 0.000360
524 0.000360
525 0.000359
526 0.000363
527 0.000366
528 0.000369
529 0.000371
530 0.000371
531 0.000369
532 0.000369
533 0.000373
534 0.000376
535 0.000377
536 0.000377
537 0.000377
538 0.000379
539 0.000378
540 0.000377
541 0.000381
542 0.000385
543 0.000387
544 0.000387
545 0.000385
546 0.000384
547 0.000385
548 0.000388
549 0.000391
550 0.000396
551 0.000399
552 0.000401
553 0.000397
554 0.000398
555 0.000398
556 0.000395
557 0.000395
558 0.000393
559 0.000392
560 0.000393
561 0.000396
562 0.000396
563 0.000393
564 0.000387
565 0.000384
566 0.000385
567 0.000385
568 0.000390
569 0.000392
570 0.000393
571 0.000392
572 0.000391
573 0.000392
574 0.000392
575 0.000392
576 0.000390
577 0.000386
578 0.000383
579 0.000381
580 0.000379
581 0.000377
582 0.000378
583 0.000380
584 0.000380
585 0.000380
586 0.000380
587 0.000380
588 0.000381
589 0.000383
590 0.000382
591 0.000380
592 0.000381
593 0.000381
594 0.000383
595 0.000383
596 0.000384
597 0.000380
598 0.000377
599 0.000379
600 0.000378
601 0.000374
602 0.000369
603 0.000368
604 0.000365
605 0.000364
606 0.000364
607 0.000366
608 0.000366
609 0.000366
610 0.000362
611 0.000358
612 0.000353
613 0.000348
614 0.000345
615 0.000341
616 0.000340
617 0.000342
618 0.000341
619 0.000340
620 0.000340
621 0.000343
622 0.000345
623 0.000345
624 0.000344
625 0.000344
626 0.000344
627 0.000346
628 0.000348
629 0.000346
630 0.000346
631 0.000347
632 0.000347
633 0.000346
634 0.000347
635 0.000351
636 0.000351
637 0.000353
638 0.000356
639 0.000357
640 0.000359
641 0.000360
642 0.000361
643 0.000362
644 0.000361
645 0.000358
646 0.000355
647 0.000351
648 0.000349
649 0.000350
650 0.000348
651 0.000346
652 0.000342
653 0.000342
654 0.000341
655 0.000340
656 0.000339
657 0.000334
658 0.000336
659 0.000337
660 0.000335
661 0.000332
662 0.000330
663 0.000330
664 0.000330
665 0.000330
666 0.000328
667 0.000323
668 0.000322
669 0.000320
670 0.000321
671 0.000323
672 0.000326
673 0.000329
674 0.000333
675 0.000336
676 0.000336
677 0.000336
678 0.000334
679 0.000333
680 0.000330
681 0.000327
682 0.000323
683 0.000321
684 0.000321
685 0.000320
686 0.000320
687 0.000320
688 0.000318
689 0.000315
690 0.000315
691 0.000312
692 0.000310
693 0.000308
694 0.000306
695 0.000303
696 0.000301
697 0.000300
698 0.000296
699 0.000295
700 0.000295
701 0.000294
702 0.000291
703 0.000288
704 0.000286
705 0.000284
706 0.000282
707 0.000283
708 0.000284
709 0.000282
710 0.000280
711 0.000278
712 0.000275
713 0.000271
714 0.000268
715 0.000266
716 0.000265
717 0.000264
718 0.000262
719 0.000261
720 0.000260
721 0.000260
722 0.000259
723 0.000258
724 0.000257
725 0.000260
726 0.000260
727 0.000261
728 0.000261
729 0.000260
730 0.000258
731 0.000260
732 0.000260
733 0.000257
734 0.000256
735 0.000250
736 0.000246
737 0.000241
738 0.000236
739 0.000234
740 0.000232
741 0.000230
742 0.000226
743 0.000222
744 0.000218
745 0.000216
746 0.000214
747 0.000213
748 0.000211
749 0.000212
750 0.000212
751 0.000211
752 0.000212
753 0.000211
754 0.000212
755 0.000213
756 0.000211
757 0.000213
758 0.000214
759 0.000215
760 0.000221
761 0.000224
762 0.000226
763 0.000226
764 0.000226
765 0.000227
766 0.000227
767 0.000223
768 0.000219
769 0.000215
770 0.000211
771 0.000210
772 0.000208
773 0.000210
774 0.000209
775 0.000208
776 0.000206
777 0.000207
778 0.000208
779 0.000207
780 0.000207
781 0.000207
782 0.000207
783 0.000207
784 0.000208
785 0.000207
786 0.000207
787 0.000207
788 0.000205
789 0.000202
790 0.000199
791 0.000197
792 0.000195
793 0.000193
794 0.000189
795 0.000186
796 0.000182
797 0.000177
798 0.000171
799 0.000165
800 0.000159
801 0.000154
802 0.000147
803 0.000142
804 0.000138
805 0.000135
806 0.000132
807 0.000125
808 0.000120
809 0.000115
