# i correlation
1 0.001513
2 0.001479
3 0.001451
4 0.001423
5 0.001400
6 0.001382
7 0.001363
8 0.001344
9 0.001325
10 0.001309
11 0.001293
12 0.001278
13 0.001265
14 0.001250
15 0.001237
16 0.001224
17 0.001212
18 0.001201
19 0.001191
20 0.001182
21 0.001174
22 0.001169
23 0.001164
24 0.001157
25 0.001147
26 0.001136
27 0.001125
28 0.001114
29 0.001104
30 0.001099
31 0.001091
32 0.001083
33 0.001072
34 0.001064
35 0.001058
36 0.001055
37 0.001053
38 0.001053
39 0.001053
40 0.001050
41 0.001046
42 0.001042
43 0.001037
44 0.001033
45 0.001030
46 0.001030
47 0.001028
48 0.001026
49 0.001028
50 0.001028
51 0.001027
52 0.001026
53 0.001022
54 0.001015
55 0.001007
56 0.000999
57 0.000989
58 0.000982
59 0.000976
60 0.000971
61 0.000970
62 0.000967
63 0.000958
64 0.000952
65 0.000946
66 0.000938
67 0.000928
68 0.000920
69 0.000912
70 0.000905
71 0.000902
72 0.000896
73 0.000893
74 0.000888
75 0.000881
76 0.000874
77 0.000871
78 0.000868
79 0.000862
80 0.000852
81 0.000844
82 0.000839
83 0.000831
84 0.000822
85 0.000818
86 0.000814
87 0.000809
88 0.000804
89 0.000802
90 0.000800
91 0.000799
92 0.000798
93 0.000795
94 0.000790
95 0.000791
96 0.000792
97 0.000795
98 0.000797
99 0.000794
100 0.000792
101 0.000791
102 0.000788
103 0.000786
104 0.000781
105 0.000776
106 0.000770
107 0.000761
108 0.000756
109 0.000752
110 0.000748
111 0.000744
112 0.000743
113 0.000743
114 0.000746
115 0.000745
116 0.000747
117 0.000750
118 0.000753
119 0.000756
120 0.000758
121 0.000759
122 0.000755
123 0.000753
124 0.000748
125 0.000745
126 0.000742
127 0.000739
128 0.000738
129 0.000735
130 0.000729
131 0.000727
132 0.000725
133 0.000722
134 0.000722
135 0.000724
136 0.000726
137 0.000728
138 0.000727
139 0.000729
140 0.000733
141 0.000735
142 0.000738
143 0.000739
144 0.000742
145 0.000743
146 0.000743
147 0.000743
148 0.000743
149 0.000743
150 0.000748
151 0.000752
152 0.000752
153 0.000752
154 0.000750
155 0.000747
156 0.000744
157 0.000742
158 0.000739
159 0.000736
160 0.000734
161 0.000733
162 0.000729
163 0.000725
164 0.000721
165 0.000712
166 0.000703
167 0.000699
168 0.000694
169 0.000690
170 0.000689
171 0.000690
172 0.000691
173 0.000687
174 0.000684
175 0.000682
176 0.000681
177 0.000681
178 0.000680
179 0.000678
180 0.000673
181 0.000667
182 0.000665
183 0.000662
184 0.000656
185 0.000651
186 0.000642
187 0.000637
188 0.000632
189 0.000629
190 0.000630
191 0.000631
192 0.000632
193 0.000630
194 0.000630
195 0.000624
196 0.000620
197 0.000617
198 0.000618
199 0.000621
200 0.000620
201 0.000618
202 0.000619
203 0.000616
204 0.000613
205 0.000613
206 0.000614
207 0.000612
208 0.000609
209 0.000611
210 0.000609
211 0.000605
212 0.000606
213 0.000609
214 0.000612
215 0.000616
216 0.000619
217 0.000620
218 0.000621
219 0.000622
220 0.000619
221 0.000615
222 0.000614
223 0.000614
224 0.000614
225 0.000614
226 0.000612
227 0.000607
228 0.000604
229 0.000602
230 0.000598
231 0.000595
232 0.000595
233 0.000596
234 0.000592
235 0.000590
236 0.000590
237 0.000591
238 0.000591
239 0.000591
240 0.000593
241 0.000594
242 0.000593
243 0.000591
244 0.000588
245 0.000586
246 0.000583
247 0.000578
248 0.000575
249 0.000571
250 0.000565
251 0.000561
252 0.000558
253 0.000557
254 0.000558
255 0.000557
256 0.000560
257 0.000558
258 0.000556
259 0.000554
260 0.000552
261 0.000552
262 0.000552
263 0.000553
264 0.000553
265 0.000556
266 0.000554
267 0.000554
268 0.000555
269 0.000552
270 0.000552
271 0.000553
272 0.000548
273 0.000547
274 0.000545
275 0.000542
276 0.000540
277 0.000537
278 0.000534
279 0.000527
280 0.000525
281 0.000524
282 0.000522
283 0.000520
284 0.000521
285 0.000519
286 0.000515
287 0.000511
288 0.000511
289 0.000510
290 0.000511
291 0.000514
292 0.000517
293 0.000518
294 0.000520
295 0.000525
296 0.000528
297 0.000531
298 0.000534
299 0.000532
300 0.000530
301 0.000527
302 0.000520
303 0.000515
304 0.000510
305 0.000505
306 0.000503
307 0.000504
308 0.000508
309 0.000508
310 0.000507
311 0.000505
312 0.000502
313 0.000500
314 0.000502
315 0.000503
316 0.000500
317 0.000499
318 0.000500
319 0.000502
320 0.000501
321 0.000500
322 0.000500
323 0.000503
324 0.000504
325 0.000501
326 0.000500
327 0.000497
328 0.000492
329 0.000489
330 0.000488
331 0.000489
332 0.000488
333 0.000490
334 0.000495
335 0.000496
336 0.000497
337 0.000498
338 0.000498
339 0.000498
340 0.000500
341 0.000504
342 0.000509
343 0.000510
344 0.000513
345 0.000517
346 0.000519
347 0.000521
348 0.000520
349 0.000520
350 0.000519
351 0.000517
352 0.000513
353 0.000510
354 0.000509
355 0.000508
356 0.000505
357 0.000505
358 0.000502
359 0.000500
360 0.000499
361 0.000498
362 0.000499
363 0.000502
364 0.000503
365 0.000502
366 0.000501
367 0.000499
368 0.000500
369 0.000503
370 0.000509
371 0.000513
372 0.000516
373 0.000519
374 0.000521
375 0.000522
376 0.000518
377 0.000515
378 0.000511
379 0.000510
380 0.000506
381 0.000503
382 0.000500
383 0.000497
384 0.000492
385 0.000494
386 0.000497
387 0.000498
388 0.000499
389 0.000496
390 0.000495
391 0.000494
392 0.000493
393 0.000493
394 0.000494
395 0.000492
396 0.000494
397 0.000495
398 0.000494
399 0.000491
400 0.000486
401 0.000480
402 0.000473
403 0.000466
404 0.000462
405 0.000456
406 0.000449
407 0.000444
408 0.000439
409 0.000441
410 0.000441
411 0.000442
412 0.000442
413 0.000445
414 0.000445
415 0.000448
416 0.000451
417 0.000453
418 0.000455
419 0.000455
420 0.000453
421 0.000451
422 0.000450
423 0.000447
424 0.000445
425 0.000443
426 0.000441
427 0.000437
428 0.000437
429 0.000432
430 0.000423
431 0.000419
432 0.000418
433 0.000416
434 0.000416
435 0.000417
436 0.000415
437 0.000415
438 0.000415
439 0.000417
440 0.000420
441 0.000423
442 0.000425
443 0.000426
444 0.000425
445 0.000424
446 0.000420
447 0.000418
448 0.000415
449 0.000411
450 0.000408
451 0.000405
452 0.000402
453 0.000400
454 0.000397
455 0.000394
456 0.000389
457 0.000382
458 0.000378
459 0.000375
460 0.000373
461 0.000372
462 0.000366
463 0.000360
464 0.000358
465 0.000360
466 0.000362
467 0.000361
468 0.000360
469 0.000359
470 0.000359
471 0.000358
472 0.000356
473 0.000353
474 0.000351
475 0.000350
476 0.000347
477 0.000343
478 0.000338
479 0.000333
480 0.000330
481 0.000326
482 0.000323
483 0.000322
484 0.000320
485 0.000316
486 0.000316
487 0.000316
488 0.000316
489 0.000317
490 0.000318
491 0.000322
492 0.000322
493 0.000323
494 0.000325
495 0.000322
496 0.000321
497 0.000322
498 0.000322
499 0.000322
500 0.000322
501 0.000322
502 0.000323
503 0.000320
504 0.000317
505 0.000316
506 0.000316
507 0.000316
508 0.000313
509 0.000308
510 0.000304
511 0.000300
512 0.000297
513 0.000296
514 0.000297
515 0.000297
516 0.000296
517 0.000297
518 0.000298
519 0.000299
520 0.000299
521 0.000300
522 0.000299
523 0.000297
524 0.000298
525 0.000300
526 0.000299
527 0.000298
528 0.000296
529 0.000294
530 0.000295
531 0.000293
532 0.000294
533 0.000296
534 0.000297
535 0.000297
536 0.000297
537 0.000298
538 0.000298
539 0.000298
540 0.000300
541 0.000297
542 0.000298
543 0.000298
544 0.000296
545 0.000295
546 0.000295
547 0.000297
548 0.000297
549 0.000300
550 0.000302
551 0.000303
552 0.000303
553 0.000304
554 0.000303
555 0.000302
556 0.000303
557 0.000306
558 0.000304
559 0.000301
560 0.000298
561 0.000294
562 0.000292
563 0.000290
564 0.000291
565 0.000288
566 0.000285
567 0.000281
568 0.000277
569 0.000273
570 0.000268
571 0.000265
572 0.000262
573 0.000261
574 0.000259
575 0.000256
576 0.000253
577 0.000252
578 0.000249
579 0.000251
580 0.000252
581 0.000251
582 0.000250
583 0.000247
584 0.000245
585 0.000245
586 0.000246
587 0.000249
588 0.000251
589 0.000253
590 0.000253
591 0.000253
592 0.000253
593 0.000253
594 0.000253
595 0.000255
596 0.000256
597 0.000254
598 0.000251
599 0.000247
600 0.000243
601 0.000240
602 0.000235
603 0.000234
604 0.000233
605 0.000229
606 0.000226
607 0.000224
608 0.000221
609 0.000218
610 0.000215
611 0.000215
612 0.000213
613 0.000210
614 0.000207
615 0.000204
616 0.000202
617 0.000200
618 0.000198
619 0.000197
620 0.000193
621 0.000186
622 0.000181
623 0.000175
624 0.000169
625 0.000166
626 0.000164
627 0.000161
628 0.000159
629 0.000156
630 0.000151
631 0.000147
632 0.000144
633 0.000143
634 0.000144
635 0.000144
636 0.000141
637 0.000140
638 0.000142
639 0.000143
640 0.000140
641 0.000141
642 0.000143
643 0.000144
644 0.000144
645 0.000142
646 0.000140
647 0.000137
648 0.000135
649 0.000131
650 0.000128
651 0.000124
652 0.000122
653 0.000120
654 0.000118
655 0.000118
656 0.000117
657 0.000116
658 0.000118
659 0.000118
660 0.000118
661 0.000119
662 0.000117
663 0.000116
664 0.000119
665 0.000122
666 0.000124
667 0.000126
668 0.000128
669 0.000132
670 0.000134
671 0.000136
672 0.000139
673 0.000141
674 0.000145
675 0.000147
676 0.000148
677 0.000150
678 0.000155
679 0.000159
680 0.000165
681 0.000171
682 0.000175
683 0.000178
684 0.000183
685 0.000186
686 0.000188
687 0.000189
688 0.000190
689 0.000190
690 0.000191
691 0.000190
692 0.000189
693 0.000190
694 0.000191
695 0.000192
696 0.000192
697 0.000191
698 0.000190
699 0.000188
700 0.000186
701 0.000183
702 0.000177
703 0.000170
704 0.000165
705 0.000160
706 0.000159
707 0.000155
708 0.000151
709 0.000146
710 0.000143
711 0.000139
712 0.000137
713 0.000134
714 0.000131
715 0.000127
716 0.000124
717 0.000124
718 0.000123
719 0.000121
720 0.000119
721 0.000114
722 0.000111
723 0.000106
724 0.000105
725 0.000104
726 0.000103
727 0.000102
728 0.000100
729 0.000101
730 0.000103
731 0.000107
732 0.000111
733 0.000114
734 0.000117
735 0.000122
736 0.000126
737 0.000129
738 0.000133
739 0.000138
740 0.000143
741 0.000146
742 0.000150
743 0.000155
744 0.000158
745 0.000161
746 0.000163
747 0.000162
748 0.000162
749 0.000162
750 0.000160
751 0.000159
752 0.000159
753 0.000155
754 0.000152
755 0.000149
756 0.000148
757 0.000145
758 0.000144
759 0.000142
760 0.000139
761 0.000137
762 0.000137
763 0.000136
764 0.000138
765 0.000138
766 0.000137
767 0.000140
768 0.000141
769 0.000141
770 0.000139
771 0.000137
772 0.000133
773 0.000129
774 0.000125
775 0.000120
776 0.000115
777 0.000109
778 0.000107
779 0.000105
780 0.000103
781 0.000101
782 0.000101
783 0.000101
784 0.000103
785 0.000105
786 0.000108
787 0.000109
788 0.000112
789 0.000116
790 0.000119
791 0.000121
792 0.000123
793 0.000126
794 0.000127
795 0.000129
796 0.000132
797 0.000135
798 0.000137
799 0.000137
800 0.000136
801 0.000135
802 0.000134
803 0.000133
804 0.000133
805 0.000132
806 0.000130
807 0.000129
808 0.000126
809 0.000124
