# i correlation
1 0.001622
2 0.001591
3 0.001566
4 0.001544
5 0.001526
6 0.001510
7 0.001498
8 0.001483
9 0.001464
10 0.001448
11 0.001435
12 0.001425
13 0.001414
14 0.001403
15 0.001392
16 0.001379
17 0.001367
18 0.001359
19 0.001351
20 0.001343
21 0.001334
22 0.001328
23 0.001318
24 0.001306
25 0.001296
26 0.001291
27 0.001285
28 0.001277
29 0.001270
30 0.001263
31 0.001256
32 0.001248
33 0.001241
34 0.001236
35 0.001231
36 0.001222
37 0.001214
38 0.001210
39 0.001202
40 0.001194
41 0.001187
42 0.001185
43 0.001181
44 0.001175
45 0.001170
46 0.001165
47 0.001159
48 0.001157
49 0.001160
50 0.001162
51 0.001163
52 0.001165
53 0.001162
54 0.001159
55 0.001153
56 0.001147
57 0.001143
58 0.001136
59 0.001127
60 0.001121
61 0.001114
62 0.001105
63 0.001096
64 0.001088
65 0.001078
66 0.001069
67 0.001062
68 0.001055
69 0.001048
70 0.001040
71 0.001033
72 0.001025
73 0.001017
74 0.001010
75 0.001005
76 0.001000
77 0.000996
78 0.000990
79 0.000983
80 0.000976
81 0.000973
82 0.000972
83 0.000972
84 0.000973
85 0.000971
86 0.000968
87 0.000969
88 0.000967
89 0.000966
90 0.000963
91 0.000961
92 0.000963
93 0.000965
94 0.000968
95 0.000970
96 0.000968
97 0.000967
98 0.000963
99 0.000959
100 0.000961
101 0.000964
102 0.000967
103 0.000971
104 0.000972
105 0.000971
106 0.000973
107 0.000974
108 0.000975
109 0.000975
110 0.000975
111 0.000974
112 0.000971
113 0.000968
114 0.000964
115 0.000960
116 0.000954
117 0.000948
118 0.000942
119 0.000936
120 0.000931
121 0.000929
122 0.000927
123 0.000924
124 0.000919
125 0.000917
126 0.000916
127 0.000916
128 0.000916
129 0.000918
130 0.000920
131 0.000917
132 0.000914
133 0.000910
134 0.000908
135 0.000906
136 0.000905
137 0.000903
138 0.000901
139 0.000898
140 0.000894
141 0.000891
142 0.000886
143 0.000882
144 0.000876
145 0.000871
146 0.000865
147 0.000860
148 0.000854
149 0.000848
150 0.000843
151 0.000836
152 0.000832
153 0.000827
154 0.000823
155 0.000818
156 0.000811
157 0.000807
158 0.000802
159 0.000797
160 0.000794
161 0.000792
162 0.000787
163 0.000782
164 0.000779
165 0.000777
166 0.000773
167 0.000770
168 0.000768
169 0.000766
170 0.000760
171 0.000757
172 0.000756
173 0.000755
174 0.000751
175 0.000746
176 0.000744
177 0.000741
178 0.000738
179 0.000734
180 0.000733
181 0.000732
182 0.000730
183 0.000728
184 0.000725
185 0.000723
186 0.000715
187 0.000710
188 0.000707
189 0.000703
190 0.000699
191 0.000696
192 0.000695
193 0.000691
194 0.000685
195 0.000684
196 0.000685
197 0.000686
198 0.000687
199 0.000686
200 0.000684
201 0.000677
202 0.000672
203 0.000668
204 0.000662
205 0.000657
206 0.000651
207 0.000646
208 0.000638
209 0.000632
210 0.000627
211 0.000623
212 0.000620
213 0.000613
214 0.000607
215 0.000601
216 0.000596
217 0.000592
218 0.000590
219 0.000587
220 0.000582
221 0.000577
222 0.000574
223 0.000568
224 0.000563
225 0.000559
226 0.000554
227 0.000552
228 0.000549
229 0.000549
230 0.000550
231 0.000552
232 0.000553
233 0.000554
234 0.000556
235 0.000558
236 0.000562
237 0.000564
238 0.000563
239 0.000561
240 0.000558
241 0.000556
242 0.000552
243 0.000546
244 0.000545
245 0.000542
246 0.000539
247 0.000537
248 0.000535
249 0.000533
250 0.000531
251 0.000531
252 0.000531
253 0.000530
254 0.000527
255 0.000523
256 0.000520
257 0.000519
258 0.000519
259 0.000516
260 0.000516
261 0.000515
262 0.000511
263 0.000506
264 0.000503
265 0.000502
266 0.000502
267 0.000499
268 0.000495
269 0.000492
270 0.000490
271 0.000488
272 0.000483
273 0.000479
274 0.000475
275 0.000473
276 0.000471
277 0.000470
278 0.000466
279 0.000464
280 0.000462
281 0.000456
282 0.000452
283 0.000450
284 0.000450
285 0.000449
286 0.000449
287 0.000449
288 0.000450
289 0.000451
290 0.000449
291 0.000449
292 0.000449
293 0.000450
294 0.000450
295 0.000448
296 0.000449
297 0.000449
298 0.000447
299 0.000449
300 0.000452
301 0.000452
302 0.000452
303 0.000451
304 0.000450
305 0.000449
306 0.000450
307 0.000449
308 0.000448
309 0.000447
310 0.000445
311 0.000442
312 0.000443
313 0.000446
314 0.000448
315 0.000453
316 0.000452
317 0.000448
318 0.000446
319 0.000443
320 0.000440
321 0.000439
322 0.000440
323 0.000440
324 0.000436
325 0.000432
326 0.000430
327 0.000427
328 0.000429
329 0.000432
330 0.000432
331 0.000432
332 0.000428
333 0.000425
334 0.000423
335 0.000421
336 0.000422
337 0.000424
338 0.000426
339 0.000428
340 0.000427
341 0.000428
342 0.000427
343 0.000426
344 0.000426
345 0.000425
346 0.000422
347 0.000420
348 0.000419
349 0.000418
350 0.000419
351 0.000419
352 0.000420
353 0.000418
354 0.000419
355 0.000418
356 0.000415
357 0.000412
358 0.000410
359 0.000407
360 0.000407
361 0.000406
362 0.000406
363 0.000406
364 0.000407
365 0.000406
366 0.000408
367 0.000412
368 0.000415
369 0.000414
370 0.000413
371 0.000414
372 0.000413
373 0.000412
374 0.000413
375 0.000412
376 0.000410
377 0.000406
378 0.000406
379 0.000407
380 0.000408
381 0.000408
382 0.000406
383 0.000408
384 0.000407
385 0.000404
386 0.000402
387 0.000400
388 0.000399
389 0.000400
390 0.000403
391 0.000404
392 0.000404
393 0.000404
394 0.000403
395 0.000401
396 0.000400
397 0.000402
398 0.000402
399 0.000400
400 0.000398
401 0.000397
402 0.000397
403 0.000397
404 0.000395
405 0.000394
406 0.000394
407 0.000392
408 0.000389
409 0.000388
410 0.000386
411 0.000382
412 0.000379
413 0.000376
414 0.000373
415 0.000371
416 0.000372
417 0.000371
418 0.000373
419 0.000371
420 0.000371
421 0.000370
422 0.000368
423 0.000368
424 0.000371
425 0.000375
426 0.000378
427 0.000378
428 0.000377
429 0.000378
430 0.000376
431 0.000376
432 0.000378
433 0.000380
434 0.000381
435 0.000381
436 0.000381
437 0.000382
438 0.000383
439 0.000386
440 0.000389
441 0.000390
442 0.000391
443 0.000391
444 0.000394
445 0.000398
446 0.000398
447 0.000400
448 0.000401
449 0.000402
450 0.000403
451 0.000407
452 0.000410
453 0.000409
454 0.000408
455 0.000407
456 0.000404
457 0.000403
458 0.000402
459 0.000401
460 0.000399
461 0.000396
462 0.000392
463 0.000388
464 0.000384
465 0.000381
466 0.000377
467 0.000374
468 0.000374
469 0.000374
470 0.000373
471 0.000371
472 0.000371
473 0.000372
474 0.000371
475 0.000372
476 0.000373
477 0.000374
478 0.000373
479 0.000371
480 0.000369
481 0.000368
482 0.000367
483 0.000365
484 0.000364
485 0.000362
486 0.000360
487 0.000362
488 0.000362
489 0.000364
490 0.000364
491 0.000366
492 0.000368
493 0.000366
494 0.000366
495 0.000366
496 0.000367
497 0.000370
498 0.000373
499 0.000378
500 0.000382
501 0.000384
502 0.000386
503 0.000388
504 0.000391
505 0.000395
506 0.000398
507 0.000402
508 0.000402
509 0.000401
510 0.000400
511 0.000400
512 0.000403
513 0.000407
514 0.000410
515 0.000409
516 0.000407
517 0.000403
518 0.000400
519 0.000398
520 0.000397
521 0.000397
522 0.000396
523 0.000393
524 0.000390
525 0.000387
526 0.000387
527 0.000389
528 0.000389
529 0.000387
530 0.000385
531 0.000382
532 0.000381
533 0.000381
534 0.000381
535 0.000381
536 0.000382
537 0.000381
538 0.000378
539 0.000377
540 0.000378
541 0.000380
542 0.000380
543 0.000378
544 0.000377
545 0.000376
546 0.000374
547 0.000375
548 0.000375
549 0.000375
550 0.000376
551 0.000379
552 0.000384
553 0.000387
554 0.000388
555 0.000391
556 0.000392
557 0.000392
558 0.000392
559 0.000392
560 0.000392
561 0.000390
562 0.000387
563 0.000387
564 0.000386
565 0.000384
566 0.000384
567 0.000383
568 0.000380
569 0.000376
570 0.000374
571 0.000371
572 0.000368
573 0.000366
574 0.000364
575 0.000363
576 0.000361
577 0.000357
578 0.000352
579 0.000347
580 0.000342
581 0.000337
582 0.000332
583 0.000328
584 0.000324
585 0.000320
586 0.000316
587 0.000312
588 0.000307
589 0.000303
590 0.000303
591 0.000301
592 0.000297
593 0.000294
594 0.000292
595 0.000288
596 0.000285
597 0.000284
598 0.000283
599 0.000282
600 0.000280
601 0.000281
602 0.000282
603 0.000283
604 0.000282
605 0.000283
606 0.000283
607 0.000282
608 0.000283
609 0.000285
610 0.000287
611 0.000287
612 0.000287
613 0.000286
614 0.000284
615 0.000283
616 0.000284
617 0.000285
618 0.000287
619 0.000290
620 0.000291
621 0.000292
622 0.000294
623 0.000292
624 0.000292
625 0.000293
626 0.000291
627 0.000290
628 0.000291
629 0.000292
630 0.000292
631 0.000289
632 0.000288
633 0.000287
634 0.000285
635 0.000282
636 0.000281
637 0.000280
638 0.000278
639 0.000276
640 0.000278
641 0.000279
642 0.000280
643 0.000281
644 0.000283
645 0.000286
646 0.000286
647 0.000287
648 0.000288
649 0.000289
650 0.000291
651 0.000293
652 0.000296
653 0.000297
654 0.000300
655 0.000303
656 0.000305
657 0.000307
658 0.000306
659 0.000306
660 0.000306
661 0.000305
662 0.000307
663 0.000308
664 0.000307
665 0.000305
666 0.000301
667 0.000301
668 0.000302
669 0.000304
670 0.000306
671 0.000307
672 0.000306
673 0.000303
674 0.000302
675 0.000299
676 0.000297
677 0.000295
678 0.000293
679 0.000292
680 0.000292
681 0.000291
682 0.000292
683 0.000291
684 0.000291
685 0.000291
686 0.000289
687 0.000287
688 0.000284
689 0.000280
690 0.000276
691 0.000272
692 0.000269
693 0.000265
694 0.000262
695 0.000258
696 0.000255
697 0.000251
698 0.000247
699 0.000243
700 0.000239
701 0.000235
702 0.000232
703 0.000230
704 0.000229
705 0.000231
706 0.000231
707 0.000230
708 0.000228
709 0.000228
710 0.000228
711 0.000229
712 0.000233
713 0.000237
714 0.000240
715 0.000237
716 0.000234
717 0.000231
718 0.000229
719 0.000225
720 0.000221
721 0.000217
722 0.000214
723 0.000211
724 0.000209
725 0.000208
726 0.000208
727 0.000205
728 0.000202
729 0.000198
730 0.000196
731 0.000194
732 0.000192
733 0.000192
734 0.000193
735 0.000194
736 0.000195
737 0.000196
738 0.000198
739 0.000201
740 0.000203
741 0.000204
742 0.000204
743 0.000202
744 0.000203
745 0.000203
746 0.000203
747 0.000205
748 0.000206
749 0.000205
750 0.000202
751 0.000199
752 0.000197
753 0.000195
754 0.000193
755 0.000191
756 0.000189
757 0.000189
758 0.000189
759 0.000186
760 0.000182
761 0.000178
762 0.000175
763 0.000173
764 0.000172
765 0.000172
766 0.000172
767 0.000172
768 0.000171
769 0.000172
770 0.000173
771 0.000173
772 0.000173
773 0.000172
774 0.000171
775 0.000171
776 0.000170
777 0.000168
778 0.000167
779 0.000165
780 0.000163
781 0.000161
782 0.000160
783 0.000159
784 0.000158
785 0.000159
786 0.000158
787 0.000158
788 0.000159
789 0.000160
790 0.000162
791 0.000163
792 0.000164
793 0.000166
794 0.000168
795 0.000168
796 0.000169
797 0.000172
798 0.000174
799 0.000177
800 0.000179
801 0.000179
802 0.000178
803 0.000176
804 0.000175
805 0.000175
806 0.000176
807 0.000178
808 0.000179
809 0.000180
