# i correlation
1 0.001411
2 0.001380
3 0.001352
4 0.001331
5 0.001308
6 0.001287
7 0.001268
8 0.001252
9 0.001240
10 0.001232
11 0.001222
12 0.001213
13 0.001205
14 0.001201
15 0.001193
16 0.001185
17 0.001176
18 0.001170
19 0.001166
20 0.001164
21 0.001160
22 0.001156
23 0.001149
24 0.001142
25 0.001134
26 0.001128
27 0.001125
28 0.001121
29 0.001117
30 0.001111
31 0.001103
32 0.001096
33 0.001089
34 0.001079
35 0.001071
36 0.001066
37 0.001060
38 0.001056
39 0.001049
40 0.001042
41 0.001035
42 0.001029
43 0.001025
44 0.001023
45 0.001020
46 0.001016
47 0.001011
48 0.001009
49 0.001003
50 0.001002
51 0.000997
52 0.000994
53 0.000988
54 0.000981
55 0.000975
56 0.000967
57 0.000962
58 0.000955
59 0.000950
60 0.000948
61 0.000941
62 0.000936
63 0.000932
64 0.000926
65 0.000924
66 0.000923
67 0.000922
68 0.000920
69 0.000918
70 0.000916
71 0.000915
72 0.000913
73 0.000908
74 0.000904
75 0.000899
76 0.000892
77 0.000886
78 0.000877
79 0.000870
80 0.000862
81 0.000861
82 0.000858
83 0.000855
84 0.000853
85 0.000851
86 0.000847
87 0.000844
88 0.000844
89 0.000840
90 0.000834
91 0.000829
92 0.000825
93 0.000820
94 0.000814
95 0.000809
96 0.000803
97 0.000797
98 0.000793
99 0.000786
100 0.000782
101 0.000774
102 0.000768
103 0.000764
104 0.000761
105 0.000757
106 0.000750
107 0.000744
108 0.000739
109 0.000731
110 0.000730
111 0.000730
112 0.000732
113 0.000733
114 0.000734
115 0.000738
116 0.000736
117 0.000736
118 0.000736
119 0.000735
120 0.000733
121 0.000731
122 0.000730
123 0.000727
124 0.000726
125 0.000726
126 0.000725
127 0.000727
128 0.000728
129 0.000729
130 0.000724
131 0.000721
132 0.000719
133 0.000713
134 0.000712
135 0.000713
136 0.000714
137 0.000715
138 0.000717
139 0.000719
140 0.000719
141 0.000715
142 0.000713
143 0.000711
144 0.000709
145 0.000708
146 0.000707
147 0.000704
148 0.000702
149 0.000699
150 0.000697
151 0.000692
152 0.000688
153 0.000684
154 0.000677
155 0.000670
156 0.000668
157 0.000669
158 0.000669
159 0.000667
160 0.000667
161 0.000667
162 0.000666
163 0.000663
164 0.000660
165 0.000660
166 0.000658
167 0.000657
168 0.000653
169 0.000649
170 0.000644
171 0.000637
172 0.000635
173 0.000632
174 0.000629
175 0.000630
176 0.000631
177 0.000633
178 0.000635
179 0.000638
180 0.000639
181 0.000642
182 0.000644
183 0.000645
184 0.000646
185 0.000648
186 0.000651
187 0.000653
188 0.000653
189 0.000655
190 0.000656
191 0.000654
192 0.000652
193 0.000646
194 0.000641
195 0.000639
196 0.000636
197 0.000633
198 0.000633
199 0.000634
200 0.000636
201 0.000638
202 0.000639
203 0.000640
204 0.000642
205 0.000647
206 0.000649
207 0.000646
208 0.000645
209 0.000643
210 0.000643
211 0.000644
212 0.000643
213 0.000642
214 0.000641
215 0.000640
216 0.000640
217 0.000642
218 0.000644
219 0.000646
220 0.000647
221 0.000641
222 0.000638
223 0.000634
224 0.000631
225 0.000627
226 0.000623
227 0.000621
228 0.000616
229 0.000615
230 0.000612
231 0.000609
232 0.000608
233 0.000608
234 0.000609
235 0.000609
236 0.000607
237 0.000605
238 0.000604
239 0.000605
240 0.000607
241 0.000606
242 0.000604
243 0.000599
244 0.000593
245 0.000585
246 0.000577
247 0.000572
248 0.000568
249 0.000565
250 0.000564
251 0.000562
252 0.000560
253 0.000560
254 0.000561
255 0.000561
256 0.000563
257 0.000565
258 0.000566
259 0.000565
260 0.000566
261 0.000569
262 0.000574
263 0.000577
264 0.000581
265 0.000582
266 0.000583
267 0.000586
268 0.000591
269 0.000593
270 0.000596
271 0.000597
272 0.000599
273 0.000599
274 0.000596
275 0.000591
276 0.000588
277 0.000586
278 0.000583
279 0.000579
280 0.000577
281 0.000575
282 0.000574
283 0.000574
284 0.000574
285 0.000575
286 0.000573
287 0.000573
288 0.000572
289 0.000573
290 0.000576
291 0.000575
292 0.000575
293 0.000575
294 0.000576
295 0.000576
296 0.000572
297 0.000568
298 0.000564
299 0.000560
300 0.000557
301 0.000552
302 0.000548
303 0.000543
304 0.000540
305 0.000536
306 0.000531
307 0.000529
308 0.000529
309 0.000528
310 0.000529
311 0.000526
312 0.000522
313 0.000519
314 0.000517
315 0.000513
316 0.000510
317 0.000507
318 0.000505
319 0.000501
320 0.000499
321 0.000496
322 0.000494
323 0.000492
324 0.000493
325 0.000491
326 0.000489
327 0.000489
328 0.000486
329 0.000484
330 0.000482
331 0.000480
332 0.000477
333 0.000471
334 0.000466
335 0.000463
336 0.000459
337 0.000456
338 0.000454
339 0.000452
340 0.000451
341 0.000450
342 0.000449
343 0.000448
344 0.000451
345 0.000453
346 0.000456
347 0.000461
348 0.000462
349 0.000461
350 0.000459
351 0.000459
352 0.000455
353 0.000453
354 0.000451
355 0.000451
356 0.000450
357 0.000450
358 0.000446
359 0.000444
360 0.000442
361 0.000440
362 0.000437
363 0.000432
364 0.000429
365 0.000426
366 0.000425
367 0.000424
368 0.000422
369 0.000420
370 0.000418
371 0.000417
372 0.000414
373 0.000407
374 0.000399
375 0.000393
376 0.000388
377 0.000384
378 0.000379
379 0.000376
380 0.000373
381 0.000370
382 0.000364
383 0.000361
384 0.000359
385 0.000357
386 0.000353
387 0.000354
388 0.000353
389 0.000353
390 0.000352
391 0.000349
392 0.000349
393 0.000347
394 0.000344
395 0.000342
396 0.000340
397 0.000341
398 0.000343
399 0.000347
400 0.000351
401 0.000356
402 0.000360
403 0.000361
404 0.000362
405 0.000364
406 0.000362
407 0.000362
408 0.000363
409 0.000361
410 0.000358
411 0.000355
412 0.000351
413 0.000347
414 0.000345
415 0.000341
416 0.000340
417 0.000337
418 0.000333
419 0.000332
420 0.000331
421 0.000330
422 0.000331
423 0.000332
424 0.000332
425 0.000332
426 0.000331
427 0.000329
428 0.000328
429 0.000328
430 0.000326
431 0.000323
432 0.000322
433 0.000319
434 0.000315
435 0.000311
436 0.000308
437 0.000307
438 0.000305
439 0.000303
440 0.000301
441 0.000298
442 0.000297
443 0.000297
444 0.000296
445 0.000292
446 0.000290
447 0.000290
448 0.000289
449 0.000290
450 0.000288
451 0.000286
452 0.000288
453 0.000289
454 0.000288
455 0.000286
456 0.000283
457 0.000279
458 0.000276
459 0.000273
460 0.000271
461 0.000269
462 0.000267
463 0.000264
464 0.000262
465 0.000258
466 0.000255
467 0.000252
468 0.000252
469 0.000252
470 0.000253
471 0.000254
472 0.000253
473 0.000257
474 0.000263
475 0.000268
476 0.000274
477 0.000278
478 0.000278
479 0.000277
480 0.000275
481 0.000272
482 0.000269
483 0.000267
484 0.000264
485 0.000263
486 0.000264
487 0.000263
488 0.000261
489 0.000260
490 0.000259
491 0.000260
492 0.000261
493 0.000263
494 0.000263
495 0.000263
496 0.000265
497 0.000269
498 0.000271
499 0.000272
500 0.000273
501 0.000274
502 0.000274
503 0.000272
504 0.000269
505 0.000269
506 0.000267
507 0.000268
508 0.000265
509 0.000265
510 0.000264
511 0.000261
512 0.000260
513 0.000259
514 0.000258
515 0.000256
516 0.000253
517 0.000248
518 0.000245
519 0.000245
520 0.000245
521 0.000247
522 0.000248
523 0.000249
524 0.000253
525 0.000254
526 0.000255
527 0.000255
528 0.000256
529 0.000259
530 0.000260
531 0.000261
532 0.000261
533 0.000263
534 0.000264
535 0.000264
536 0.000268
537 0.000272
538 0.000273
539 0.000272
540 0.000271
541 0.000271
542 0.000268
543 0.000267
544 0.000266
545 0.000265
546 0.000265
547 0.000269
548 0.000269
549 0.000269
550 0.000268
551 0.000267
552 0.000269
553 0.000268
554 0.000265
555 0.000263
556 0.000261
557 0.000258
558 0.000256
559 0.000254
560 0.000253
561 0.000251
562 0.000250
563 0.000246
564 0.000243
565 0.000243
566 0.000246
567 0.000248
568 0.000250
569 0.000250
570 0.000251
571 0.000252
572 0.000253
573 0.000250
574 0.000250
575 0.000250
576 0.000253
577 0.000253
578 0.000253
579 0.000251
580 0.000251
581 0.000251
582 0.000249
583 0.000246
584 0.000241
585 0.000235
586 0.000233
587 0.000230
588 0.000227
589 0.000227
590 0.000228
591 0.000229
592 0.000227
593 0.000225
594 0.000220
595 0.000216
596 0.000209
597 0.000205
598 0.000201
599 0.000198
600 0.000196
601 0.000190
602 0.000185
603 0.000182
604 0.000182
605 0.000182
606 0.000180
607 0.000179
608 0.000179
609 0.000180
610 0.000181
611 0.000181
612 0.000182
613 0.000182
614 0.000181
615 0.000182
616 0.000182
617 0.000181
618 0.000182
619 0.000184
620 0.000186
621 0.000187
622 0.000189
623 0.000186
624 0.000185
625 0.000184
626 0.000181
627 0.000178
628 0.000175
629 0.000175
630 0.000171
631 0.000168
632 0.000164
633 0.000160
634 0.000158
635 0.000154
636 0.000153
637 0.000154
638 0.000153
639 0.000153
640 0.000153
641 0.000154
642 0.000153
643 0.000155
644 0.000154
645 0.000151
646 0.000147
647 0.000143
648 0.000138
649 0.000136
650 0.000133
651 0.000130
652 0.000126
653 0.000123
654 0.000119
655 0.000117
656 0.000113
657 0.000108
658 0.000104
659 0.000101
660 0.000099
661 0.000097
662 0.000098
663 0.000097
664 0.000098
665 0.000098
666 0.000099
667 0.000098
668 0.000098
669 0.000098
670 0.000097
671 0.000096
672 0.000097
673 0.000095
674 0.000094
675 0.000096
676 0.000097
677 0.000097
678 0.000097
679 0.000098
680 0.000096
681 0.000096
682 0.000097
683 0.000097
684 0.000097
685 0.000095
686 0.000095
687 0.000095
688 0.000095
689 0.000092
690 0.000090
691 0.000090
692 0.000091
693 0.000093
694 0.000097
695 0.000099
696 0.000101
697 0.000106
698 0.000111
699 0.000112
700 0.000110
701 0.000109
702 0.000107
703 0.000104
704 0.000104
705 0.000103
706 0.000102
707 0.000099
708 0.000099
709 0.000098
710 0.000099
711 0.000097
712 0.000097
713 0.000098
714 0.000098
715 0.000098
716 0.000100
717 0.000101
718 0.000101
719 0.000100
720 0.000099
721 0.000094
722 0.000092
723 0.000090
724 0.000089
725 0.000088
726 0.000087
727 0.000088
728 0.000089
729 0.000090
730 0.000089
731 0.000088
732 0.000087
733 0.000086
734 0.000085
735 0.000081
736 0.000079
737 0.000078
738 0.000078
739 0.000080
740 0.000078
741 0.000077
742 0.000075
743 0.000075
744 0.000074
745 0.000070
746 0.000068
747 0.000066
748 0.000065
749 0.000065
750 0.000063
751 0.000062
752 0.000062
753 0.000062
754 0.000063
755 0.000062
756 0.000062
757 0.000062
758 0.000063
759 0.000062
760 0.000062
761 0.000064
762 0.000064
763 0.000067
764 0.000071
765 0.000074
766 0.000077
767 0.000082
768 0.000087
769 0.000092
770 0.000096
771 0.000099
772 0.000100
773 0.000102
774 0.000102
775 0.000101
776 0.000099
777 0.000099
778 0.000099
779 0.000097
780 0.000095
781 0.000093
782 0.000091
783 0.000088
784 0.000086
785 0.000082
786 0.000079
787 0.000078
788 0.000076
789 0.000075
790 0.000075
791 0.000077
792 0.000078
793 0.000079
794 0.000081
795 0.000082
796 0.000083
797 0.000084
798 0.000084
799 0.000083
800 0.000082
801 0.000081
802 0.000080
803 0.000078
804 0.000078
805 0.000078
806 0.000077
807 0.000075
808 0.000074
809 0.000075
