# i correlation
1 0.001635
2 0.001599
3 0.001565
4 0.001534
5 0.001509
6 0.001488
7 0.001467
8 0.001451
9 0.001436
10 0.001420
11 0.001408
12 0.001396
13 0.001392
14 0.001386
15 0.001376
16 0.001368
17 0.001358
18 0.001351
19 0.001346
20 0.001338
21 0.001328
22 0.001318
23 0.001310
24 0.001304
25 0.001297
26 0.001292
27 0.001289
28 0.001282
29 0.001275
30 0.001270
31 0.001264
32 0.001263
33 0.001262
34 0.001257
35 0.001252
36 0.001248
37 0.001246
38 0.001243
39 0.001240
40 0.001235
41 0.001231
42 0.001226
43 0.001218
44 0.001212
45 0.001206
46 0.001200
47 0.001197
48 0.001192
49 0.001188
50 0.001183
51 0.001179
52 0.001174
53 0.001169
54 0.001164
55 0.001166
56 0.001160
57 0.001155
58 0.001149
59 0.001142
60 0.001139
61 0.001139
62 0.001137
63 0.001132
64 0.001130
65 0.001126
66 0.001119
67 0.001109
68 0.001101
69 0.001094
70 0.001082
71 0.001075
72 0.001064
73 0.001054
74 0.001045
75 0.001034
76 0.001023
77 0.001016
78 0.001008
79 0.001004
80 0.000998
81 0.000993
82 0.000992
83 0.000989
84 0.000985
85 0.000981
86 0.000978
87 0.000978
88 0.000980
89 0.000975
90 0.000976
91 0.000974
92 0.000973
93 0.000972
94 0.000969
95 0.000964
96 0.000962
97 0.000961
98 0.000964
99 0.000964
100 0.000965
101 0.000967
102 0.000967
103 0.000968
104 0.000971
105 0.000975
106 0.000979
107 0.000981
108 0.000983
109 0.000981
110 0.000977
111 0.000974
112 0.000971
113 0.000964
114 0.000957
115 0.000952
116 0.000949
117 0.000949
118 0.000948
119 0.000948
120 0.000946
121 0.000944
122 0.000940
123 0.000937
124 0.000936
125 0.000930
126 0.000924
127 0.000916
128 0.000908
129 0.000899
130 0.000896
131 0.000893
132 0.000893
133 0.000893
134 0.000889
135 0.000889
136 0.000888
137 0.000889
138 0.000891
139 0.000890
140 0.000890
141 0.000890
142 0.000889
143 0.000894
144 0.000894
145 0.000892
146 0.000887
147 0.000877
148 0.000869
149 0.000869
150 0.000871
151 0.000877
152 0.000880
153 0.000879
154 0.000881
155 0.000877
156 0.000875
157 0.000871
158 0.000870
159 0.000872
160 0.000872
161 0.000870
162 0.000868
163 0.000865
164 0.000862
165 0.000862
166 0.000857
167 0.000853
168 0.000844
169 0.000839
170 0.000835
171 0.000831
172 0.000832
173 0.000832
174 0.000829
175 0.000828
176 0.000828
177 0.000828
178 0.000828
179 0.000832
180 0.000834
181 0.000836
182 0.000835
183 0.000836
184 0.000835
185 0.000832
186 0.000830
187 0.000824
188 0.000823
189 0.000817
190 0.000812
191 0.000805
192 0.000800
193 0.000796
194 0.000794
195 0.000791
196 0.000791
197 0.000790
198 0.000787
199 0.000788
200 0.000786
201 0.000786
202 0.000784
203 0.000780
204 0.000777
205 0.000777
206 0.000776
207 0.000778
208 0.000780
209 0.000781
210 0.000779
211 0.000778
212 0.000781
213 0.000780
214 0.000781
215 0.000779
216 0.000777
217 0.000773
218 0.000768
219 0.000762
220 0.000758
221 0.000755
222 0.000752
223 0.000749
224 0.000747
225 0.000748
226 0.000748
227 0.000752
228 0.000757
229 0.000757
230 0.000756
231 0.000754
232 0.000754
233 0.000753
234 0.000755
235 0.000754
236 0.000753
237 0.000748
238 0.000745
239 0.000740
240 0.000736
241 0.000736
242 0.000736
243 0.000738
244 0.000739
245 0.000742
246 0.000743
247 0.000743
248 0.000744
249 0.000746
250 0.000747
251 0.000748
252 0.000748
253 0.000744
254 0.000741
255 0.000738
256 0.000734
257 0.000733
258 0.000730
259 0.000731
260 0.000731
261 0.000733
262 0.000732
263 0.000737
264 0.000736
265 0.000736
266 0.000734
267 0.000736
268 0.000736
269 0.000739
270 0.000742
271 0.000743
272 0.000742
273 0.000743
274 0.000739
275 0.000734
276 0.000733
277 0.000727
278 0.000723
279 0.000714
280 0.000703
281 0.000696
282 0.000690
283 0.000685
284 0.000684
285 0.000680
286 0.000680
287 0.000679
288 0.000677
289 0.000678
290 0.000679
291 0.000677
292 0.000675
293 0.000673
294 0.000669
295 0.000668
296 0.000669
297 0.000669
298 0.000668
299 0.000666
300 0.000667
301 0.000664
302 0.000663
303 0.000663
304 0.000661
305 0.000659
306 0.000656
307 0.000652
308 0.000648
309 0.000643
310 0.000640
311 0.000638
312 0.000633
313 0.000630
314 0.000628
315 0.000626
316 0.000627
317 0.000626
318 0.000626
319 0.000622
320 0.000619
321 0.000616
322 0.000612
323 0.000607
324 0.000605
325 0.000597
326 0.000590
327 0.000584
328 0.000579
329 0.000577
330 0.000573
331 0.000570
332 0.000570
333 0.000570
334 0.000571
335 0.000571
336 0.000568
337 0.000564
338 0.000562
339 0.000556
340 0.000551
341 0.000541
342 0.000534
343 0.000526
344 0.000518
345 0.000509
346 0.000502
347 0.000496
348 0.000493
349 0.000487
350 0.000482
351 0.000483
352 0.000482
353 0.000479
354 0.000475
355 0.000475
356 0.000471
357 0.000468
358 0.000463
359 0.000458
360 0.000455
361 0.000453
362 0.000449
363 0.000445
364 0.000446
365 0.000445
366 0.000446
367 0.000448
368 0.000451
369 0.000452
370 0.000452
371 0.000456
372 0.000456
373 0.000455
374 0.000453
375 0.000450
376 0.000446
377 0.000444
378 0.000442
379 0.000441
380 0.000440
381 0.000439
382 0.000438
383 0.000438
384 0.000439
385 0.000438
386 0.000436
387 0.000433
388 0.000431
389 0.000429
390 0.000428
391 0.000426
392 0.000426
393 0.000430
394 0.000430
395 0.000433
396 0.000434
397 0.000435
398 0.000436
399 0.000436
400 0.000435
401 0.000436
402 0.000437
403 0.000438
404 0.000438
405 0.000433
406 0.000429
407 0.000425
408 0.000423
409 0.000422
410 0.000419
411 0.000417
412 0.000418
413 0.000420
414 0.000420
415 0.000423
416 0.000426
417 0.000428
418 0.000430
419 0.000429
420 0.000425
421 0.000423
422 0.000425
423 0.000424
424 0.000425
425 0.000425
426 0.000428
427 0.000428
428 0.000428
429 0.000429
430 0.000428
431 0.000425
432 0.000424
433 0.000419
434 0.000417
435 0.000417
436 0.000418
437 0.000416
438 0.000414
439 0.000411
440 0.000411
441 0.000411
442 0.000412
443 0.000414
444 0.000411
445 0.000409
446 0.000404
447 0.000396
448 0.000392
449 0.000389
450 0.000389
451 0.000391
452 0.000392
453 0.000393
454 0.000397
455 0.000396
456 0.000397
457 0.000398
458 0.000397
459 0.000400
460 0.000402
461 0.000402
462 0.000403
463 0.000400
464 0.000401
465 0.000397
466 0.000392
467 0.000389
468 0.000387
469 0.000382
470 0.000380
471 0.000376
472 0.000373
473 0.000374
474 0.000373
475 0.000376
476 0.000378
477 0.000376
478 0.000377
479 0.000378
480 0.000378
481 0.000381
482 0.000381
483 0.000385
484 0.000386
485 0.000386
486 0.000385
487 0.000383
488 0.000380
489 0.000380
490 0.000382
491 0.000384
492 0.000385
493 0.000383
494 0.000381
495 0.000377
496 0.000373
497 0.000372
498 0.000374
499 0.000377
500 0.000382
501 0.000388
502 0.000391
503 0.000394
504 0.000394
505 0.000394
506 0.000395
507 0.000394
508 0.000391
509 0.000387
510 0.000381
511 0.000373
512 0.000366
513 0.000359
514 0.000355
515 0.000353
516 0.000350
517 0.000347
518 0.000345
519 0.000344
520 0.000344
521 0.000343
522 0.000345
523 0.000346
524 0.000349
525 0.000349
526 0.000347
527 0.000344
528 0.000344
529 0.000342
530 0.000342
531 0.000340
532 0.000338
533 0.000338
534 0.000339
535 0.000339
536 0.000341
537 0.000343
538 0.000343
539 0.000341
540 0.000339
541 0.000339
542 0.000339
543 0.000339
544 0.000338
545 0.000338
546 0.000334
547 0.000333
548 0.000333
549 0.000334
550 0.000335
551 0.000335
552 0.000338
553 0.000336
554 0.000335
555 0.000333
556 0.000333
557 0.000331
558 0.000329
559 0.000324
560 0.000321
561 0.000315
562 0.000313
563 0.000313
564 0.000313
565 0.000314
566 0.000313
567 0.000315
568 0.000318
569 0.000321
570 0.000321
571 0.000320
572 0.000319
573 0.000316
574 0.000310
575 0.000304
576 0.000301
577 0.000297
578 0.000292
579 0.000286
580 0.000282
581 0.000281
582 0.000278
583 0.000276
584 0.000275
585 0.000274
586 0.000271
587 0.000268
588 0.000265
589 0.000263
590 0.000259
591 0.000256
592 0.000255
593 0.000251
594 0.000250
595 0.000248
596 0.000246
597 0.000246
598 0.000246
599 0.000248
600 0.000251
601 0.000251
602 0.000252
603 0.000253
604 0.000251
605 0.000253
606 0.000254
607 0.000255
608 0.000258
609 0.000259
610 0.000259
611 0.000259
612 0.000257
613 0.000257
614 0.000257
615 0.000258
616 0.000258
617 0.000257
618 0.000255
619 0.000253
620 0.000249
621 0.000248
622 0.000246
623 0.000241
624 0.000242
625 0.000239
626 0.000238
627 0.000237
628 0.000231
629 0.000227
630 0.000221
631 0.000216
632 0.000212
633 0.000209
634 0.000206
635 0.000207
636 0.000211
637 0.000216
638 0.000219
639 0.000221
640 0.000225
641 0.000228
642 0.000233
643 0.000237
644 0.000241
645 0.000244
646 0.000244
647 0.000244
648 0.000242
649 0.000239
650 0.000237
651 0.000235
652 0.000233
653 0.000229
654 0.000227
655 0.000223
656 0.000223
657 0.000222
658 0.000222
659 0.000221
660 0.000220
661 0.000220
662 0.000217
663 0.000216
664 0.000215
665 0.000214
666 0.000213
667 0.000209
668 0.000206
669 0.000203
670 0.000200
671 0.000196
672 0.000192
673 0.000190
674 0.000189
675 0.000190
676 0.000189
677 0.000189
678 0.000187
679 0.000187
680 0.000188
681 0.000189
682 0.000191
683 0.000191
684 0.000190
685 0.000190
686 0.000191
687 0.000192
688 0.000197
689 0.000201
690 0.000203
691 0.000203
692 0.000203
693 0.000204
694 0.000205
695 0.000210
696 0.000212
697 0.000212
698 0.000210
699 0.000210
700 0.000210
701 0.000210
702 0.000212
703 0.000215
704 0.000217
705 0.000217
706 0.000218
707 0.000219
708 0.000223
709 0.000226
710 0.000227
711 0.000226
712 0.000227
713 0.000227
714 0.000228
715 0.000227
716 0.000227
717 0.000224
718 0.000220
719 0.000218
720 0.000213
721 0.000208
722 0.000205
723 0.000200
724 0.000196
725 0.000192
726 0.000190
727 0.000191
728 0.000190
729 0.000189
730 0.000188
731 0.000187
732 0.000187
733 0.000185
734 0.000181
735 0.000178
736 0.000177
737 0.000177
738 0.000177
739 0.000173
740 0.000172
741 0.000170
742 0.000171
743 0.000169
744 0.000167
745 0.000164
746 0.000163
747 0.000160
748 0.000162
749 0.000163
750 0.000166
751 0.000170
752 0.000174
753 0.000178
754 0.000181
755 0.000182
756 0.000183
757 0.000184
758 0.000183
759 0.000186
760 0.000188
761 0.000190
762 0.000190
763 0.000186
764 0.000186
765 0.000186
766 0.000183
767 0.000181
768 0.000179
769 0.000177
770 0.000174
771 0.000169
772 0.000163
773 0.000160
774 0.000155
775 0.000151
776 0.000147
777 0.000144
778 0.000142
779 0.000140
780 0.000140
781 0.000139
782 0.000137
783 0.000135
784 0.000130
785 0.000124
786 0.000121
787 0.000120
788 0.000118
789 0.000114
790 0.000110
791 0.000107
792 0.000104
793 0.000105
794 0.000106
795 0.000104
796 0.000105
797 0.000107
798 0.000108
799 0.000108
800 0.000107
801 0.000110
802 0.000113
803 0.000116
804 0.000118
805 0.000118
806 0.000120
807 0.000121
808 0.000122
809 0.000122
