# i correlation
1 0.001491
2 0.001453
3 0.001419
4 0.001389
5 0.001365
6 0.001340
7 0.001318
8 0.001304
9 0.001292
10 0.001282
11 0.001273
12 0.001268
13 0.001264
14 0.001255
15 0.001245
16 0.001235
17 0.001225
18 0.001214
19 0.001207
20 0.001196
21 0.001185
22 0.001174
23 0.001164
24 0.001153
25 0.001145
26 0.001137
27 0.001134
28 0.001127
29 0.001122
30 0.001117
31 0.001111
32 0.001105
33 0.001099
34 0.001096
35 0.001097
36 0.001094
37 0.001090
38 0.001085
39 0.001080
40 0.001075
41 0.001070
42 0.001065
43 0.001059
44 0.001057
45 0.001057
46 0.001058
47 0.001058
48 0.001054
49 0.001047
50 0.001041
51 0.001033
52 0.001025
53 0.001018
54 0.001013
55 0.001007
56 0.001003
57 0.001001
58 0.001000
59 0.001000
60 0.001002
61 0.001001
62 0.001000
63 0.000998
64 0.000994
65 0.000992
66 0.000985
67 0.000976
68 0.000967
69 0.000961
70 0.000957
71 0.000952
72 0.000945
73 0.000937
74 0.000931
75 0.000924
76 0.000915
77 0.000908
78 0.000903
79 0.000898
80 0.000896
81 0.000893
82 0.000891
83 0.000887
84 0.000884
85 0.000881
86 0.000878
87 0.000871
88 0.000867
89 0.000864
90 0.000860
91 0.000854
92 0.000848
93 0.000842
94 0.000839
95 0.000838
96 0.000834
97 0.000830
98 0.000825
99 0.000822
100 0.000817
101 0.000812
102 0.000807
103 0.000806
104 0.000806
105 0.000805
106 0.000801
107 0.000801
108 0.000800
109 0.000799
110 0.000796
111 0.000794
112 0.000790
113 0.000786
114 0.000781
115 0.000774
116 0.000769
117 0.000765
118 0.000763
119 0.000760
120 0.000759
121 0.000757
122 0.000759
123 0.000762
124 0.000759
125 0.000755
126 0.000755
127 0.000755
128 0.000753
129 0.000750
130 0.000750
131 0.000751
132 0.000750
133 0.000748
134 0.000745
135 0.000746
136 0.000745
137 0.000742
138 0.000742
139 0.000739
140 0.000735
141 0.000733
142 0.000729
143 0.000726
144 0.000722
145 0.000722
146 0.000720
147 0.000716
148 0.000716
149 0.000712
150 0.000708
151 0.000705
152 0.000704
153 0.000700
154 0.000697
155 0.000692
156 0.000688
157 0.000684
158 0.000680
159 0.000673
160 0.000669
161 0.000665
162 0.000661
163 0.000653
164 0.000648
165 0.000645
166 0.000642
167 0.000639
168 0.000640
169 0.000639
170 0.000638
171 0.000634
172 0.000630
173 0.000625
174 0.000622
175 0.000617
176 0.000613
177 0.000609
178 0.000602
179 0.000600
180 0.000594
181 0.000588
182 0.000581
183 0.000579
184 0.000578
185 0.000575
186 0.000572
187 0.000568
188 0.000568
189 0.000568
190 0.000564
191 0.000564
192 0.000567
193 0.000572
194 0.000572
195 0.000570
196 0.000568
197 0.000563
198 0.000558
199 0.000552
200 0.000546
201 0.000542
202 0.000538
203 0.000532
204 0.000528
205 0.000524
206 0.000523
207 0.000518
208 0.000515
209 0.000514
210 0.000514
211 0.000517
212 0.000520
213 0.000519
214 0.000519
215 0.000524
216 0.000530
217 0.000534
218 0.000539
219 0.000541
220 0.000543
221 0.000542
222 0.000542
223 0.000538
224 0.000535
225 0.000531
226 0.000527
227 0.000526
228 0.000523
229 0.000523
230 0.000525
231 0.000530
232 0.000536
233 0.000541
234 0.000545
235 0.000548
236 0.000548
237 0.000550
238 0.000552
239 0.000552
240 0.000551
241 0.000549
242 0.000546
243 0.000540
244 0.000535
245 0.000529
246 0.000524
247 0.000520
248 0.000516
249 0.000512
250 0.000510
251 0.000512
252 0.000514
253 0.000518
254 0.000519
255 0.000520
256 0.000520
257 0.000522
258 0.000522
259 0.000518
260 0.000515
261 0.000511
262 0.000503
263 0.000499
264 0.000496
265 0.000497
266 0.000494
267 0.000492
268 0.000492
269 0.000492
270 0.000487
271 0.000485
272 0.000481
273 0.000477
274 0.000476
275 0.000472
276 0.000469
277 0.000468
278 0.000467
279 0.000468
280 0.000468
281 0.000471
282 0.000472
283 0.000472
284 0.000473
285 0.000469
286 0.000466
287 0.000464
288 0.000463
289 0.000462
290 0.000462
291 0.000463
292 0.000463
293 0.000464
294 0.000460
295 0.000456
296 0.000455
297 0.000452
298 0.000451
299 0.000450
300 0.000452
301 0.000453
302 0.000456
303 0.000459
304 0.000462
305 0.000465
306 0.000469
307 0.000470
308 0.000467
309 0.000465
310 0.000461
311 0.000461
312 0.000463
313 0.000461
314 0.000457
315 0.000455
316 0.000453
317 0.000451
318 0.000448
319 0.000444
320 0.000441
321 0.000435
322 0.000429
323 0.000425
324 0.000420
325 0.000419
326 0.000419
327 0.000418
328 0.000419
329 0.000417
330 0.000413
331 0.000407
332 0.000399
333 0.000394
334 0.000386
335 0.000378
336 0.000370
337 0.000364
338 0.000361
339 0.000360
340 0.000358
341 0.000356
342 0.000353
343 0.000350
344 0.000351
345 0.000352
346 0.000353
347 0.000355
348 0.000354
349 0.000354
350 0.000354
351 0.000350
352 0.000348
353 0.000346
354 0.000346
355 0.000343
356 0.000342
357 0.000339
358 0.000339
359 0.000336
360 0.000338
361 0.000339
362 0.000344
363 0.000349
364 0.000355
365 0.000362
366 0.000368
367 0.000372
368 0.000376
369 0.000376
370 0.000374
371 0.000373
372 0.000371
373 0.000372
374 0.000369
375 0.000365
376 0.000367
377 0.000366
378 0.000363
379 0.000359
380 0.000356
381 0.000354
382 0.000348
383 0.000342
384 0.000335
385 0.000330
386 0.000330
387 0.000327
388 0.000324
389 0.000321
390 0.000318
391 0.000317
392 0.000319
393 0.000319
394 0.000320
395 0.000322
396 0.000319
397 0.000317
398 0.000312
399 0.000302
400 0.000295
401 0.000290
402 0.000283
403 0.000279
404 0.000276
405 0.000273
406 0.000272
407 0.000272
408 0.000273
409 0.000275
410 0.000277
411 0.000278
412 0.000279
413 0.000279
414 0.000277
415 0.000276
416 0.000277
417 0.000279
418 0.000274
419 0.000271
420 0.000267
421 0.000265
422 0.000266
423 0.000268
424 0.000270
425 0.000276
426 0.000282
427 0.000288
428 0.000293
429 0.000297
430 0.000300
431 0.000303
432 0.000304
433 0.000307
434 0.000311
435 0.000313
436 0.000315
437 0.000314
438 0.000313
439 0.000311
440 0.000308
441 0.000303
442 0.000302
443 0.000302
444 0.000303
445 0.000303
446 0.000302
447 0.000301
448 0.000300
449 0.000299
450 0.000299
451 0.000301
452 0.000303
453 0.000305
454 0.000307
455 0.000308
456 0.000307
457 0.000308
458 0.000311
459 0.000312
460 0.000310
461 0.000311
462 0.000313
463 0.000314
464 0.000314
465 0.000314
466 0.000315
467 0.000315
468 0.000314
469 0.000311
470 0.000306
471 0.000302
472 0.000302
473 0.000302
474 0.000299
475 0.000298
476 0.000298
477 0.000300
478 0.000297
479 0.000294
480 0.000292
481 0.000289
482 0.000285
483 0.000277
484 0.000271
485 0.000269
486 0.000267
487 0.000266
488 0.000263
489 0.000263
490 0.000263
491 0.000263
492 0.000266
493 0.000270
494 0.000274
495 0.000276
496 0.000278
497 0.000279
498 0.000280
499 0.000283
500 0.000284
501 0.000283
502 0.000282
503 0.000279
504 0.000278
505 0.000276
506 0.000277
507 0.000278
508 0.000280
509 0.000283
510 0.000281
511 0.000280
512 0.000279
513 0.000278
514 0.000278
515 0.000278
516 0.000276
517 0.000271
518 0.000271
519 0.000270
520 0.000270
521 0.000271
522 0.000275
523 0.000278
524 0.000283
525 0.000285
526 0.000285
527 0.000281
528 0.000279
529 0.000276
530 0.000271
531 0.000267
532 0.000263
533 0.000259
534 0.000259
535 0.000258
536 0.000260
537 0.000262
538 0.000263
539 0.000268
540 0.000268
541 0.000267
542 0.000268
543 0.000270
544 0.000272
545 0.000272
546 0.000268
547 0.000267
548 0.000265
549 0.000264
550 0.000264
551 0.000262
552 0.000258
553 0.000254
554 0.000249
555 0.000248
556 0.000246
557 0.000245
558 0.000246
559 0.000248
560 0.000254
561 0.000256
562 0.000261
563 0.000262
564 0.000263
565 0.000264
566 0.000263
567 0.000262
568 0.000257
569 0.000256
570 0.000253
571 0.000252
572 0.000252
573 0.000248
574 0.000247
575 0.000244
576 0.000239
577 0.000236
578 0.000231
579 0.000225
580 0.000222
581 0.000221
582 0.000220
583 0.000220
584 0.000220
585 0.000221
586 0.000223
587 0.000223
588 0.000222
589 0.000222
590 0.000223
591 0.000221
592 0.000217
593 0.000212
594 0.000209
595 0.000206
596 0.000207
597 0.000208
598 0.000208
599 0.000209
600 0.000211
601 0.000210
602 0.000213
603 0.000215
604 0.000219
605 0.000224
606 0.000227
607 0.000231
608 0.000235
609 0.000236
610 0.000238
611 0.000236
612 0.000233
613 0.000233
614 0.000230
615 0.000227
616 0.000223
617 0.000220
618 0.000218
619 0.000217
620 0.000215
621 0.000217
622 0.000218
623 0.000217
624 0.000215
625 0.000214
626 0.000212
627 0.000210
628 0.000206
629 0.000203
630 0.000204
631 0.000203
632 0.000203
633 0.000203
634 0.000204
635 0.000204
636 0.000203
637 0.000202
638 0.000200
639 0.000195
640 0.000188
641 0.000182
642 0.000177
643 0.000170
644 0.000164
645 0.000161
646 0.000161
647 0.000160
648 0.000161
649 0.000159
650 0.000158
651 0.000159
652 0.000159
653 0.000159
654 0.000160
655 0.000162
656 0.000162
657 0.000160
658 0.000158
659 0.000157
660 0.000156
661 0.000157
662 0.000157
663 0.000155
664 0.000153
665 0.000154
666 0.000155
667 0.000159
668 0.000163
669 0.000168
670 0.000172
671 0.000175
672 0.000177
673 0.000179
674 0.000181
675 0.000181
676 0.000180
677 0.000179
678 0.000179
679 0.000181
680 0.000183
681 0.000185
682 0.000189
683 0.000192
684 0.000196
685 0.000199
686 0.000203
687 0.000205
688 0.000208
689 0.000208
690 0.000208
691 0.000207
692 0.000206
693 0.000205
694 0.000203
695 0.000202
696 0.000200
697 0.000198
698 0.000197
699 0.000197
700 0.000196
701 0.000195
702 0.000193
703 0.000191
704 0.000190
705 0.000189
706 0.000186
707 0.000185
708 0.000184
709 0.000183
710 0.000181
711 0.000178
712 0.000178
713 0.000177
714 0.000177
715 0.000175
716 0.000175
717 0.000175
718 0.000174
719 0.000174
720 0.000177
721 0.000178
722 0.000178
723 0.000175
724 0.000171
725 0.000168
726 0.000166
727 0.000164
728 0.000162
729 0.000161
730 0.000161
731 0.000161
732 0.000161
733 0.000161
734 0.000162
735 0.000159
736 0.000157
737 0.000156
738 0.000156
739 0.000157
740 0.000159
741 0.000160
742 0.000163
743 0.000165
744 0.000168
745 0.000170
746 0.000170
747 0.000167
748 0.000164
749 0.000160
750 0.000155
751 0.000151
752 0.000146
753 0.000146
754 0.000145
755 0.000144
756 0.000144
757 0.000145
758 0.000147
759 0.000147
760 0.000146
761 0.000145
762 0.000144
763 0.000141
764 0.000139
765 0.000135
766 0.000133
767 0.000130
768 0.000127
769 0.000124
770 0.000121
771 0.000120
772 0.000119
773 0.000120
774 0.000120
775 0.000119
776 0.000120
777 0.000120
778 0.000121
779 0.000121
780 0.000120
781 0.000119
782 0.000118
783 0.000120
784 0.000123
785 0.000125
786 0.000124
787 0.000125
788 0.000125
789 0.000125
790 0.000125
791 0.000125
792 0.000126
793 0.000129
794 0.000130
795 0.000130
796 0.000129
797 0.000127
798 0.000125
799 0.000123
800 0.000121
801 0.000120
802 0.000121
803 0.000123
804 0.000124
805 0.000126
806 0.000128
807 0.000131
808 0.000134
809 0.000134
