# i correlation
1 0.001783
2 0.001744
3 0.001710
4 0.001680
5 0.001653
6 0.001626
7 0.001601
8 0.001580
9 0.001561
10 0.001542
11 0.001529
12 0.001516
13 0.001503
14 0.001492
15 0.001484
16 0.001474
17 0.001466
18 0.001462
19 0.001455
20 0.001453
21 0.001450
22 0.001446
23 0.001440
24 0.001433
25 0.001426
26 0.001418
27 0.001414
28 0.001415
29 0.001414
30 0.001412
31 0.001407
32 0.001402
33 0.001394
34 0.001383
35 0.001374
36 0.001369
37 0.001361
38 0.001352
39 0.001343
40 0.001332
41 0.001319
42 0.001310
43 0.001303
44 0.001296
45 0.001288
46 0.001283
47 0.001277
48 0.001273
49 0.001267
50 0.001262
51 0.001262
52 0.001261
53 0.001259
54 0.001254
55 0.001253
56 0.001250
57 0.001247
58 0.001245
59 0.001243
60 0.001240
61 0.001239
62 0.001238
63 0.001238
64 0.001235
65 0.001232
66 0.001226
67 0.001221
68 0.001214
69 0.001209
70 0.001206
71 0.001195
72 0.001186
73 0.001176
74 0.001171
75 0.001163
76 0.001156
77 0.001150
78 0.001145
79 0.001140
80 0.001140
81 0.001140
82 0.001140
83 0.001139
84 0.001137
85 0.001134
86 0.001130
87 0.001126
88 0.001120
89 0.001116
90 0.001111
91 0.001106
92 0.001103
93 0.001102
94 0.001101
95 0.001100
96 0.001095
97 0.001089
98 0.001078
99 0.001068
100 0.001058
101 0.001050
102 0.001043
103 0.001037
104 0.001031
105 0.001024
106 0.001016
107 0.001010
108 0.001003
109 0.000994
110 0.000987
111 0.000979
112 0.000973
113 0.000970
114 0.000969
115 0.000966
116 0.000966
117 0.000965
118 0.000963
119 0.000961
120 0.000959
121 0.000955
122 0.000951
123 0.000944
124 0.000938
125 0.000936
126 0.000935
127 0.000934
128 0.000930
129 0.000926
130 0.000920
131 0.000912
132 0.000906
133 0.000901
134 0.000894
135 0.000888
136 0.000880
137 0.000876
138 0.000871
139 0.000865
140 0.000858
141 0.000854
142 0.000854
143 0.000853
144 0.000856
145 0.000860
146 0.000866
147 0.000866
148 0.000863
149 0.000859
150 0.000858
151 0.000859
152 0.000858
153 0.000854
154 0.000850
155 0.000847
156 0.000850
157 0.000849
158 0.000847
159 0.000842
160 0.000839
161 0.000836
162 0.000833
163 0.000833
164 0.000835
165 0.000837
166 0.000840
167 0.000844
168 0.000848
169 0.000849
170 0.000848
171 0.000847
172 0.000844
173 0.000841
174 0.000839
175 0.000838
176 0.000840
177 0.000845
178 0.000849
179 0.000854
180 0.000858
181 0.000862
182 0.000863
183 0.000867
184 0.000866
185 0.000868
186 0.000871
187 0.000872
188 0.000875
189 0.000877
190 0.000877
191 0.000874
192 0.000868
193 0.000861
194 0.000857
195 0.000851
196 0.000845
197 0.000839
198 0.000835
199 0.000832
200 0.000830
201 0.000825
202 0.000817
203 0.000813
204 0.000809
205 0.000804
206 0.000797
207 0.000793
208 0.000789
209 0.000787
210 0.000779
211 0.000775
212 0.000775
213 0.000771
214 0.000768
215 0.000767
216 0.000771
217 0.000772
218 0.000772
219 0.000775
220 0.000776
221 0.000779
222 0.000781
223 0.000783
224 0.000784
225 0.000781
226 0.000773
227 0.000765
228 0.000763
229 0.000762
230 0.000758
231 0.000753
232 0.000748
233 0.000745
234 0.000742
235 0.000734
236 0.000730
237 0.000724
238 0.000718
239 0.000714
240 0.000717
241 0.000718
242 0.000718
243 0.000720
244 0.000722
245 0.000724
246 0.000723
247 0.000723
248 0.000720
249 0.000720
250 0.000719
251 0.000722
252 0.000724
253 0.000727
254 0.000726
255 0.000724
256 0.000720
257 0.000718
258 0.000719
259 0.000718
260 0.000718
261 0.000716
262 0.000716
263 0.000713
264 0.000711
265 0.000708
266 0.000705
267 0.000699
268 0.000697
269 0.000691
270 0.000686
271 0.000683
272 0.000681
273 0.000681
274 0.000680
275 0.000676
276 0.000674
277 0.000669
278 0.000666
279 0.000664
280 0.000661
281 0.000659
282 0.000653
283 0.000652
284 0.000647
285 0.000644
286 0.000641
287 0.000637
288 0.000634
289 0.000632
290 0.000630
291 0.000627
292 0.000624
293 0.000619
294 0.000613
295 0.000608
296 0.000603
297 0.000601
298 0.000599
299 0.000597
300 0.000593
301 0.000589
302 0.000586
303 0.000585
304 0.000582
305 0.000581
306 0.000580
307 0.000577
308 0.000576
309 0.000574
310 0.000572
311 0.000570
312 0.000570
313 0.000570
314 0.000570
315 0.000566
316 0.000562
317 0.000554
318 0.000545
319 0.000537
320 0.000532
321 0.000525
322 0.000517
323 0.000513
324 0.000509
325 0.000510
326 0.000506
327 0.000505
328 0.000505
329 0.000504
330 0.000500
331 0.000494
332 0.000488
333 0.000482
334 0.000476
335 0.000470
336 0.000469
337 0.000466
338 0.000463
339 0.000456
340 0.000450
341 0.000448
342 0.000448
343 0.000449
344 0.000450
345 0.000451
346 0.000453
347 0.000454
348 0.000458
349 0.000463
350 0.000469
351 0.000475
352 0.000478
353 0.000477
354 0.000474
355 0.000471
356 0.000469
357 0.000466
358 0.000464
359 0.000465
360 0.000466
361 0.000468
362 0.000468
363 0.000470
364 0.000470
365 0.000469
366 0.000468
367 0.000470
368 0.000472
369 0.000473
370 0.000471
371 0.000469
372 0.000469
373 0.000466
374 0.000463
375 0.000460
376 0.000457
377 0.000453
378 0.000450
379 0.000447
380 0.000446
381 0.000444
382 0.000443
383 0.000441
384 0.000439
385 0.000440
386 0.000442
387 0.000443
388 0.000444
389 0.000443
390 0.000442
391 0.000440
392 0.000440
393 0.000435
394 0.000429
395 0.000428
396 0.000426
397 0.000425
398 0.000423
399 0.000425
400 0.000428
401 0.000426
402 0.000425
403 0.000427
404 0.000429
405 0.000433
406 0.000437
407 0.000441
408 0.000444
409 0.000445
410 0.000445
411 0.000444
412 0.000441
413 0.000438
414 0.000435
415 0.000429
416 0.000423
417 0.000417
418 0.000413
419 0.000410
420 0.000410
421 0.000408
422 0.000406
423 0.000404
424 0.000402
425 0.000403
426 0.000401
427 0.000398
428 0.000399
429 0.000401
430 0.000404
431 0.000406
432 0.000409
433 0.000412
434 0.000415
435 0.000419
436 0.000421
437 0.000425
438 0.000426
439 0.000426
440 0.000426
441 0.000429
442 0.000430
443 0.000433
444 0.000434
445 0.000436
446 0.000438
447 0.000440
448 0.000441
449 0.000443
450 0.000445
451 0.000445
452 0.000447
453 0.000452
454 0.000454
455 0.000458
456 0.000462
457 0.000467
458 0.000473
459 0.000476
460 0.000478
461 0.000481
462 0.000483
463 0.000483
464 0.000481
465 0.000483
466 0.000484
467 0.000484
468 0.000485
469 0.000489
470 0.000495
471 0.000499
472 0.000501
473 0.000500
474 0.000498
475 0.000496
476 0.000495
477 0.000494
478 0.000491
479 0.000489
480 0.000490
481 0.000495
482 0.000497
483 0.000499
484 0.000498
485 0.000494
486 0.000492
487 0.000489
488 0.000488
489 0.000488
490 0.000486
491 0.000484
492 0.000486
493 0.000490
494 0.000491
495 0.000493
496 0.000492
497 0.000492
498 0.000492
499 0.000494
500 0.000493
501 0.000491
502 0.000493
503 0.000493
504 0.000493
505 0.000491
506 0.000489
507 0.000487
508 0.000485
509 0.000482
510 0.000480
511 0.000479
512 0.000475
513 0.000474
514 0.000473
515 0.000473
516 0.000471
517 0.000470
518 0.000469
519 0.000470
520 0.000471
521 0.000471
522 0.000469
523 0.000467
524 0.000466
525 0.000468
526 0.000467
527 0.000466
528 0.000465
529 0.000463
530 0.000460
531 0.000460
532 0.000462
533 0.000460
534 0.000461
535 0.000460
536 0.000461
537 0.000460
538 0.000459
539 0.000458
540 0.000458
541 0.000458
542 0.000456
543 0.000452
544 0.000448
545 0.000444
546 0.000439
547 0.000432
548 0.000426
549 0.000422
550 0.000420
551 0.000422
552 0.000420
553 0.000421
554 0.000419
555 0.000418
556 0.000418
557 0.000421
558 0.000422
559 0.000419
560 0.000415
561 0.000411
562 0.000407
563 0.000403
564 0.000399
565 0.000396
566 0.000391
567 0.000388
568 0.000386
569 0.000383
570 0.000378
571 0.000377
572 0.000376
573 0.000376
574 0.000378
575 0.000380
576 0.000380
577 0.000379
578 0.000379
579 0.000376
580 0.000371
581 0.000363
582 0.000354
583 0.000346
584 0.000339
585 0.000332
586 0.000329
587 0.000326
588 0.000324
589 0.000324
590 0.000322
591 0.000321
592 0.000320
593 0.000320
594 0.000318
595 0.000316
596 0.000314
597 0.000313
598 0.000312
599 0.000309
600 0.000306
601 0.000307
602 0.000307
603 0.000310
604 0.000313
605 0.000311
606 0.000311
607 0.000310
608 0.000310
609 0.000309
610 0.000307
611 0.000303
612 0.000299
613 0.000291
614 0.000285
615 0.000281
616 0.000278
617 0.000277
618 0.000274
619 0.000274
620 0.000274
621 0.000278
622 0.000281
623 0.000282
624 0.000283
625 0.000283
626 0.000284
627 0.000283
628 0.000285
629 0.000286
630 0.000287
631 0.000287
632 0.000286
633 0.000285
634 0.000282
635 0.000278
636 0.000275
637 0.000277
638 0.000277
639 0.000279
640 0.000282
641 0.000283
642 0.000283
643 0.000282
644 0.000279
645 0.000277
646 0.000271
647 0.000262
648 0.000258
649 0.000256
650 0.000256
651 0.000252
652 0.000250
653 0.000250
654 0.000251
655 0.000249
656 0.000247
657 0.000248
658 0.000249
659 0.000251
660 0.000253
661 0.000256
662 0.000258
663 0.000256
664 0.000253
665 0.000251
666 0.000251
667 0.000249
668 0.000248
669 0.000247
670 0.000246
671 0.000246
672 0.000246
673 0.000245
674 0.000242
675 0.000240
676 0.000236
677 0.000234
678 0.000232
679 0.000230
680 0.000227
681 0.000225
682 0.000223
683 0.000220
684 0.000219
685 0.000216
686 0.000216
687 0.000217
688 0.000220
689 0.000222
690 0.000223
691 0.000224
692 0.000222
693 0.000221
694 0.000217
695 0.000214
696 0.000213
697 0.000212
698 0.000209
699 0.000207
700 0.000205
701 0.000205
702 0.000207
703 0.000206
704 0.000203
705 0.000204
706 0.000204
707 0.000203
708 0.000202
709 0.000199
710 0.000198
711 0.000197
712 0.000196
713 0.000195
714 0.000197
715 0.000198
716 0.000198
717 0.000198
718 0.000198
719 0.000198
720 0.000200
721 0.000202
722 0.000202
723 0.000204
724 0.000205
725 0.000206
726 0.000208
727 0.000208
728 0.000210
729 0.000211
730 0.000210
731 0.000208
732 0.000207
733 0.000205
734 0.000202
735 0.000201
736 0.000201
737 0.000198
738 0.000196
739 0.000193
740 0.000189
741 0.000184
742 0.000180
743 0.000178
744 0.000177
745 0.000173
746 0.000169
747 0.000166
748 0.000162
749 0.000159
750 0.000159
751 0.000159
752 0.000158
753 0.000156
754 0.000157
755 0.000160
756 0.000164
757 0.000168
758 0.000174
759 0.000177
760 0.000178
761 0.000179
762 0.000179
763 0.000177
764 0.000175
765 0.000173
766 0.000172
767 0.000171
768 0.000168
769 0.000167
770 0.000166
771 0.000162
772 0.000163
773 0.000162
774 0.000161
775 0.000161
776 0.000161
777 0.000158
778 0.000154
779 0.000150
780 0.000145
781 0.000143
782 0.000141
783 0.000139
784 0.000138
785 0.000137
786 0.000138
787 0.000140
788 0.000140
789 0.000138
790 0.000136
791 0.000138
792 0.000139
793 0.000137
794 0.000138
795 0.000139
796 0.000140
797 0.000142
798 0.000143
799 0.000143
800 0.000142
801 0.000139
802 0.000137
803 0.000132
804 0.000126
805 0.000119
806 0.000115
807 0.000112
808 0.000110
809 0.000108
