# i correlation
1 0.001518
2 0.001479
3 0.001446
4 0.001419
5 0.001392
6 0.001363
7 0.001341
8 0.001322
9 0.001311
10 0.001296
11 0.001281
12 0.001274
13 0.001270
14 0.001263
15 0.001255
16 0.001247
17 0.001238
18 0.001230
19 0.001219
20 0.001206
21 0.001192
22 0.001180
23 0.001168
24 0.001157
25 0.001147
26 0.001137
27 0.001130
28 0.001122
29 0.001111
30 0.001101
31 0.001093
32 0.001089
33 0.001086
34 0.001078
35 0.001069
36 0.001062
37 0.001057
38 0.001053
39 0.001047
40 0.001041
41 0.001036
42 0.001028
43 0.001017
44 0.001006
45 0.001000
46 0.000993
47 0.000988
48 0.000983
49 0.000981
50 0.000982
51 0.000984
52 0.000982
53 0.000980
54 0.000980
55 0.000978
56 0.000974
57 0.000965
58 0.000957
59 0.000956
60 0.000953
61 0.000946
62 0.000936
63 0.000929
64 0.000923
65 0.000919
66 0.000915
67 0.000913
68 0.000914
69 0.000914
70 0.000914
71 0.000915
72 0.000918
73 0.000919
74 0.000919
75 0.000920
76 0.000915
77 0.000915
78 0.000916
79 0.000917
80 0.000917
81 0.000916
82 0.000914
83 0.000915
84 0.000916
85 0.000917
86 0.000918
87 0.000916
88 0.000916
89 0.000915
90 0.000912
91 0.000913
92 0.000912
93 0.000913
94 0.000912
95 0.000909
96 0.000908
97 0.000906
98 0.000906
99 0.000906
100 0.000905
101 0.000904
102 0.000900
103 0.000896
104 0.000891
105 0.000885
106 0.000882
107 0.000882
108 0.000880
109 0.000878
110 0.000873
111 0.000866
112 0.000859
113 0.000854
114 0.000845
115 0.000837
116 0.000831
117 0.000822
118 0.000814
119 0.000808
120 0.000806
121 0.000800
122 0.000797
123 0.000794
124 0.000792
125 0.000789
126 0.000785
127 0.000778
128 0.000775
129 0.000770
130 0.000764
131 0.000758
132 0.000751
133 0.000744
134 0.000738
135 0.000736
136 0.000733
137 0.000728
138 0.000723
139 0.000723
140 0.000725
141 0.000727
142 0.000726
143 0.000726
144 0.000726
145 0.000724
146 0.000721
147 0.000718
148 0.000718
149 0.000717
150 0.000716
151 0.000714
152 0.000710
153 0.000706
154 0.000703
155 0.000701
156 0.000699
157 0.000700
158 0.000703
159 0.000705
160 0.000706
161 0.000706
162 0.000710
163 0.000714
164 0.000717
165 0.000717
166 0.000718
167 0.000717
168 0.000717
169 0.000719
170 0.000717
171 0.000716
172 0.000711
173 0.000709
174 0.000706
175 0.000708
176 0.000711
177 0.000715
178 0.000713
179 0.000711
180 0.000709
181 0.000708
182 0.000712
183 0.000710
184 0.000708
185 0.000709
186 0.000708
187 0.000708
188 0.000707
189 0.000709
190 0.000712
191 0.000713
192 0.000716
193 0.000715
194 0.000716
195 0.000719
196 0.000725
197 0.000726
198 0.000724
199 0.000723
200 0.000721
201 0.000717
202 0.000710
203 0.000706
204 0.000705
205 0.000702
206 0.000696
207 0.000691
208 0.000686
209 0.000684
210 0.000683
211 0.000682
212 0.000680
213 0.000676
214 0.000676
215 0.000676
216 0.000675
217 0.000674
218 0.000677
219 0.000679
220 0.000681
221 0.000680
222 0.000676
223 0.000673
224 0.000669
225 0.000664
226 0.000657
227 0.000654
228 0.000651
229 0.000650
230 0.000647
231 0.000638
232 0.000632
233 0.000626
234 0.000622
235 0.000614
236 0.000609
237 0.000605
238 0.000604
239 0.000600
240 0.000593
241 0.000586
242 0.000579
243 0.000575
244 0.000571
245 0.000569
246 0.000568
247 0.000565
248 0.000566
249 0.000568
250 0.000571
251 0.000571
252 0.000572
253 0.000572
254 0.000571
255 0.000570
256 0.000568
257 0.000567
258 0.000562
259 0.000561
260 0.000558
261 0.000555
262 0.000551
263 0.000548
264 0.000547
265 0.000543
266 0.000538
267 0.000533
268 0.000530
269 0.000528
270 0.000529
271 0.000533
272 0.000534
273 0.000532
274 0.000531
275 0.000529
276 0.000527
277 0.000526
278 0.000525
279 0.000521
280 0.000518
281 0.000517
282 0.000513
283 0.000511
284 0.000510
285 0.000512
286 0.000516
287 0.000518
288 0.000518
289 0.000518
290 0.000520
291 0.000519
292 0.000518
293 0.000516
294 0.000514
295 0.000512
296 0.000513
297 0.000514
298 0.000517
299 0.000522
300 0.000524
301 0.000523
302 0.000523
303 0.000519
304 0.000516
305 0.000519
306 0.000522
307 0.000522
308 0.000521
309 0.000522
310 0.000523
311 0.000526
312 0.000531
313 0.000533
314 0.000535
315 0.000536
316 0.000536
317 0.000535
318 0.000533
319 0.000530
320 0.000525
321 0.000520
322 0.000514
323 0.000509
324 0.000504
325 0.000502
326 0.000501
327 0.000503
328 0.000504
329 0.000505
330 0.000506
331 0.000507
332 0.000506
333 0.000505
334 0.000503
335 0.000500
336 0.000493
337 0.000486
338 0.000479
339 0.000473
340 0.000470
341 0.000464
342 0.000460
343 0.000457
344 0.000454
345 0.000453
346 0.000454
347 0.000455
348 0.000455
349 0.000456
350 0.000457
351 0.000459
352 0.000461
353 0.000461
354 0.000461
355 0.000459
356 0.000458
357 0.000453
358 0.000453
359 0.000459
360 0.000463
361 0.000464
362 0.000464
363 0.000464
364 0.000464
365 0.000462
366 0.000460
367 0.000460
368 0.000461
369 0.000463
370 0.000463
371 0.000466
372 0.000471
373 0.000475
374 0.000479
375 0.000476
376 0.000474
377 0.000475
378 0.000474
379 0.000474
380 0.000474
381 0.000474
382 0.000475
383 0.000477
384 0.000480
385 0.000482
386 0.000488
387 0.000494
388 0.000496
389 0.000499
390 0.000501
391 0.000501
392 0.000499
393 0.000496
394 0.000494
395 0.000491
396 0.000488
397 0.000485
398 0.000484
399 0.000484
400 0.000485
401 0.000487
402 0.000483
403 0.000482
404 0.000479
405 0.000478
406 0.000477
407 0.000475
408 0.000475
409 0.000477
410 0.000479
411 0.000482
412 0.000486
413 0.000489
414 0.000493
415 0.000500
416 0.000501
417 0.000498
418 0.000494
419 0.000491
420 0.000491
421 0.000490
422 0.000491
423 0.000494
424 0.000498
425 0.000500
426 0.000502
427 0.000501
428 0.000501
429 0.000498
430 0.000493
431 0.000486
432 0.000477
433 0.000470
434 0.000464
435 0.000458
436 0.000453
437 0.000449
438 0.000445
439 0.000442
440 0.000439
441 0.000439
442 0.000438
443 0.000436
444 0.000434
445 0.000432
446 0.000430
447 0.000426
448 0.000421
449 0.000418
450 0.000414
451 0.000412
452 0.000409
453 0.000408
454 0.000408
455 0.000402
456 0.000398
457 0.000395
458 0.000394
459 0.000389
460 0.000387
461 0.000383
462 0.000380
463 0.000378
464 0.000375
465 0.000372
466 0.000368
467 0.000368
468 0.000368
469 0.000370
470 0.000370
471 0.000372
472 0.000371
473 0.000368
474 0.000366
475 0.000368
476 0.000371
477 0.000374
478 0.000377
479 0.000377
480 0.000377
481 0.000376
482 0.000377
483 0.000378
484 0.000380
485 0.000379
486 0.000377
487 0.000374
488 0.000368
489 0.000363
490 0.000359
491 0.000356
492 0.000352
493 0.000346
494 0.000346
495 0.000349
496 0.000353
497 0.000357
498 0.000359
499 0.000362
500 0.000364
501 0.000366
502 0.000368
503 0.000370
504 0.000370
505 0.000368
506 0.000366
507 0.000364
508 0.000365
509 0.000368
510 0.000372
511 0.000372
512 0.000372
513 0.000372
514 0.000374
515 0.000375
516 0.000376
517 0.000378
518 0.000378
519 0.000379
520 0.000379
521 0.000378
522 0.000376
523 0.000377
524 0.000378
525 0.000379
526 0.000381
527 0.000381
528 0.000379
529 0.000376
530 0.000375
531 0.000372
532 0.000367
533 0.000359
534 0.000352
535 0.000349
536 0.000349
537 0.000347
538 0.000343
539 0.000339
540 0.000336
541 0.000334
542 0.000330
543 0.000326
544 0.000324
545 0.000320
546 0.000320
547 0.000316
548 0.000316
549 0.000318
550 0.000320
551 0.000323
552 0.000322
553 0.000322
554 0.000320
555 0.000319
556 0.000317
557 0.000313
558 0.000310
559 0.000309
560 0.000307
561 0.000304
562 0.000302
563 0.000302
564 0.000305
565 0.000306
566 0.000306
567 0.000306
568 0.000309
569 0.000313
570 0.000319
571 0.000321
572 0.000322
573 0.000323
574 0.000323
575 0.000321
576 0.000321
577 0.000321
578 0.000322
579 0.000321
580 0.000320
581 0.000320
582 0.000321
583 0.000326
584 0.000329
585 0.000332
586 0.000337
587 0.000340
588 0.000343
589 0.000345
590 0.000347
591 0.000348
592 0.000349
593 0.000351
594 0.000350
595 0.000352
596 0.000349
597 0.000349
598 0.000352
599 0.000355
600 0.000359
601 0.000361
602 0.000366
603 0.000371
604 0.000375
605 0.000377
606 0.000381
607 0.000383
608 0.000385
609 0.000386
610 0.000387
611 0.000387
612 0.000387
613 0.000384
614 0.000377
615 0.000375
616 0.000374
617 0.000369
618 0.000366
619 0.000365
620 0.000365
621 0.000364
622 0.000362
623 0.000361
624 0.000361
625 0.000358
626 0.000354
627 0.000352
628 0.000350
629 0.000348
630 0.000346
631 0.000341
632 0.000332
633 0.000327
634 0.000322
635 0.000317
636 0.000310
637 0.000307
638 0.000304
639 0.000301
640 0.000299
641 0.000295
642 0.000292
643 0.000290
644 0.000289
645 0.000287
646 0.000286
647 0.000283
648 0.000281
649 0.000282
650 0.000280
651 0.000277
652 0.000270
653 0.000267
654 0.000263
655 0.000259
656 0.000253
657 0.000247
658 0.000244
659 0.000241
660 0.000241
661 0.000242
662 0.000240
663 0.000237
664 0.000234
665 0.000230
666 0.000226
667 0.000223
668 0.000218
669 0.000215
670 0.000212
671 0.000208
672 0.000206
673 0.000204
674 0.000204
675 0.000204
676 0.000207
677 0.000211
678 0.000215
679 0.000221
680 0.000224
681 0.000228
682 0.000231
683 0.000231
684 0.000230
685 0.000228
686 0.000230
687 0.000230
688 0.000228
689 0.000225
690 0.000224
691 0.000223
692 0.000223
693 0.000223
694 0.000226
695 0.000229
696 0.000234
697 0.000234
698 0.000236
699 0.000241
700 0.000243
701 0.000244
702 0.000246
703 0.000245
704 0.000245
705 0.000245
706 0.000245
707 0.000244
708 0.000242
709 0.000241
710 0.000239
711 0.000236
712 0.000236
713 0.000235
714 0.000237
715 0.000240
716 0.000239
717 0.000237
718 0.000236
719 0.000235
720 0.000233
721 0.000231
722 0.000230
723 0.000229
724 0.000229
725 0.000227
726 0.000225
727 0.000222
728 0.000222
729 0.000220
730 0.000218
731 0.000216
732 0.000216
733 0.000214
734 0.000209
735 0.000205
736 0.000202
737 0.000199
738 0.000199
739 0.000196
740 0.000196
741 0.000199
742 0.000200
743 0.000201
744 0.000200
745 0.000197
746 0.000197
747 0.000197
748 0.000196
749 0.000194
750 0.000194
751 0.000194
752 0.000192
753 0.000191
754 0.000192
755 0.000193
756 0.000193
757 0.000193
758 0.000193
759 0.000194
760 0.000196
761 0.000196
762 0.000195
763 0.000196
764 0.000196
765 0.000196
766 0.000195
767 0.000192
768 0.000190
769 0.000192
770 0.000194
771 0.000195
772 0.000194
773 0.000194
774 0.000194
775 0.000195
776 0.000192
777 0.000191
778 0.000189
779 0.000188
780 0.000187
781 0.000184
782 0.000185
783 0.000186
784 0.000185
785 0.000186
786 0.000184
787 0.000186
788 0.000187
789 0.000187
790 0.000186
791 0.000185
792 0.000185
793 0.000182
794 0.000178
795 0.000175
796 0.000172
797 0.000172
798 0.000174
799 0.000175
800 0.000178
801 0.000180
802 0.000183
803 0.000186
804 0.000187
805 0.000189
806 0.000191
807 0.000191
808 0.000188
809 0.000184
