# i correlation
1 0.001568
2 0.001533
3 0.001499
4 0.001470
5 0.001443
6 0.001419
7 0.001397
8 0.001376
9 0.001354
10 0.001335
11 0.001320
12 0.001311
13 0.001301
14 0.001295
15 0.001288
16 0.001280
17 0.001271
18 0.001262
19 0.001255
20 0.001248
21 0.001241
22 0.001237
23 0.001230
24 0.001221
25 0.001214
26 0.001205
27 0.001197
28 0.001188
29 0.001177
30 0.001168
31 0.001162
32 0.001156
33 0.001145
34 0.001137
35 0.001130
36 0.001124
37 0.001117
38 0.001111
39 0.001106
40 0.001102
41 0.001097
42 0.001093
43 0.001083
44 0.001076
45 0.001074
46 0.001073
47 0.001072
48 0.001070
49 0.001065
50 0.001056
51 0.001044
52 0.001033
53 0.001022
54 0.001014
55 0.001008
56 0.001000
57 0.000994
58 0.000988
59 0.000985
60 0.000983
61 0.000982
62 0.000980
63 0.000977
64 0.000971
65 0.000965
66 0.000960
67 0.000952
68 0.000943
69 0.000936
70 0.000931
71 0.000925
72 0.000920
73 0.000921
74 0.000919
75 0.000917
76 0.000913
77 0.000908
78 0.000900
79 0.000893
80 0.000887
81 0.000883
82 0.000881
83 0.000872
84 0.000862
85 0.000852
86 0.000845
87 0.000838
88 0.000834
89 0.000829
90 0.000826
91 0.000824
92 0.000824
93 0.000825
94 0.000825
95 0.000826
96 0.000825
97 0.000826
98 0.000825
99 0.000824
100 0.000824
101 0.000821
102 0.000820
103 0.000820
104 0.000821
105 0.000823
106 0.000824
107 0.000822
108 0.000818
109 0.000813
110 0.000811
111 0.000810
112 0.000808
113 0.000803
114 0.000798
115 0.000792
116 0.000785
117 0.000779
118 0.000776
119 0.000773
120 0.000770
121 0.000767
122 0.000764
123 0.000759
124 0.000755
125 0.000750
126 0.000746
127 0.000743
128 0.000739
129 0.000733
130 0.000725
131 0.000717
132 0.000713
133 0.000707
134 0.000703
135 0.000700
136 0.000698
137 0.000699
138 0.000698
139 0.000699
140 0.000702
141 0.000705
142 0.000708
143 0.000713
144 0.000719
145 0.000722
146 0.000725
147 0.000726
148 0.000724
149 0.000719
150 0.000716
151 0.000713
152 0.000714
153 0.000714
154 0.000713
155 0.000710
156 0.000709
157 0.000708
158 0.000708
159 0.000706
160 0.000705
161 0.000704
162 0.000703
163 0.000700
164 0.000698
165 0.000697
166 0.000697
167 0.000698
168 0.000700
169 0.000704
170 0.000708
171 0.000711
172 0.000711
173 0.000708
174 0.000707
175 0.000700
176 0.000691
177 0.000683
178 0.000672
179 0.000663
180 0.000655
181 0.000648
182 0.000641
183 0.000637
184 0.000635
185 0.000630
186 0.000627
187 0.000627
188 0.000627
189 0.000625
190 0.000622
191 0.000618
192 0.000616
193 0.000614
194 0.000611
195 0.000607
196 0.000603
197 0.000598
198 0.000594
199 0.000593
200 0.000593
201 0.000593
202 0.000594
203 0.000597
204 0.000600
205 0.000603
206 0.000605
207 0.000607
208 0.000609
209 0.000607
210 0.000602
211 0.000598
212 0.000594
213 0.000590
214 0.000586
215 0.000585
216 0.000584
217 0.000585
218 0.000586
219 0.000591
220 0.000596
221 0.000599
222 0.000602
223 0.000602
224 0.000600
225 0.000594
226 0.000593
227 0.000594
228 0.000596
229 0.000598
230 0.000599
231 0.000598
232 0.000596
233 0.000591
234 0.000590
235 0.000588
236 0.000587
237 0.000582
238 0.000581
239 0.000582
240 0.000582
241 0.000580
242 0.000576
243 0.000573
244 0.000574
245 0.000575
246 0.000571
247 0.000570
248 0.000566
249 0.000562
250 0.000560
251 0.000560
252 0.000559
253 0.000559
254 0.000559
255 0.000562
256 0.000562
257 0.000563
258 0.000562
259 0.000563
260 0.000562
261 0.000559
262 0.000555
263 0.000552
264 0.000549
265 0.000546
266 0.000548
267 0.000549
268 0.000550
269 0.000549
270 0.000548
271 0.000546
272 0.000544
273 0.000542
274 0.000544
275 0.000547
276 0.000551
277 0.000552
278 0.000554
279 0.000554
280 0.000555
281 0.000558
282 0.000559
283 0.000557
284 0.000557
285 0.000555
286 0.000552
287 0.000548
288 0.000543
289 0.000538
290 0.000534
291 0.000525
292 0.000519
293 0.000514
294 0.000511
295 0.000508
296 0.000503
297 0.000501
298 0.000495
299 0.000492
300 0.000487
301 0.000485
302 0.000485
303 0.000484
304 0.000483
305 0.000482
306 0.000482
307 0.000480
308 0.000480
309 0.000478
310 0.000478
311 0.000477
312 0.000475
313 0.000471
314 0.000470
315 0.000470
316 0.000471
317 0.000469
318 0.000466
319 0.000462
320 0.000458
321 0.000454
322 0.000452
323 0.000449
324 0.000445
325 0.000441
326 0.000439
327 0.000440
328 0.000442
329 0.000444
330 0.000448
331 0.000449
332 0.000450
333 0.000449
334 0.000449
335 0.000445
336 0.000443
337 0.000438
338 0.000433
339 0.000427
340 0.000422
341 0.000418
342 0.000415
343 0.000411
344 0.000408
345 0.000405
346 0.000403
347 0.000400
348 0.000399
349 0.000395
350 0.000393
351 0.000388
352 0.000384
353 0.000377
354 0.000371
355 0.000365
356 0.000363
357 0.000362
358 0.000362
359 0.000362
360 0.000360
361 0.000359
362 0.000356
363 0.000354
364 0.000353
365 0.000351
366 0.000347
367 0.000343
368 0.000338
369 0.000335
370 0.000332
371 0.000331
372 0.000334
373 0.000338
374 0.000339
375 0.000342
376 0.000347
377 0.000353
378 0.000360
379 0.000367
380 0.000373
381 0.000378
382 0.000382
383 0.000382
384 0.000381
385 0.000379
386 0.000377
387 0.000374
388 0.000372
389 0.000370
390 0.000367
391 0.000366
392 0.000366
393 0.000364
394 0.000361
395 0.000358
396 0.000355
397 0.000351
398 0.000346
399 0.000341
400 0.000339
401 0.000336
402 0.000334
403 0.000334
404 0.000335
405 0.000337
406 0.000339
407 0.000336
408 0.000334
409 0.000334
410 0.000333
411 0.000332
412 0.000332
413 0.000331
414 0.000329
415 0.000325
416 0.000320
417 0.000316
418 0.000313
419 0.000312
420 0.000312
421 0.000310
422 0.000311
423 0.000311
424 0.000314
425 0.000316
426 0.000320
427 0.000326
428 0.000333
429 0.000335
430 0.000336
431 0.000338
432 0.000338
433 0.000336
434 0.000339
435 0.000338
436 0.000339
437 0.000340
438 0.000344
439 0.000350
440 0.000355
441 0.000359
442 0.000363
443 0.000369
444 0.000373
445 0.000378
446 0.000383
447 0.000386
448 0.000388
449 0.000389
450 0.000391
451 0.000394
452 0.000393
453 0.000392
454 0.000390
455 0.000388
456 0.000385
457 0.000379
458 0.000376
459 0.000374
460 0.000371
461 0.000366
462 0.000363
463 0.000358
464 0.000354
465 0.000347
466 0.000343
467 0.000341
468 0.000341
469 0.000340
470 0.000339
471 0.000338
472 0.000335
473 0.000332
474 0.000329
475 0.000330
476 0.000331
477 0.000330
478 0.000329
479 0.000326
480 0.000324
481 0.000320
482 0.000319
483 0.000318
484 0.000318
485 0.000318
486 0.000319
487 0.000321
488 0.000321
489 0.000319
490 0.000315
491 0.000310
492 0.000305
493 0.000299
494 0.000295
495 0.000290
496 0.000285
497 0.000279
498 0.000275
499 0.000273
500 0.000273
501 0.000272
502 0.000274
503 0.000272
504 0.000272
505 0.000271
506 0.000269
507 0.000267
508 0.000266
509 0.000263
510 0.000261
511 0.000258
512 0.000256
513 0.000252
514 0.000248
515 0.000243
516 0.000241
517 0.000238
518 0.000239
519 0.000241
520 0.000245
521 0.000249
522 0.000251
523 0.000253
524 0.000260
525 0.000264
526 0.000269
527 0.000273
528 0.000274
529 0.000276
530 0.000277
531 0.000280
532 0.000282
533 0.000284
534 0.000286
535 0.000289
536 0.000291
537 0.000291
538 0.000292
539 0.000290
540 0.000286
541 0.000281
542 0.000278
543 0.000274
544 0.000273
545 0.000273
546 0.000275
547 0.000276
548 0.000278
549 0.000283
550 0.000289
551 0.000295
552 0.000303
553 0.000308
554 0.000310
555 0.000308
556 0.000306
557 0.000302
558 0.000300
559 0.000299
560 0.000300
561 0.000303
562 0.000304
563 0.000304
564 0.000303
565 0.000303
566 0.000303
567 0.000302
568 0.000300
569 0.000297
570 0.000292
571 0.000287
572 0.000282
573 0.000278
574 0.000273
575 0.000269
576 0.000265
577 0.000262
578 0.000260
579 0.000256
580 0.000253
581 0.000253
582 0.000249
583 0.000247
584 0.000244
585 0.000241
586 0.000240
587 0.000239
588 0.000238
589 0.000237
590 0.000235
591 0.000234
592 0.000232
593 0.000231
594 0.000229
595 0.000227
596 0.000226
597 0.000225
598 0.000226
599 0.000228
600 0.000230
601 0.000232
602 0.000231
603 0.000230
604 0.000230
605 0.000230
606 0.000227
607 0.000225
608 0.000226
609 0.000224
610 0.000221
611 0.000218
612 0.000219
613 0.000218
614 0.000219
615 0.000219
616 0.000216
617 0.000210
618 0.000203
619 0.000196
620 0.000189
621 0.000181
622 0.000175
623 0.000169
624 0.000165
625 0.000161
626 0.000159
627 0.000157
628 0.000154
629 0.000150
630 0.000147
631 0.000145
632 0.000144
633 0.000145
634 0.000145
635 0.000146
636 0.000147
637 0.000143
638 0.000141
639 0.000140
640 0.000140
641 0.000137
642 0.000135
643 0.000132
644 0.000130
645 0.000130
646 0.000131
647 0.000133
648 0.000134
649 0.000134
650 0.000135
651 0.000134
652 0.000132
653 0.000131
654 0.000131
655 0.000128
656 0.000127
657 0.000125
658 0.000124
659 0.000123
660 0.000122
661 0.000118
662 0.000116
663 0.000114
664 0.000113
665 0.000112
666 0.000113
667 0.000113
668 0.000113
669 0.000113
670 0.000113
671 0.000114
672 0.000117
673 0.000120
674 0.000124
675 0.000128
676 0.000130
677 0.000130
678 0.000131
679 0.000133
680 0.000134
681 0.000137
682 0.000139
683 0.000138
684 0.000135
685 0.000132
686 0.000128
687 0.000125
688 0.000122
689 0.000121
690 0.000120
691 0.000121
692 0.000121
693 0.000121
694 0.000122
695 0.000125
696 0.000130
697 0.000135
698 0.000139
699 0.000141
700 0.000144
701 0.000144
702 0.000143
703 0.000139
704 0.000138
705 0.000138
706 0.000141
707 0.000145
708 0.000149
709 0.000155
710 0.000157
711 0.000160
712 0.000161
713 0.000163
714 0.000164
715 0.000166
716 0.000167
717 0.000166
718 0.000163
719 0.000162
720 0.000161
721 0.000162
722 0.000163
723 0.000164
724 0.000164
725 0.000161
726 0.000159
727 0.000158
728 0.000159
729 0.000161
730 0.000159
731 0.000158
732 0.000158
733 0.000157
734 0.000156
735 0.000156
736 0.000156
737 0.000154
738 0.000154
739 0.000152
740 0.000151
741 0.000147
742 0.000145
743 0.000142
744 0.000140
745 0.000138
746 0.000134
747 0.000131
748 0.000127
749 0.000124
750 0.000120
751 0.000117
752 0.000115
753 0.000114
754 0.000115
755 0.000119
756 0.000121
757 0.000125
758 0.000129
759 0.000133
760 0.000136
761 0.000140
762 0.000141
763 0.000140
764 0.000138
765 0.000137
766 0.000135
767 0.000132
768 0.000129
769 0.000125
770 0.000126
771 0.000127
772 0.000126
773 0.000125
774 0.000126
775 0.000125
776 0.000126
777 0.000127
778 0.000129
779 0.000130
780 0.000131
781 0.000132
782 0.000132
783 0.000134
784 0.000133
785 0.000133
786 0.000133
787 0.000133
788 0.000132
789 0.000131
790 0.000131
791 0.000128
792 0.000128
793 0.000126
794 0.000124
795 0.000122
796 0.000120
797 0.000118
798 0.000114
799 0.000110
800 0.000105
801 0.000101
802 0.000098
803 0.000094
804 0.000092
805 0.000090
806 0.000088
807 0.000088
808 0.000088
809 0.000087
