# i correlation
1 0.001545
2 0.001504
3 0.001466
4 0.001431
5 0.001399
6 0.001373
7 0.001345
8 0.001320
9 0.001303
10 0.001289
11 0.001282
12 0.001274
13 0.001268
14 0.001263
15 0.001259
16 0.001258
17 0.001255
18 0.001252
19 0.001248
20 0.001242
21 0.001239
22 0.001238
23 0.001234
24 0.001226
25 0.001218
26 0.001207
27 0.001196
28 0.001186
29 0.001175
30 0.001161
31 0.001152
32 0.001144
33 0.001136
34 0.001133
35 0.001129
36 0.001123
37 0.001118
38 0.001109
39 0.001099
40 0.001090
41 0.001083
42 0.001075
43 0.001067
44 0.001061
45 0.001056
46 0.001054
47 0.001049
48 0.001046
49 0.001044
50 0.001044
51 0.001043
52 0.001041
53 0.001042
54 0.001040
55 0.001038
56 0.001033
57 0.001032
58 0.001032
59 0.001030
60 0.001024
61 0.001013
62 0.001004
63 0.000997
64 0.000990
65 0.000985
66 0.000977
67 0.000968
68 0.000960
69 0.000956
70 0.000954
71 0.000951
72 0.000948
73 0.000946
74 0.000947
75 0.000949
76 0.000952
77 0.000956
78 0.000956
79 0.000956
80 0.000956
81 0.000952
82 0.000947
83 0.000939
84 0.000930
85 0.000925
86 0.000918
87 0.000910
88 0.000901
89 0.000894
90 0.000889
91 0.000886
92 0.000884
93 0.000883
94 0.000886
95 0.000889
96 0.000893
97 0.000892
98 0.000888
99 0.000886
100 0.000887
101 0.000888
102 0.000889
103 0.000890
104 0.000890
105 0.000892
106 0.000892
107 0.000888
108 0.000883
109 0.000877
110 0.000871
111 0.000865
112 0.000862
113 0.000860
114 0.000855
115 0.000851
116 0.000848
117 0.000849
118 0.000846
119 0.000846
120 0.000840
121 0.000834
122 0.000832
123 0.000833
124 0.000835
125 0.000833
126 0.000831
127 0.000828
128 0.000828
129 0.000827
130 0.000823
131 0.000819
132 0.000815
133 0.000809
134 0.000803
135 0.000800
136 0.000798
137 0.000798
138 0.000800
139 0.000803
140 0.000803
141 0.000798
142 0.000793
143 0.000787
144 0.000785
145 0.000785
146 0.000783
147 0.000782
148 0.000778
149 0.000775
150 0.000776
151 0.000776
152 0.000772
153 0.000768
154 0.000760
155 0.000752
156 0.000743
157 0.000735
158 0.000723
159 0.000714
160 0.000711
161 0.000711
162 0.000715
163 0.000716
164 0.000716
165 0.000714
166 0.000715
167 0.000711
168 0.000707
169 0.000702
170 0.000699
171 0.000692
172 0.000694
173 0.000695
174 0.000691
175 0.000691
176 0.000691
177 0.000688
178 0.000681
179 0.000677
180 0.000671
181 0.000664
182 0.000659
183 0.000656
184 0.000654
185 0.000651
186 0.000649
187 0.000651
188 0.000652
189 0.000655
190 0.000655
191 0.000658
192 0.000659
193 0.000659
194 0.000658
195 0.000663
196 0.000666
197 0.000672
198 0.000674
199 0.000674
200 0.000676
201 0.000677
202 0.000682
203 0.000684
204 0.000684
205 0.000682
206 0.000681
207 0.000678
208 0.000673
209 0.000670
210 0.000669
211 0.000669
212 0.000668
213 0.000665
214 0.000662
215 0.000659
216 0.000655
217 0.000650
218 0.000642
219 0.000637
220 0.000636
221 0.000633
222 0.000632
223 0.000633
224 0.000632
225 0.000630
226 0.000629
227 0.000629
228 0.000628
229 0.000630
230 0.000630
231 0.000631
232 0.000630
233 0.000628
234 0.000627
235 0.000623
236 0.000616
237 0.000610
238 0.000603
239 0.000597
240 0.000593
241 0.000591
242 0.000588
243 0.000585
244 0.000581
245 0.000578
246 0.000579
247 0.000582
248 0.000585
249 0.000586
250 0.000586
251 0.000586
252 0.000585
253 0.000581
254 0.000577
255 0.000573
256 0.000570
257 0.000566
258 0.000564
259 0.000561
260 0.000555
261 0.000551
262 0.000545
263 0.000540
264 0.000536
265 0.000532
266 0.000529
267 0.000526
268 0.000527
269 0.000529
270 0.000534
271 0.000535
272 0.000537
273 0.000536
274 0.000538
275 0.000540
276 0.000541
277 0.000544
278 0.000543
279 0.000540
280 0.000539
281 0.000537
282 0.000533
283 0.000528
284 0.000522
285 0.000518
286 0.000516
287 0.000514
288 0.000512
289 0.000513
290 0.000509
291 0.000504
292 0.000505
293 0.000503
294 0.000501
295 0.000499
296 0.000499
297 0.000497
298 0.000495
299 0.000495
300 0.000496
301 0.000501
302 0.000508
303 0.000513
304 0.000516
305 0.000519
306 0.000522
307 0.000521
308 0.000520
309 0.000518
310 0.000513
311 0.000508
312 0.000504
313 0.000498
314 0.000495
315 0.000494
316 0.000495
317 0.000495
318 0.000490
319 0.000486
320 0.000484
321 0.000481
322 0.000476
323 0.000472
324 0.000467
325 0.000463
326 0.000463
327 0.000463
328 0.000465
329 0.000468
330 0.000470
331 0.000468
332 0.000465
333 0.000463
334 0.000466
335 0.000469
336 0.000469
337 0.000469
338 0.000470
339 0.000470
340 0.000471
341 0.000472
342 0.000471
343 0.000468
344 0.000462
345 0.000456
346 0.000448
347 0.000441
348 0.000436
349 0.000433
350 0.000428
351 0.000427
352 0.000434
353 0.000440
354 0.000444
355 0.000450
356 0.000459
357 0.000463
358 0.000465
359 0.000464
360 0.000457
361 0.000450
362 0.000443
363 0.000437
364 0.000429
365 0.000420
366 0.000410
367 0.000401
368 0.000393
369 0.000384
370 0.000377
371 0.000373
372 0.000371
373 0.000368
374 0.000370
375 0.000372
376 0.000376
377 0.000378
378 0.000380
379 0.000380
380 0.000382
381 0.000383
382 0.000383
383 0.000379
384 0.000377
385 0.000372
386 0.000371
387 0.000371
388 0.000368
389 0.000364
390 0.000362
391 0.000357
392 0.000356
393 0.000356
394 0.000357
395 0.000360
396 0.000361
397 0.000362
398 0.000365
399 0.000373
400 0.000377
401 0.000380
402 0.000381
403 0.000381
404 0.000380
405 0.000379
406 0.000379
407 0.000377
408 0.000376
409 0.000377
410 0.000378
411 0.000382
412 0.000387
413 0.000390
414 0.000392
415 0.000393
416 0.000395
417 0.000398
418 0.000401
419 0.000402
420 0.000403
421 0.000403
422 0.000401
423 0.000398
424 0.000393
425 0.000392
426 0.000390
427 0.000388
428 0.000385
429 0.000382
430 0.000381
431 0.000380
432 0.000380
433 0.000383
434 0.000387
435 0.000389
436 0.000391
437 0.000391
438 0.000390
439 0.000389
440 0.000391
441 0.000388
442 0.000381
443 0.000375
444 0.000365
445 0.000358
446 0.000352
447 0.000349
448 0.000345
449 0.000341
450 0.000338
451 0.000334
452 0.000335
453 0.000338
454 0.000344
455 0.000345
456 0.000346
457 0.000347
458 0.000349
459 0.000347
460 0.000342
461 0.000337
462 0.000333
463 0.000327
464 0.000322
465 0.000314
466 0.000306
467 0.000297
468 0.000292
469 0.000288
470 0.000283
471 0.000281
472 0.000281
473 0.000281
474 0.000282
475 0.000281
476 0.000280
477 0.000280
478 0.000280
479 0.000280
480 0.000280
481 0.000286
482 0.000289
483 0.000291
484 0.000291
485 0.000290
486 0.000288
487 0.000286
488 0.000284
489 0.000283
490 0.000279
491 0.000281
492 0.000284
493 0.000288
494 0.000290
495 0.000292
496 0.000292
497 0.000290
498 0.000290
499 0.000288
500 0.000288
501 0.000284
502 0.000282
503 0.000285
504 0.000288
505 0.000292
506 0.000298
507 0.000303
508 0.000309
509 0.000316
510 0.000321
511 0.000323
512 0.000325
513 0.000324
514 0.000322
515 0.000319
516 0.000317
517 0.000316
518 0.000317
519 0.000316
520 0.000314
521 0.000311
522 0.000310
523 0.000308
524 0.000304
525 0.000300
526 0.000299
527 0.000297
528 0.000297
529 0.000298
530 0.000299
531 0.000302
532 0.000309
533 0.000312
534 0.000315
535 0.000317
536 0.000316
537 0.000319
538 0.000323
539 0.000327
540 0.000331
541 0.000333
542 0.000330
543 0.000329
544 0.000328
545 0.000323
546 0.000320
547 0.000314
548 0.000309
549 0.000304
550 0.000302
551 0.000302
552 0.000303
553 0.000305
554 0.000308
555 0.000310
556 0.000314
557 0.000322
558 0.000331
559 0.000337
560 0.000342
561 0.000342
562 0.000341
563 0.000342
564 0.000342
565 0.000341
566 0.000338
567 0.000333
568 0.000330
569 0.000328
570 0.000322
571 0.000316
572 0.000309
573 0.000303
574 0.000300
575 0.000298
576 0.000296
577 0.000294
578 0.000293
579 0.000291
580 0.000290
581 0.000289
582 0.000287
583 0.000285
584 0.000281
585 0.000278
586 0.000277
587 0.000277
588 0.000276
589 0.000276
590 0.000276
591 0.000278
592 0.000280
593 0.000282
594 0.000282
595 0.000279
596 0.000274
597 0.000272
598 0.000271
599 0.000269
600 0.000266
601 0.000263
602 0.000260
603 0.000262
604 0.000261
605 0.000261
606 0.000260
607 0.000258
608 0.000254
609 0.000252
610 0.000252
611 0.000251
612 0.000253
613 0.000254
614 0.000256
615 0.000257
616 0.000259
617 0.000261
618 0.000264
619 0.000265
620 0.000267
621 0.000267
622 0.000268
623 0.000267
624 0.000267
625 0.000266
626 0.000266
627 0.000265
628 0.000265
629 0.000266
630 0.000267
631 0.000268
632 0.000269
633 0.000270
634 0.000272
635 0.000274
636 0.000274
637 0.000275
638 0.000275
639 0.000272
640 0.000270
641 0.000268
642 0.000266
643 0.000266
644 0.000266
645 0.000271
646 0.000274
647 0.000275
648 0.000276
649 0.000278
650 0.000278
651 0.000276
652 0.000274
653 0.000272
654 0.000271
655 0.000270
656 0.000269
657 0.000265
658 0.000263
659 0.000262
660 0.000263
661 0.000263
662 0.000262
663 0.000260
664 0.000261
665 0.000262
666 0.000262
667 0.000262
668 0.000262
669 0.000263
670 0.000266
671 0.000272
672 0.000276
673 0.000277
674 0.000276
675 0.000272
676 0.000269
677 0.000265
678 0.000263
679 0.000263
680 0.000263
681 0.000264
682 0.000266
683 0.000268
684 0.000271
685 0.000272
686 0.000272
687 0.000269
688 0.000268
689 0.000267
690 0.000262
691 0.000258
692 0.000254
693 0.000250
694 0.000250
695 0.000253
696 0.000256
697 0.000260
698 0.000263
699 0.000264
700 0.000264
701 0.000264
702 0.000262
703 0.000259
704 0.000257
705 0.000256
706 0.000255
707 0.000254
708 0.000253
709 0.000249
710 0.000245
711 0.000241
712 0.000234
713 0.000230
714 0.000226
715 0.000223
716 0.000218
717 0.000212
718 0.000203
719 0.000198
720 0.000195
721 0.000191
722 0.000187
723 0.000182
724 0.000177
725 0.000174
726 0.000172
727 0.000171
728 0.000170
729 0.000173
730 0.000177
731 0.000179
732 0.000180
733 0.000181
734 0.000181
735 0.000181
736 0.000181
737 0.000181
738 0.000179
739 0.000178
740 0.000177
741 0.000176
742 0.000176
743 0.000176
744 0.000174
745 0.000173
746 0.000170
747 0.000168
748 0.000165
749 0.000162
750 0.000160
751 0.000161
752 0.000161
753 0.000160
754 0.000160
755 0.000160
756 0.000160
757 0.000160
758 0.000162
759 0.000162
760 0.000163
761 0.000164
762 0.000164
763 0.000163
764 0.000161
765 0.000157
766 0.000154
767 0.000152
768 0.000148
769 0.000145
770 0.000142
771 0.000140
772 0.000136
773 0.000134
774 0.000133
775 0.000133
776 0.000133
777 0.000133
778 0.000134
779 0.000134
780 0.000135
781 0.000135
782 0.000131
783 0.000129
784 0.000128
785 0.000128
786 0.000126
787 0.000124
788 0.000124
789 0.000122
790 0.000121
791 0.000120
792 0.000119
793 0.000117
794 0.000116
795 0.000114
796 0.000113
797 0.000111
798 0.000110
799 0.000109
800 0.000108
801 0.000107
802 0.000104
803 0.000099
804 0.000094
805 0.000089
806 0.000084
807 0.000079
808 0.000075
809 0.000074
