# i correlation
1 0.001605
2 0.001570
3 0.001541
4 0.001516
5 0.001493
6 0.001472
7 0.001453
8 0.001432
9 0.001414
10 0.001396
11 0.001380
12 0.001365
13 0.001354
14 0.001342
15 0.001328
16 0.001317
17 0.001310
18 0.001300
19 0.001291
20 0.001281
21 0.001270
22 0.001254
23 0.001239
24 0.001223
25 0.001210
26 0.001196
27 0.001186
28 0.001177
29 0.001165
30 0.001157
31 0.001148
32 0.001138
33 0.001131
34 0.001126
35 0.001123
36 0.001115
37 0.001106
38 0.001099
39 0.001092
40 0.001083
41 0.001076
42 0.001071
43 0.001067
44 0.001063
45 0.001060
46 0.001056
47 0.001052
48 0.001053
49 0.001052
50 0.001049
51 0.001049
52 0.001048
53 0.001048
54 0.001047
55 0.001044
56 0.001043
57 0.001041
58 0.001038
59 0.001034
60 0.001029
61 0.001023
62 0.001018
63 0.001017
64 0.001017
65 0.001016
66 0.001011
67 0.001004
68 0.001000
69 0.000998
70 0.000999
71 0.001001
72 0.001003
73 0.001005
74 0.001005
75 0.001003
76 0.001004
77 0.001001
78 0.001000
79 0.000997
80 0.000990
81 0.000983
82 0.000978
83 0.000974
84 0.000969
85 0.000960
86 0.000951
87 0.000944
88 0.000938
89 0.000933
90 0.000926
91 0.000923
92 0.000919
93 0.000916
94 0.000912
95 0.000906
96 0.000901
97 0.000892
98 0.000883
99 0.000876
100 0.000867
101 0.000859
102 0.000852
103 0.000844
104 0.000839
105 0.000836
106 0.000832
107 0.000829
108 0.000824
109 0.000822
110 0.000817
111 0.000809
112 0.000803
113 0.000797
114 0.000789
115 0.000783
116 0.000779
117 0.000775
118 0.000773
119 0.000769
120 0.000760
121 0.000752
122 0.000748
123 0.000742
124 0.000738
125 0.000734
126 0.000730
127 0.000732
128 0.000734
129 0.000736
130 0.000742
131 0.000742
132 0.000739
133 0.000734
134 0.000730
135 0.000727
136 0.000724
137 0.000721
138 0.000719
139 0.000717
140 0.000712
141 0.000707
142 0.000704
143 0.000701
144 0.000697
145 0.000692
146 0.000683
147 0.000679
148 0.000677
149 0.000675
150 0.000669
151 0.000663
152 0.000657
153 0.000652
154 0.000648
155 0.000648
156 0.000648
157 0.000650
158 0.000653
159 0.000655
160 0.000654
161 0.000654
162 0.000654
163 0.000654
164 0.000654
165 0.000652
166 0.000654
167 0.000655
168 0.000655
169 0.000655
170 0.000653
171 0.000653
172 0.000654
173 0.000659
174 0.000663
175 0.000666
176 0.000666
177 0.000664
178 0.000665
179 0.000663
180 0.000664
181 0.000664
182 0.000667
183 0.000669
184 0.000665
185 0.000657
186 0.000650
187 0.000645
188 0.000639
189 0.000631
190 0.000624
191 0.000615
192 0.000607
193 0.000600
194 0.000595
195 0.000589
196 0.000585
197 0.000583
198 0.000579
199 0.000572
200 0.000568
201 0.000570
202 0.000570
203 0.000571
204 0.000571
205 0.000568
206 0.000568
207 0.000569
208 0.000567
209 0.000563
210 0.000562
211 0.000558
212 0.000553
213 0.000549
214 0.000548
215 0.000547
216 0.000541
217 0.000537
218 0.000533
219 0.000529
220 0.000525
221 0.000522
222 0.000519
223 0.000519
224 0.000518
225 0.000515
226 0.000509
227 0.000503
228 0.000495
229 0.000489
230 0.000483
231 0.000480
232 0.000479
233 0.000480
234 0.000480
235 0.000476
236 0.000475
237 0.000476
238 0.000476
239 0.000476
240 0.000477
241 0.000475
242 0.000475
243 0.000475
244 0.000474
245 0.000473
246 0.000472
247 0.000468
248 0.000463
249 0.000460
250 0.000456
251 0.000452
252 0.000453
253 0.000457
254 0.000462
255 0.000466
256 0.000468
257 0.000468
258 0.000468
259 0.000470
260 0.000475
261 0.000478
262 0.000479
263 0.000476
264 0.000473
265 0.000468
266 0.000468
267 0.000470
268 0.000474
269 0.000477
270 0.000477
271 0.000479
272 0.000480
273 0.000481
274 0.000481
275 0.000481
276 0.000479
277 0.000480
278 0.000480
279 0.000481
280 0.000481
281 0.000480
282 0.000479
283 0.000477
284 0.000475
285 0.000474
286 0.000472
287 0.000471
288 0.000473
289 0.000476
290 0.000477
291 0.000478
292 0.000479
293 0.000480
294 0.000482
295 0.000481
296 0.000480
297 0.000482
298 0.000483
299 0.000483
300 0.000479
301 0.000476
302 0.000475
303 0.000475
304 0.000474
305 0.000474
306 0.000475
307 0.000478
308 0.000478
309 0.000478
310 0.000478
311 0.000475
312 0.000474
313 0.000473
314 0.000472
315 0.000473
316 0.000478
317 0.000481
318 0.000481
319 0.000485
320 0.000489
321 0.000487
322 0.000483
323 0.000480
324 0.000476
325 0.000474
326 0.000472
327 0.000469
328 0.000466
329 0.000459
330 0.000455
331 0.000452
332 0.000451
333 0.000451
334 0.000451
335 0.000449
336 0.000449
337 0.000453
338 0.000458
339 0.000464
340 0.000467
341 0.000468
342 0.000469
343 0.000467
344 0.000466
345 0.000466
346 0.000467
347 0.000467
348 0.000467
349 0.000465
350 0.000463
351 0.000463
352 0.000462
353 0.000460
354 0.000461
355 0.000464
356 0.000469
357 0.000470
358 0.000473
359 0.000472
360 0.000471
361 0.000470
362 0.000471
363 0.000471
364 0.000472
365 0.000473
366 0.000474
367 0.000476
368 0.000477
369 0.000477
370 0.000475
371 0.000471
372 0.000470
373 0.000470
374 0.000469
375 0.000467
376 0.000469
377 0.000469
378 0.000468
379 0.000468
380 0.000466
381 0.000466
382 0.000464
383 0.000464
384 0.000465
385 0.000467
386 0.000468
387 0.000469
388 0.000470
389 0.000471
390 0.000476
391 0.000478
392 0.000480
393 0.000479
394 0.000480
395 0.000478
396 0.000475
397 0.000476
398 0.000479
399 0.000480
400 0.000479
401 0.000480
402 0.000482
403 0.000484
404 0.000487
405 0.000486
406 0.000482
407 0.000483
408 0.000480
409 0.000475
410 0.000468
411 0.000464
412 0.000462
413 0.000457
414 0.000451
415 0.000447
416 0.000444
417 0.000443
418 0.000442
419 0.000440
420 0.000438
421 0.000437
422 0.000437
423 0.000435
424 0.000433
425 0.000430
426 0.000426
427 0.000422
428 0.000421
429 0.000419
430 0.000415
431 0.000410
432 0.000401
433 0.000392
434 0.000383
435 0.000377
436 0.000371
437 0.000368
438 0.000366
439 0.000363
440 0.000360
441 0.000357
442 0.000354
443 0.000351
444 0.000350
445 0.000347
446 0.000345
447 0.000345
448 0.000343
449 0.000342
450 0.000342
451 0.000343
452 0.000342
453 0.000338
454 0.000335
455 0.000333
456 0.000333
457 0.000333
458 0.000334
459 0.000335
460 0.000336
461 0.000336
462 0.000336
463 0.000337
464 0.000338
465 0.000340
466 0.000342
467 0.000344
468 0.000347
469 0.000349
470 0.000352
471 0.000354
472 0.000355
473 0.000357
474 0.000359
475 0.000362
476 0.000366
477 0.000370
478 0.000371
479 0.000371
480 0.000371
481 0.000370
482 0.000369
483 0.000367
484 0.000363
485 0.000359
486 0.000358
487 0.000356
488 0.000353
489 0.000349
490 0.000343
491 0.000338
492 0.000333
493 0.000331
494 0.000329
495 0.000331
496 0.000334
497 0.000335
498 0.000336
499 0.000336
500 0.000338
501 0.000338
502 0.000337
503 0.000337
504 0.000334
505 0.000330
506 0.000326
507 0.000323
508 0.000318
509 0.000313
510 0.000305
511 0.000297
512 0.000290
513 0.000284
514 0.000283
515 0.000281
516 0.000279
517 0.000279
518 0.000275
519 0.000269
520 0.000263
521 0.000263
522 0.000265
523 0.000267
524 0.000268
525 0.000267
526 0.000265
527 0.000263
528 0.000263
529 0.000261
530 0.000261
531 0.000260
532 0.000257
533 0.000253
534 0.000253
535 0.000254
536 0.000254
537 0.000254
538 0.000254
539 0.000255
540 0.000258
541 0.000260
542 0.000262
543 0.000263
544 0.000263
545 0.000263
546 0.000263
547 0.000263
548 0.000261
549 0.000262
550 0.000263
551 0.000265
552 0.000267
553 0.000265
554 0.000261
555 0.000258
556 0.000256
557 0.000255
558 0.000253
559 0.000254
560 0.000256
561 0.000255
562 0.000255
563 0.000253
564 0.000248
565 0.000247
566 0.000246
567 0.000243
568 0.000239
569 0.000236
570 0.000235
571 0.000234
572 0.000233
573 0.000233
574 0.000231
575 0.000231
576 0.000232
577 0.000231
578 0.000231
579 0.000233
580 0.000237
581 0.000240
582 0.000243
583 0.000243
584 0.000239
585 0.000237
586 0.000234
587 0.000233
588 0.000232
589 0.000231
590 0.000230
591 0.000229
592 0.000228
593 0.000228
594 0.000230
595 0.000234
596 0.000236
597 0.000235
598 0.000233
599 0.000232
600 0.000232
601 0.000233
602 0.000232
603 0.000230
604 0.000229
605 0.000229
606 0.000228
607 0.000229
608 0.000229
609 0.000229
610 0.000229
611 0.000230
612 0.000230
613 0.000229
614 0.000230
615 0.000229
616 0.000227
617 0.000224
618 0.000223
619 0.000221
620 0.000216
621 0.000211
622 0.000207
623 0.000203
624 0.000201
625 0.000201
626 0.000200
627 0.000201
628 0.000201
629 0.000199
630 0.000198
631 0.000201
632 0.000205
633 0.000207
634 0.000210
635 0.000214
636 0.000218
637 0.000219
638 0.000220
639 0.000222
640 0.000222
641 0.000223
642 0.000222
643 0.000220
644 0.000221
645 0.000222
646 0.000224
647 0.000226
648 0.000226
649 0.000226
650 0.000225
651 0.000224
652 0.000225
653 0.000228
654 0.000229
655 0.000227
656 0.000228
657 0.000228
658 0.000228
659 0.000230
660 0.000231
661 0.000231
662 0.000232
663 0.000232
664 0.000233
665 0.000232
666 0.000232
667 0.000233
668 0.000233
669 0.000233
670 0.000234
671 0.000235
672 0.000238
673 0.000239
674 0.000241
675 0.000243
676 0.000244
677 0.000246
678 0.000248
679 0.000250
680 0.000251
681 0.000250
682 0.000250
683 0.000252
684 0.000258
685 0.000261
686 0.000264
687 0.000265
688 0.000265
689 0.000266
690 0.000268
691 0.000269
692 0.000270
693 0.000268
694 0.000264
695 0.000259
696 0.000254
697 0.000252
698 0.000251
699 0.000249
700 0.000247
701 0.000248
702 0.000248
703 0.000246
704 0.000245
705 0.000244
706 0.000244
707 0.000243
708 0.000241
709 0.000239
710 0.000239
711 0.000239
712 0.000239
713 0.000239
714 0.000239
715 0.000238
716 0.000235
717 0.000233
718 0.000231
719 0.000229
720 0.000228
721 0.000226
722 0.000225
723 0.000224
724 0.000225
725 0.000227
726 0.000228
727 0.000227
728 0.000226
729 0.000226
730 0.000225
731 0.000223
732 0.000221
733 0.000219
734 0.000218
735 0.000217
736 0.000214
737 0.000213
738 0.000213
739 0.000211
740 0.000211
741 0.000210
742 0.000210
743 0.000210
744 0.000209
745 0.000209
746 0.000209
747 0.000208
748 0.000208
749 0.000208
750 0.000208
751 0.000207
752 0.000206
753 0.000203
754 0.000201
755 0.000201
756 0.000202
757 0.000202
758 0.000204
759 0.000204
760 0.000204
761 0.000204
762 0.000205
763 0.000207
764 0.000208
765 0.000209
766 0.000209
767 0.000210
768 0.000211
769 0.000213
770 0.000216
771 0.000216
772 0.000214
773 0.000213
774 0.000212
775 0.000212
776 0.000211
777 0.000210
778 0.000210
779 0.000208
780 0.000207
781 0.000205
782 0.000204
783 0.000204
784 0.000204
785 0.000203
786 0.000203
787 0.000201
788 0.000198
789 0.000196
790 0.000194
791 0.000194
792 0.000193
793 0.000192
794 0.000191
795 0.000190
796 0.000189
797 0.000189
798 0.000188
799 0.000186
800 0.000182
801 0.000178
802 0.000174
803 0.000168
804 0.000163
805 0.000160
806 0.000158
807 0.000152
808 0.000148
809 0.000144
