# i correlation
1 0.001697
2 0.001662
3 0.001635
4 0.001611
5 0.001587
6 0.001566
7 0.001547
8 0.001534
9 0.001520
10 0.001507
11 0.001492
12 0.001480
13 0.001472
14 0.001464
15 0.001457
16 0.001447
17 0.001437
18 0.001426
19 0.001419
20 0.001412
21 0.001399
22 0.001385
23 0.001376
24 0.001362
25 0.001349
26 0.001340
27 0.001332
28 0.001321
29 0.001311
30 0.001303
31 0.001293
32 0.001279
33 0.001268
34 0.001261
35 0.001257
36 0.001251
37 0.001244
38 0.001238
39 0.001236
40 0.001230
41 0.001224
42 0.001220
43 0.001216
44 0.001213
45 0.001212
46 0.001207
47 0.001201
48 0.001193
49 0.001186
50 0.001177
51 0.001168
52 0.001157
53 0.001150
54 0.001141
55 0.001134
56 0.001126
57 0.001121
58 0.001119
59 0.001115
60 0.001105
61 0.001099
62 0.001093
63 0.001083
64 0.001074
65 0.001071
66 0.001068
67 0.001063
68 0.001055
69 0.001045
70 0.001036
71 0.001028
72 0.001020
73 0.001014
74 0.001009
75 0.000998
76 0.000984
77 0.000967
78 0.000952
79 0.000938
80 0.000931
81 0.000925
82 0.000919
83 0.000912
84 0.000908
85 0.000905
86 0.000904
87 0.000905
88 0.000904
89 0.000900
90 0.000898
91 0.000893
92 0.000886
93 0.000879
94 0.000876
95 0.000869
96 0.000861
97 0.000855
98 0.000851
99 0.000843
100 0.000838
101 0.000837
102 0.000837
103 0.000837
104 0.000839
105 0.000836
106 0.000835
107 0.000836
108 0.000839
109 0.000838
110 0.000839
111 0.000841
112 0.000843
113 0.000842
114 0.000844
115 0.000845
116 0.000844
117 0.000844
118 0.000842
119 0.000839
120 0.000834
121 0.000830
122 0.000823
123 0.000812
124 0.000803
125 0.000796
126 0.000787
127 0.000783
128 0.000777
129 0.000776
130 0.000773
131 0.000770
132 0.000767
133 0.000764
134 0.000761
135 0.000761
136 0.000758
137 0.000756
138 0.000755
139 0.000755
140 0.000756
141 0.000757
142 0.000755
143 0.000753
144 0.000749
145 0.000748
146 0.000745
147 0.000742
148 0.000743
149 0.000742
150 0.000740
151 0.000736
152 0.000733
153 0.000733
154 0.000732
155 0.000731
156 0.000732
157 0.000730
158 0.000729
159 0.000727
160 0.000728
161 0.000728
162 0.000725
163 0.000725
164 0.000726
165 0.000722
166 0.000718
167 0.000712
168 0.000711
169 0.000711
170 0.000709
171 0.000706
172 0.000705
173 0.000705
174 0.000707
175 0.000709
176 0.000712
177 0.000717
178 0.000721
179 0.000726
180 0.000729
181 0.000731
182 0.000733
183 0.000734
184 0.000733
185 0.000733
186 0.000731
187 0.000731
188 0.000730
189 0.000725
190 0.000720
191 0.000715
192 0.000710
193 0.000702
194 0.000696
195 0.000693
196 0.000690
197 0.000687
198 0.000686
199 0.000683
200 0.000680
201 0.000675
202 0.000672
203 0.000668
204 0.000664
205 0.000659
206 0.000658
207 0.000659
208 0.000659
209 0.000658
210 0.000655
211 0.000651
212 0.000644
213 0.000639
214 0.000633
215 0.000629
216 0.000624
217 0.000620
218 0.000616
219 0.000615
220 0.000609
221 0.000606
222 0.000607
223 0.000608
224 0.000607
225 0.000606
226 0.000607
227 0.000607
228 0.000603
229 0.000601
230 0.000598
231 0.000595
232 0.000591
233 0.000589
234 0.000587
235 0.000583
236 0.000579
237 0.000574
238 0.000568
239 0.000563
240 0.000557
241 0.000552
242 0.000547
243 0.000546
244 0.000548
245 0.000549
246 0.000551
247 0.000550
248 0.000547
249 0.000548
250 0.000548
251 0.000548
252 0.000547
253 0.000546
254 0.000545
255 0.000540
256 0.000535
257 0.000533
258 0.000529
259 0.000523
260 0.000520
261 0.000517
262 0.000518
263 0.000519
264 0.000519
265 0.000517
266 0.000516
267 0.000513
268 0.000512
269 0.000510
270 0.000510
271 0.000509
272 0.000512
273 0.000511
274 0.000511
275 0.000509
276 0.000506
277 0.000502
278 0.000498
279 0.000493
280 0.000491
281 0.000489
282 0.000488
283 0.000488
284 0.000488
285 0.000488
286 0.000488
287 0.000486
288 0.000488
289 0.000491
290 0.000494
291 0.000502
292 0.000507
293 0.000514
294 0.000521
295 0.000526
296 0.000529
297 0.000531
298 0.000535
299 0.000538
300 0.000538
301 0.000536
302 0.000534
303 0.000533
304 0.000532
305 0.000528
306 0.000525
307 0.000523
308 0.000523
309 0.000522
310 0.000520
311 0.000518
312 0.000518
313 0.000519
314 0.000518
315 0.000514
316 0.000512
317 0.000513
318 0.000513
319 0.000514
320 0.000513
321 0.000512
322 0.000509
323 0.000508
324 0.000506
325 0.000506
326 0.000503
327 0.000502
328 0.000502
329 0.000501
330 0.000498
331 0.000497
332 0.000495
333 0.000494
334 0.000492
335 0.000493
336 0.000496
337 0.000498
338 0.000502
339 0.000505
340 0.000506
341 0.000507
342 0.000507
343 0.000510
344 0.000516
345 0.000518
346 0.000518
347 0.000517
348 0.000521
349 0.000522
350 0.000520
351 0.000517
352 0.000515
353 0.000511
354 0.000508
355 0.000506
356 0.000508
357 0.000508
358 0.000510
359 0.000511
360 0.000513
361 0.000516
362 0.000521
363 0.000525
364 0.000528
365 0.000532
366 0.000539
367 0.000541
368 0.000542
369 0.000539
370 0.000537
371 0.000535
372 0.000531
373 0.000526
374 0.000522
375 0.000519
376 0.000516
377 0.000510
378 0.000507
379 0.000505
380 0.000503
381 0.000499
382 0.000499
383 0.000500
384 0.000500
385 0.000499
386 0.000499
387 0.000497
388 0.000490
389 0.000485
390 0.000481
391 0.000475
392 0.000470
393 0.000467
394 0.000464
395 0.000461
396 0.000459
397 0.000460
398 0.000461
399 0.000462
400 0.000460
401 0.000459
402 0.000459
403 0.000460
404 0.000459
405 0.000460
406 0.000460
407 0.000463
408 0.000463
409 0.000462
410 0.000463
411 0.000464
412 0.000463
413 0.000465
414 0.000463
415 0.000463
416 0.000460
417 0.000457
418 0.000453
419 0.000450
420 0.000447
421 0.000444
422 0.000439
423 0.000435
424 0.000429
425 0.000425
426 0.000418
427 0.000412
428 0.000407
429 0.000401
430 0.000396
431 0.000391
432 0.000387
433 0.000386
434 0.000383
435 0.000379
436 0.000379
437 0.000377
438 0.000374
439 0.000370
440 0.000366
441 0.000362
442 0.000358
443 0.000355
444 0.000352
445 0.000348
446 0.000343
447 0.000338
448 0.000332
449 0.000325
450 0.000319
451 0.000313
452 0.000310
453 0.000309
454 0.000308
455 0.000305
456 0.000303
457 0.000302
458 0.000303
459 0.000303
460 0.000305
461 0.000302
462 0.000300
463 0.000296
464 0.000291
465 0.000285
466 0.000280
467 0.000276
468 0.000276
469 0.000274
470 0.000273
471 0.000271
472 0.000272
473 0.000276
474 0.000278
475 0.000275
476 0.000272
477 0.000271
478 0.000269
479 0.000270
480 0.000270
481 0.000272
482 0.000273
483 0.000275
484 0.000274
485 0.000273
486 0.000270
487 0.000268
488 0.000267
489 0.000269
490 0.000269
491 0.000270
492 0.000269
493 0.000269
494 0.000270
495 0.000270
496 0.000268
497 0.000270
498 0.000271
499 0.000270
500 0.000268
501 0.000268
502 0.000268
503 0.000265
504 0.000264
505 0.000264
506 0.000261
507 0.000259
508 0.000255
509 0.000251
510 0.000249
511 0.000247
512 0.000247
513 0.000247
514 0.000249
515 0.000251
516 0.000254
517 0.000257
518 0.000259
519 0.000262
520 0.000264
521 0.000267
522 0.000271
523 0.000273
524 0.000273
525 0.000275
526 0.000277
527 0.000282
528 0.000284
529 0.000287
530 0.000288
531 0.000289
532 0.000288
533 0.000285
534 0.000283
535 0.000285
536 0.000284
537 0.000282
538 0.000279
539 0.000276
540 0.000274
541 0.000271
542 0.000269
543 0.000267
544 0.000264
545 0.000264
546 0.000264
547 0.000264
548 0.000265
549 0.000265
550 0.000264
551 0.000260
552 0.000255
553 0.000249
554 0.000245
555 0.000244
556 0.000242
557 0.000241
558 0.000239
559 0.000238
560 0.000237
561 0.000237
562 0.000238
563 0.000239
564 0.000240
565 0.000241
566 0.000242
567 0.000238
568 0.000233
569 0.000227
570 0.000221
571 0.000217
572 0.000214
573 0.000212
574 0.000210
575 0.000209
576 0.000209
577 0.000208
578 0.000206
579 0.000204
580 0.000203
581 0.000201
582 0.000198
583 0.000192
584 0.000187
585 0.000185
586 0.000183
587 0.000183
588 0.000184
589 0.000187
590 0.000191
591 0.000193
592 0.000194
593 0.000198
594 0.000199
595 0.000200
596 0.000198
597 0.000199
598 0.000196
599 0.000191
600 0.000189
601 0.000189
602 0.000188
603 0.000187
604 0.000183
605 0.000180
606 0.000178
607 0.000177
608 0.000177
609 0.000178
610 0.000180
611 0.000180
612 0.000181
613 0.000182
614 0.000180
615 0.000178
616 0.000177
617 0.000175
618 0.000173
619 0.000170
620 0.000167
621 0.000166
622 0.000165
623 0.000167
624 0.000167
625 0.000162
626 0.000159
627 0.000157
628 0.000153
629 0.000150
630 0.000148
631 0.000147
632 0.000148
633 0.000149
634 0.000148
635 0.000147
636 0.000149
637 0.000152
638 0.000154
639 0.000154
640 0.000153
641 0.000150
642 0.000151
643 0.000152
644 0.000151
645 0.000149
646 0.000149
647 0.000151
648 0.000151
649 0.000150
650 0.000151
651 0.000152
652 0.000154
653 0.000156
654 0.000156
655 0.000156
656 0.000155
657 0.000154
658 0.000152
659 0.000150
660 0.000150
661 0.000150
662 0.000151
663 0.000150
664 0.000147
665 0.000144
666 0.000143
667 0.000142
668 0.000142
669 0.000144
670 0.000144
671 0.000146
672 0.000144
673 0.000142
674 0.000140
675 0.000137
676 0.000134
677 0.000134
678 0.000133
679 0.000130
680 0.000127
681 0.000126
682 0.000124
683 0.000123
684 0.000120
685 0.000117
686 0.000110
687 0.000105
688 0.000102
689 0.000098
690 0.000095
691 0.000093
692 0.000094
693 0.000094
694 0.000093
695 0.000092
696 0.000093
697 0.000094
698 0.000096
699 0.000098
700 0.000100
701 0.000104
702 0.000104
703 0.000105
704 0.000109
705 0.000113
706 0.000115
707 0.000117
708 0.000122
709 0.000127
710 0.000132
711 0.000138
712 0.000143
713 0.000147
714 0.000150
715 0.000151
716 0.000152
717 0.000154
718 0.000155
719 0.000156
720 0.000158
721 0.000160
722 0.000160
723 0.000159
724 0.000158
725 0.000156
726 0.000153
727 0.000152
728 0.000153
729 0.000150
730 0.000150
731 0.000152
732 0.000152
733 0.000151
734 0.000149
735 0.000148
736 0.000148
737 0.000146
738 0.000145
739 0.000140
740 0.000137
741 0.000134
742 0.000132
743 0.000130
744 0.000129
745 0.000127
746 0.000127
747 0.000126
748 0.000126
749 0.000124
750 0.000124
751 0.000125
752 0.000124
753 0.000123
754 0.000122
755 0.000120
756 0.000120
757 0.000122
758 0.000125
759 0.000127
760 0.000128
761 0.000130
762 0.000130
763 0.000131
764 0.000130
765 0.000130
766 0.000132
767 0.000133
768 0.000134
769 0.000135
770 0.000135
771 0.000134
772 0.000137
773 0.000139
774 0.000140
775 0.000141
776 0.000142
777 0.000144
778 0.000146
779 0.000148
780 0.000150
781 0.000153
782 0.000155
783 0.000155
784 0.000154
785 0.000152
786 0.000151
787 0.000149
788 0.000149
789 0.000151
790 0.000149
791 0.000149
792 0.000150
793 0.000151
794 0.000149
795 0.000147
796 0.000145
797 0.000143
798 0.000141
799 0.000140
800 0.000139
801 0.000137
802 0.000137
803 0.000135
804 0.000131
805 0.000128
806 0.000125
807 0.000121
808 0.000119
809 0.000118
