# i correlation
1 0.001855
2 0.001826
3 0.001801
4 0.001774
5 0.001754
6 0.001735
7 0.001717
8 0.001701
9 0.001681
10 0.001663
11 0.001648
12 0.001635
13 0.001626
14 0.001616
15 0.001604
16 0.001594
17 0.001585
18 0.001577
19 0.001568
20 0.001562
21 0.001556
22 0.001547
23 0.001540
24 0.001531
25 0.001521
26 0.001512
27 0.001504
28 0.001495
29 0.001487
30 0.001481
31 0.001475
32 0.001473
33 0.001471
34 0.001469
35 0.001466
36 0.001460
37 0.001459
38 0.001455
39 0.001454
40 0.001453
41 0.001451
42 0.001451
43 0.001447
44 0.001443
45 0.001437
46 0.001433
47 0.001431
48 0.001429
49 0.001423
50 0.001419
51 0.001416
52 0.001408
53 0.001404
54 0.001404
55 0.001406
56 0.001409
57 0.001407
58 0.001406
59 0.001404
60 0.001399
61 0.001396
62 0.001392
63 0.001389
64 0.001386
65 0.001384
66 0.001379
67 0.001376
68 0.001372
69 0.001369
70 0.001366
71 0.001362
72 0.001360
73 0.001355
74 0.001350
75 0.001347
76 0.001345
77 0.001344
78 0.001341
79 0.001335
80 0.001328
81 0.001326
82 0.001325
83 0.001325
84 0.001320
85 0.001313
86 0.001307
87 0.001299
88 0.001294
89 0.001287
90 0.001284
91 0.001279
92 0.001274
93 0.001272
94 0.001268
95 0.001266
96 0.001266
97 0.001262
98 0.001262
99 0.001260
100 0.001253
101 0.001249
102 0.001249
103 0.001244
104 0.001243
105 0.001238
106 0.001230
107 0.001223
108 0.001216
109 0.001210
110 0.001206
111 0.001203
112 0.001201
113 0.001199
114 0.001196
115 0.001198
116 0.001204
117 0.001204
118 0.001207
119 0.001210
120 0.001207
121 0.001205
122 0.001200
123 0.001195
124 0.001189
125 0.001183
126 0.001179
127 0.001176
128 0.001170
129 0.001165
130 0.001160
131 0.001152
132 0.001148
133 0.001146
134 0.001143
135 0.001139
136 0.001135
137 0.001133
138 0.001130
139 0.001129
140 0.001124
141 0.001119
142 0.001113
143 0.001105
144 0.001098
145 0.001092
146 0.001088
147 0.001087
148 0.001084
149 0.001083
150 0.001084
151 0.001083
152 0.001080
153 0.001076
154 0.001073
155 0.001071
156 0.001064
157 0.001059
158 0.001056
159 0.001050
160 0.001050
161 0.001048
162 0.001048
163 0.001046
164 0.001039
165 0.001037
166 0.001034
167 0.001029
168 0.001026
169 0.001024
170 0.001024
171 0.001023
172 0.001018
173 0.001012
174 0.001011
175 0.001007
176 0.001002
177 0.001000
178 0.001000
179 0.000999
180 0.000996
181 0.000995
182 0.000990
183 0.000987
184 0.000983
185 0.000980
186 0.000979
187 0.000977
188 0.000973
189 0.000969
190 0.000965
191 0.000961
192 0.000957
193 0.000954
194 0.000956
195 0.000957
196 0.000957
197 0.000956
198 0.000953
199 0.000947
200 0.000940
201 0.000937
202 0.000936
203 0.000936
204 0.000938
205 0.000939
206 0.000940
207 0.000937
208 0.000936
209 0.000936
210 0.000938
211 0.000944
212 0.000947
213 0.000948
214 0.000949
215 0.000949
216 0.000948
217 0.000948
218 0.000947
219 0.000943
220 0.000941
221 0.000939
222 0.000935
223 0.000931
224 0.000928
225 0.000927
226 0.000924
227 0.000923
228 0.000922
229 0.000916
230 0.000909
231 0.000904
232 0.000897
233 0.000888
234 0.000882
235 0.000876
236 0.000868
237 0.000861
238 0.000857
239 0.000848
240 0.000838
241 0.000830
242 0.000820
243 0.000813
244 0.000807
245 0.000803
246 0.000801
247 0.000796
248 0.000793
249 0.000786
250 0.000782
251 0.000779
252 0.000778
253 0.000781
254 0.000783
255 0.000783
256 0.000781
257 0.000776
258 0.000772
259 0.000768
260 0.000766
261 0.000764
262 0.000760
263 0.000754
264 0.000750
265 0.000746
266 0.000742
267 0.000741
268 0.000738
269 0.000738
270 0.000737
271 0.000735
272 0.000734
273 0.000733
274 0.000733
275 0.000732
276 0.000732
277 0.000732
278 0.000733
279 0.000735
280 0.000734
281 0.000735
282 0.000738
283 0.000741
284 0.000742
285 0.000742
286 0.000740
287 0.000741
288 0.000743
289 0.000745
290 0.000746
291 0.000744
292 0.000742
293 0.000740
294 0.000741
295 0.000742
296 0.000744
297 0.000747
298 0.000747
299 0.000750
300 0.000750
301 0.000750
302 0.000748
303 0.000747
304 0.000747
305 0.000743
306 0.000740
307 0.000738
308 0.000735
309 0.000731
310 0.000727
311 0.000725
312 0.000722
313 0.000719
314 0.000715
315 0.000712
316 0.000709
317 0.000708
318 0.000703
319 0.000697
320 0.000694
321 0.000688
322 0.000682
323 0.000676
324 0.000669
325 0.000664
326 0.000657
327 0.000650
328 0.000646
329 0.000643
330 0.000640
331 0.000639
332 0.000637
333 0.000637
334 0.000636
335 0.000632
336 0.000633
337 0.000635
338 0.000635
339 0.000636
340 0.000637
341 0.000637
342 0.000636
343 0.000636
344 0.000637
345 0.000635
346 0.000635
347 0.000634
348 0.000632
349 0.000630
350 0.000629
351 0.000627
352 0.000625
353 0.000623
354 0.000621
355 0.000620
356 0.000619
357 0.000619
358 0.000615
359 0.000610
360 0.000607
361 0.000603
362 0.000598
363 0.000592
364 0.000591
365 0.000590
366 0.000591
367 0.000590
368 0.000590
369 0.000585
370 0.000581
371 0.000577
372 0.000574
373 0.000573
374 0.000572
375 0.000570
376 0.000571
377 0.000570
378 0.000570
379 0.000569
380 0.000570
381 0.000571
382 0.000571
383 0.000570
384 0.000566
385 0.000562
386 0.000558
387 0.000553
388 0.000550
389 0.000546
390 0.000542
391 0.000538
392 0.000537
393 0.000535
394 0.000535
395 0.000537
396 0.000535
397 0.000535
398 0.000535
399 0.000534
400 0.000533
401 0.000534
402 0.000534
403 0.000535
404 0.000533
405 0.000531
406 0.000531
407 0.000529
408 0.000526
409 0.000523
410 0.000521
411 0.000516
412 0.000514
413 0.000510
414 0.000507
415 0.000508
416 0.000509
417 0.000506
418 0.000506
419 0.000507
420 0.000506
421 0.000507
422 0.000512
423 0.000516
424 0.000522
425 0.000526
426 0.000529
427 0.000530
428 0.000528
429 0.000528
430 0.000528
431 0.000527
432 0.000527
433 0.000527
434 0.000526
435 0.000526
436 0.000526
437 0.000523
438 0.000521
439 0.000522
440 0.000524
441 0.000522
442 0.000521
443 0.000519
444 0.000518
445 0.000516
446 0.000513
447 0.000508
448 0.000506
449 0.000503
450 0.000502
451 0.000499
452 0.000498
453 0.000497
454 0.000494
455 0.000490
456 0.000486
457 0.000482
458 0.000478
459 0.000474
460 0.000470
461 0.000466
462 0.000461
463 0.000455
464 0.000449
465 0.000442
466 0.000440
467 0.000435
468 0.000431
469 0.000430
470 0.000429
471 0.000425
472 0.000423
473 0.000421
474 0.000419
475 0.000418
476 0.000416
477 0.000414
478 0.000414
479 0.000412
480 0.000411
481 0.000408
482 0.000406
483 0.000406
484 0.000405
485 0.000406
486 0.000406
487 0.000408
488 0.000408
489 0.000407
490 0.000407
491 0.000409
492 0.000411
493 0.000414
494 0.000419
495 0.000421
496 0.000423
497 0.000426
498 0.000429
499 0.000431
500 0.000431
501 0.000431
502 0.000430
503 0.000431
504 0.000429
505 0.000427
506 0.000424
507 0.000422
508 0.000421
509 0.000417
510 0.000415
511 0.000414
512 0.000412
513 0.000410
514 0.000410
515 0.000411
516 0.000413
517 0.000417
518 0.000420
519 0.000422
520 0.000425
521 0.000427
522 0.000428
523 0.000427
524 0.000425
525 0.000425
526 0.000424
527 0.000422
528 0.000421
529 0.000417
530 0.000414
531 0.000411
532 0.000406
533 0.000401
534 0.000398
535 0.000395
536 0.000389
537 0.000380
538 0.000374
539 0.000369
540 0.000361
541 0.000356
542 0.000352
543 0.000350
544 0.000347
545 0.000345
546 0.000342
547 0.000339
548 0.000335
549 0.000333
550 0.000331
551 0.000331
552 0.000332
553 0.000332
554 0.000333
555 0.000334
556 0.000335
557 0.000335
558 0.000335
559 0.000336
560 0.000337
561 0.000338
562 0.000338
563 0.000338
564 0.000338
565 0.000339
566 0.000338
567 0.000333
568 0.000331
569 0.000326
570 0.000321
571 0.000318
572 0.000315
573 0.000314
574 0.000312
575 0.000309
576 0.000308
577 0.000306
578 0.000305
579 0.000302
580 0.000298
581 0.000294
582 0.000291
583 0.000286
584 0.000284
585 0.000281
586 0.000278
587 0.000276
588 0.000273
589 0.000272
590 0.000271
591 0.000270
592 0.000269
593 0.000267
594 0.000266
595 0.000264
596 0.000264
597 0.000263
598 0.000263
599 0.000261
600 0.000259
601 0.000261
602 0.000264
603 0.000268
604 0.000270
605 0.000272
606 0.000273
607 0.000271
608 0.000269
609 0.000267
610 0.000267
611 0.000269
612 0.000269
613 0.000268
614 0.000267
615 0.000264
616 0.000264
617 0.000264
618 0.000263
619 0.000265
620 0.000267
621 0.000270
622 0.000271
623 0.000269
624 0.000270
625 0.000267
626 0.000265
627 0.000264
628 0.000263
629 0.000261
630 0.000260
631 0.000258
632 0.000255
633 0.000254
634 0.000252
635 0.000251
636 0.000251
637 0.000251
638 0.000251
639 0.000248
640 0.000247
641 0.000247
642 0.000243
643 0.000241
644 0.000239
645 0.000235
646 0.000230
647 0.000225
648 0.000222
649 0.000220
650 0.000220
651 0.000219
652 0.000215
653 0.000212
654 0.000212
655 0.000209
656 0.000208
657 0.000208
658 0.000208
659 0.000207
660 0.000205
661 0.000205
662 0.000205
663 0.000204
664 0.000204
665 0.000204
666 0.000201
667 0.000198
668 0.000197
669 0.000194
670 0.000192
671 0.000190
672 0.000190
673 0.000191
674 0.000190
675 0.000191
676 0.000190
677 0.000190
678 0.000190
679 0.000188
680 0.000187
681 0.000188
682 0.000188
683 0.000188
684 0.000187
685 0.000187
686 0.000188
687 0.000186
688 0.000182
689 0.000180
690 0.000175
691 0.000169
692 0.000165
693 0.000161
694 0.000156
695 0.000151
696 0.000146
697 0.000141
698 0.000137
699 0.000134
700 0.000132
701 0.000131
702 0.000127
703 0.000124
704 0.000121
705 0.000120
706 0.000119
707 0.000119
708 0.000119
709 0.000120
710 0.000121
711 0.000119
712 0.000117
713 0.000117
714 0.000117
715 0.000118
716 0.000115
717 0.000112
718 0.000110
719 0.000109
720 0.000110
721 0.000110
722 0.000113
723 0.000116
724 0.000120
725 0.000121
726 0.000125
727 0.000126
728 0.000127
729 0.000127
730 0.000125
731 0.000125
732 0.000125
733 0.000125
734 0.000124
735 0.000123
736 0.000123
737 0.000124
738 0.000125
739 0.000127
740 0.000129
741 0.000132
742 0.000135
743 0.000137
744 0.000139
745 0.000141
746 0.000140
747 0.000141
748 0.000143
749 0.000143
750 0.000141
751 0.000139
752 0.000138
753 0.000136
754 0.000134
755 0.000133
756 0.000132
757 0.000132
758 0.000129
759 0.000127
760 0.000124
761 0.000122
762 0.000119
763 0.000116
764 0.000113
765 0.000107
766 0.000103
767 0.000097
768 0.000092
769 0.000089
770 0.000088
771 0.000085
772 0.000081
773 0.000078
774 0.000076
775 0.000075
776 0.000074
777 0.000075
778 0.000075
779 0.000075
780 0.000075
781 0.000076
782 0.000078
783 0.000081
784 0.000082
785 0.000082
786 0.000081
787 0.000081
788 0.000083
789 0.000085
790 0.000088
791 0.000092
792 0.000095
793 0.000097
794 0.000098
795 0.000099
796 0.000101
797 0.000103
798 0.000103
799 0.000103
800 0.000103
801 0.000104
802 0.000106
803 0.000108
804 0.000110
805 0.000110
806 0.000111
807 0.000112
808 0.000113
809 0.000114
