# i correlation
1 0.003223
2 0.002926
3 0.002686
4 0.002476
5 0.002283
6 0.002135
7 0.002020
8 0.001910
9 0.001838
10 0.001729
11 0.001621
12 0.001544
13 0.001462
14 0.001393
15 0.001353
16 0.001312
17 0.001237
18 0.001194
19 0.001163
20 0.001168
21 0.001210
22 0.001249
23 0.001249
24 0.001251
25 0.001287
26 0.001277
27 0.001265
28 0.001270
29 0.001289
30 0.001309
31 0.001315
32 0.001294
33 0.001265
34 0.001233
35 0.001187
36 0.001132
37 0.001143
38 0.001142
39 0.001118
40 0.001099
41 0.001101
42 0.001095
43 0.001105
44 0.001095
45 0.001022
46 0.000962
47 0.000886
48 0.000814
49 0.000747
50 0.000706
51 0.000712
52 0.000734
53 0.000769
54 0.000790
55 0.000815
56 0.000803
57 0.000775
58 0.000805
59 0.000812
60 0.000838
61 0.000837
62 0.000825
63 0.000832
64 0.000858
65 0.000848
66 0.000842
67 0.000848
68 0.000828
69 0.000816
70 0.000786
71 0.000751
72 0.000722
73 0.000713
74 0.000735
75 0.000727
76 0.000727
77 0.000724
78 0.000709
79 0.000740
80 0.000787
81 0.000820
82 0.000841
83 0.000859
84 0.000887
85 0.000927
86 0.000946
87 0.000970
88 0.001003
89 0.001030
90 0.001016
91 0.001003
92 0.000977
93 0.000944
94 0.000929
95 0.000929
96 0.000946
97 0.000955
98 0.000940
99 0.000920
100 0.000884
101 0.000853
102 0.000800
103 0.000727
104 0.000686
105 0.000636
106 0.000616
107 0.000600
108 0.000589
109 0.000563
110 0.000571
111 0.000624
112 0.000636
113 0.000647
114 0.000671
115 0.000712
116 0.000749
117 0.000769
118 0.000822
119 0.000872
120 0.000914
121 0.000963
122 0.001017
123 0.001051
124 0.001065
125 0.001073
126 0.001082
127 0.001116
128 0.001126
129 0.001135
130 0.001130
131 0.001095
132 0.001085
133 0.001086
134 0.001063
135 0.001029
136 0.000992
137 0.000973
138 0.000965
139 0.000927
140 0.000903
141 0.000892
142 0.000886
143 0.000906
144 0.000905
145 0.000912
146 0.000912
147 0.000910
148 0.000886
149 0.000893
150 0.000911
151 0.000924
152 0.000972
153 0.000983
154 0.001006
155 0.001020
156 0.001010
157 0.000994
158 0.001030
159 0.001080
160 0.001106
161 0.001101
162 0.001119
163 0.001082
164 0.001075
165 0.001033
166 0.000988
167 0.000955
168 0.000929
169 0.000904
170 0.000888
171 0.000874
172 0.000831
173 0.000771
174 0.000730
175 0.000697
176 0.000673
177 0.000654
178 0.000635
179 0.000621
180 0.000685
181 0.000733
182 0.000750
183 0.000776
184 0.000819
185 0.000870
186 0.000889
187 0.000922
188 0.000913
189 0.000886
190 0.000840
191 0.000816
192 0.000799
193 0.000818
194 0.000782
195 0.000752
196 0.000726
197 0.000669
198 0.000611
199 0.000583
200 0.000554
201 0.000557
202 0.000561
203 0.000559
204 0.000549
205 0.000559
206 0.000556
207 0.000576
208 0.000610
209 0.000651
210 0.000690
211 0.000710
212 0.000737
213 0.000771
214 0.000814
215 0.000821
216 0.000811
217 0.000801
218 0.000801
219 0.000801
220 0.000761
221 0.000713
222 0.000704
223 0.000707
224 0.000742
225 0.000763
226 0.000775
227 0.000758
228 0.000727
229 0.000707
230 0.000672
231 0.000642
232 0.000612
233 0.000548
234 0.000506
235 0.000495
236 0.000473
237 0.000445
238 0.000448
239 0.000479
240 0.000523
241 0.000544
242 0.000534
243 0.000509
244 0.000505
245 0.000509
246 0.000529
247 0.000588
248 0.000635
249 0.000687
