# i correlation
1 0.003359
2 0.003072
3 0.002844
4 0.002677
5 0.002543
6 0.002449
7 0.002342
8 0.002247
9 0.002184
10 0.002161
11 0.002124
12 0.002039
13 0.002003
14 0.001980
15 0.001939
16 0.001913
17 0.001880
18 0.001847
19 0.001795
20 0.001747
21 0.001720
22 0.001711
23 0.001695
24 0.001678
25 0.001642
26 0.001585
27 0.001555
28 0.001531
29 0.001502
30 0.001513
31 0.001506
32 0.001471
33 0.001421
34 0.001368
35 0.001342
36 0.001315
37 0.001292
38 0.001270
39 0.001265
40 0.001283
41 0.001299
42 0.001311
43 0.001284
44 0.001234
45 0.001230
46 0.001258
47 0.001248
48 0.001236
49 0.001222
50 0.001200
51 0.001199
52 0.001214
53 0.001209
54 0.001206
55 0.001175
56 0.001108
57 0.001095
58 0.001126
59 0.001142
60 0.001135
61 0.001097
62 0.001044
63 0.001018
64 0.001016
65 0.001028
66 0.001003
67 0.000984
68 0.000987
69 0.001038
70 0.001052
71 0.001063
72 0.001065
73 0.001070
74 0.001056
75 0.001075
76 0.001087
77 0.001057
78 0.001017
79 0.001011
80 0.000987
81 0.000941
82 0.000923
83 0.000923
84 0.000919
85 0.000917
86 0.000912
87 0.000897
88 0.000882
89 0.000871
90 0.000860
91 0.000858
92 0.000867
93 0.000868
94 0.000846
95 0.000786
96 0.000746
97 0.000706
98 0.000676
99 0.000658
100 0.000703
101 0.000747
102 0.000805
103 0.000812
104 0.000805
105 0.000827
106 0.000864
107 0.000876
108 0.000864
109 0.000860
110 0.000859
111 0.000862
112 0.000870
113 0.000850
114 0.000813
115 0.000808
116 0.000817
117 0.000833
118 0.000851
119 0.000896
120 0.000932
121 0.000972
122 0.001020
123 0.001052
124 0.001057
125 0.001028
126 0.001015
127 0.000991
128 0.001001
129 0.000979
130 0.000970
131 0.000941
132 0.000917
133 0.000913
134 0.000945
135 0.000955
136 0.000956
137 0.000930
138 0.000903
139 0.000871
140 0.000840
141 0.000814
142 0.000831
143 0.000840
144 0.000874
145 0.000886
146 0.000863
147 0.000847
148 0.000834
149 0.000840
150 0.000818
151 0.000822
152 0.000843
153 0.000829
154 0.000794
155 0.000770
156 0.000729
157 0.000684
158 0.000665
159 0.000652
160 0.000659
161 0.000667
162 0.000663
163 0.000650
164 0.000640
165 0.000634
166 0.000640
167 0.000614
168 0.000567
169 0.000531
170 0.000524
171 0.000491
172 0.000483
173 0.000496
174 0.000508
175 0.000518
176 0.000559
177 0.000587
178 0.000583
179 0.000576
180 0.000579
181 0.000595
182 0.000609
183 0.000621
184 0.000632
185 0.000636
186 0.000654
187 0.000664
188 0.000658
189 0.000655
190 0.000647
191 0.000596
192 0.000580
193 0.000532
194 0.000513
195 0.000525
196 0.000512
197 0.000519
198 0.000530
199 0.000514
200 0.000503
201 0.000479
202 0.000464
203 0.000452
204 0.000435
205 0.000410
206 0.000393
207 0.000432
208 0.000452
209 0.000470
210 0.000461
211 0.000446
212 0.000433
213 0.000417
214 0.000403
215 0.000379
216 0.000361
217 0.000331
218 0.000322
219 0.000319
220 0.000309
221 0.000315
222 0.000336
223 0.000357
224 0.000381
225 0.000388
226 0.000361
227 0.000345
228 0.000335
229 0.000297
230 0.000285
231 0.000260
232 0.000252
233 0.000250
234 0.000260
235 0.000298
236 0.000308
237 0.000328
238 0.000360
239 0.000375
240 0.000369
241 0.000384
242 0.000364
243 0.000360
244 0.000355
245 0.000363
246 0.000385
247 0.000401
248 0.000368
249 0.000384
