# i correlation
1 0.003359
2 0.003040
3 0.002789
4 0.002558
5 0.002363
6 0.002208
7 0.002073
8 0.002013
9 0.001945
10 0.001902
11 0.001871
12 0.001820
13 0.001807
14 0.001804
15 0.001763
16 0.001733
17 0.001750
18 0.001731
19 0.001728
20 0.001736
21 0.001705
22 0.001683
23 0.001662
24 0.001622
25 0.001551
26 0.001485
27 0.001453
28 0.001451
29 0.001433
30 0.001444
31 0.001457
32 0.001457
33 0.001442
34 0.001416
35 0.001382
36 0.001336
37 0.001287
38 0.001235
39 0.001190
40 0.001161
41 0.001146
42 0.001141
43 0.001165
44 0.001148
45 0.001137
46 0.001131
47 0.001130
48 0.001131
49 0.001118
50 0.001108
51 0.001091
52 0.001080
53 0.001114
54 0.001141
55 0.001139
56 0.001119
57 0.001125
58 0.001139
59 0.001148
60 0.001160
61 0.001147
62 0.001122
63 0.001115
64 0.001096
65 0.001125
66 0.001137
67 0.001141
68 0.001132
69 0.001126
70 0.001137
71 0.001153
72 0.001155
73 0.001150
74 0.001137
75 0.001151
76 0.001168
77 0.001186
78 0.001216
79 0.001216
80 0.001201
81 0.001179
82 0.001124
83 0.001078
84 0.001063
85 0.001027
86 0.001002
87 0.000994
88 0.000981
89 0.000989
90 0.000988
91 0.000974
92 0.000972
93 0.000987
94 0.001004
95 0.001030
96 0.001055
97 0.001083
98 0.001118
99 0.001129
100 0.001147
101 0.001179
102 0.001178
103 0.001141
104 0.001102
105 0.001057
106 0.001020
107 0.000973
108 0.000973
109 0.000981
110 0.000963
111 0.000936
112 0.000904
113 0.000872
114 0.000867
115 0.000836
116 0.000825
117 0.000840
118 0.000867
119 0.000897
120 0.000911
121 0.000904
122 0.000911
123 0.000925
124 0.000914
125 0.000905
126 0.000928
127 0.000942
128 0.000972
129 0.001002
130 0.001049
131 0.001101
132 0.001148
133 0.001194
134 0.001218
135 0.001243
136 0.001245
137 0.001279
138 0.001304
139 0.001341
140 0.001363
141 0.001383
142 0.001380
143 0.001383
144 0.001351
145 0.001309
146 0.001272
147 0.001248
148 0.001183
149 0.001142
150 0.001138
151 0.001127
152 0.001130
153 0.001163
154 0.001209
155 0.001268
156 0.001310
157 0.001331
158 0.001349
159 0.001357
160 0.001387
161 0.001412
162 0.001428
163 0.001445
164 0.001438
165 0.001405
166 0.001388
167 0.001370
168 0.001322
169 0.001269
170 0.001215
171 0.001193
172 0.001144
173 0.001122
174 0.001115
175 0.001095
176 0.001065
177 0.001083
178 0.001110
179 0.001144
180 0.001190
181 0.001229
182 0.001253
183 0.001268
184 0.001269
185 0.001253
186 0.001226
187 0.001174
188 0.001142
189 0.001103
190 0.001060
191 0.001024
192 0.001007
193 0.001014
194 0.001001
195 0.000993
196 0.000987
197 0.000980
198 0.000982
199 0.000986
200 0.000976
201 0.000984
202 0.000986
203 0.000989
204 0.000968
205 0.000952
206 0.000954
207 0.000945
208 0.000921
209 0.000896
210 0.000877
211 0.000859
212 0.000886
213 0.000919
214 0.000975
215 0.001013
216 0.001043
217 0.001059
218 0.001081
219 0.001080
220 0.001087
221 0.001073
222 0.001035
223 0.000979
224 0.000926
225 0.000891
226 0.000893
227 0.000897
228 0.000919
229 0.000930
230 0.000923
231 0.000908
232 0.000918
233 0.000941
234 0.000978
235 0.000995
236 0.000999
237 0.001030
238 0.001060
239 0.001040
240 0.001011
241 0.000969
242 0.000917
243 0.000877
244 0.000816
245 0.000784
246 0.000776
247 0.000773
248 0.000788
249 0.000829
