# i correlation
1 0.003146
2 0.002852
3 0.002573
4 0.002349
5 0.002165
6 0.001996
7 0.001850
8 0.001746
9 0.001644
10 0.001555
11 0.001497
12 0.001463
13 0.001455
14 0.001441
15 0.001452
16 0.001465
17 0.001483
18 0.001474
19 0.001464
20 0.001420
21 0.001365
22 0.001315
23 0.001243
24 0.001193
25 0.001127
26 0.001091
27 0.001043
28 0.001013
29 0.001001
30 0.001005
31 0.000976
32 0.000927
33 0.000879
34 0.000853
35 0.000828
36 0.000809
37 0.000814
38 0.000816
39 0.000812
40 0.000781
41 0.000747
42 0.000730
43 0.000721
44 0.000729
45 0.000755
46 0.000754
47 0.000725
48 0.000708
49 0.000701
50 0.000702
51 0.000702
52 0.000704
53 0.000673
54 0.000617
55 0.000566
56 0.000502
57 0.000493
58 0.000523
59 0.000560
60 0.000582
61 0.000613
62 0.000631
63 0.000644
64 0.000638
65 0.000611
66 0.000599
67 0.000614
68 0.000628
69 0.000643
70 0.000660
71 0.000662
72 0.000656
73 0.000652
74 0.000640
75 0.000592
76 0.000553
77 0.000532
78 0.000511
79 0.000500
80 0.000487
81 0.000456
82 0.000404
83 0.000376
84 0.000402
85 0.000438
86 0.000457
87 0.000450
88 0.000409
89 0.000406
90 0.000432
91 0.000440
92 0.000440
93 0.000450
94 0.000450
95 0.000439
96 0.000430
97 0.000430
98 0.000438
99 0.000444
100 0.000413
101 0.000377
102 0.000367
103 0.000344
104 0.000366
105 0.000375
106 0.000359
107 0.000363
108 0.000365
109 0.000359
110 0.000365
111 0.000409
112 0.000412
113 0.000463
114 0.000492
115 0.000533
116 0.000554
117 0.000546
118 0.000513
119 0.000473
120 0.000423
121 0.000401
122 0.000396
123 0.000381
124 0.000394
125 0.000373
126 0.000357
127 0.000311
128 0.000272
129 0.000278
130 0.000294
131 0.000307
132 0.000341
133 0.000326
134 0.000319
135 0.000306
136 0.000289
137 0.000297
138 0.000266
139 0.000238
140 0.000158
141 0.000104
142 0.000089
143 0.000093
144 0.000110
145 0.000143
146 0.000144
147 0.000150
148 0.000167
149 0.000189
150 0.000218
151 0.000237
152 0.000205
153 0.000177
154 0.000165
155 0.000132
156 0.000144
157 0.000126
158 0.000103
159 0.000086
160 0.000090
161 0.000114
162 0.000119
163 0.000162
164 0.000201
165 0.000229
166 0.000293
167 0.000333
168 0.000390
169 0.000404
170 0.000409
171 0.000425
172 0.000432
173 0.000436
174 0.000477
175 0.000523
176 0.000556
177 0.000560
178 0.000569
179 0.000582
180 0.000592
181 0.000605
182 0.000598
183 0.000618
184 0.000650
185 0.000674
186 0.000661
187 0.000672
188 0.000683
189 0.000681
190 0.000679
191 0.000669
192 0.000681
193 0.000665
194 0.000681
195 0.000718
196 0.000757
197 0.000764
198 0.000770
199 0.000784
200 0.000802
201 0.000828
202 0.000830
203 0.000806
204 0.000791
205 0.000756
206 0.000756
207 0.000729
208 0.000729
209 0.000741
210 0.000744
211 0.000723
212 0.000677
213 0.000644
214 0.000601
215 0.000599
216 0.000603
217 0.000581
218 0.000584
219 0.000599
220 0.000590
221 0.000554
222 0.000520
223 0.000489
224 0.000450
225 0.000414
226 0.000388
227 0.000357
228 0.000339
229 0.000342
230 0.000364
231 0.000379
232 0.000393
233 0.000398
234 0.000401
235 0.000405
236 0.000407
237 0.000402
238 0.000415
239 0.000411
240 0.000415
241 0.000445
242 0.000432
243 0.000428
244 0.000430
245 0.000447
246 0.000469
247 0.000498
248 0.000524
249 0.000543
