# i correlation
1 0.002678
2 0.002421
3 0.002185
4 0.002006
5 0.001852
6 0.001696
7 0.001563
8 0.001482
9 0.001394
10 0.001370
11 0.001284
12 0.001249
13 0.001216
14 0.001206
15 0.001197
16 0.001187
17 0.001193
18 0.001197
19 0.001184
20 0.001199
21 0.001205
22 0.001209
23 0.001221
24 0.001238
25 0.001218
26 0.001195
27 0.001157
28 0.001136
29 0.001125
30 0.001097
31 0.001077
32 0.001021
33 0.000952
34 0.000901
35 0.000843
36 0.000784
37 0.000741
38 0.000746
39 0.000709
40 0.000701
41 0.000713
42 0.000709
43 0.000729
44 0.000771
45 0.000788
46 0.000824
47 0.000835
48 0.000868
49 0.000886
50 0.000905
51 0.000903
52 0.000885
53 0.000870
54 0.000887
55 0.000885
56 0.000912
57 0.000911
58 0.000905
59 0.000904
60 0.000871
61 0.000831
62 0.000789
63 0.000776
64 0.000796
65 0.000783
66 0.000788
67 0.000768
68 0.000767
69 0.000761
70 0.000723
71 0.000708
72 0.000695
73 0.000659
74 0.000658
75 0.000623
76 0.000611
77 0.000557
78 0.000520
79 0.000525
80 0.000547
81 0.000564
82 0.000601
83 0.000620
84 0.000670
85 0.000692
86 0.000720
87 0.000721
88 0.000719
89 0.000713
90 0.000707
91 0.000695
92 0.000692
93 0.000660
94 0.000652
95 0.000641
96 0.000665
97 0.000644
98 0.000615
99 0.000590
100 0.000587
101 0.000597
102 0.000604
103 0.000595
104 0.000594
105 0.000575
106 0.000552
107 0.000501
108 0.000429
109 0.000357
110 0.000318
111 0.000271
112 0.000254
113 0.000256
114 0.000292
115 0.000317
116 0.000324
117 0.000323
118 0.000329
119 0.000338
120 0.000366
121 0.000374
122 0.000371
123 0.000366
124 0.000370
125 0.000387
126 0.000390
127 0.000407
128 0.000425
129 0.000424
130 0.000421
131 0.000435
132 0.000427
133 0.000436
134 0.000439
135 0.000428
136 0.000413
137 0.000404
138 0.000397
139 0.000411
140 0.000383
141 0.000357
142 0.000356
143 0.000354
144 0.000402
145 0.000433
146 0.000457
147 0.000487
148 0.000504
149 0.000510
150 0.000526
151 0.000513
152 0.000513
153 0.000482
154 0.000472
155 0.000444
156 0.000419
157 0.000393
158 0.000364
159 0.000317
160 0.000291
161 0.000243
162 0.000209
163 0.000203
164 0.000188
165 0.000181
166 0.000159
167 0.000148
168 0.000167
169 0.000182
170 0.000208
171 0.000240
172 0.000262
173 0.000296
174 0.000301
175 0.000296
176 0.000296
177 0.000299
178 0.000299
179 0.000300
180 0.000318
181 0.000313
182 0.000335
183 0.000348
184 0.000336
185 0.000367
186 0.000397
187 0.000405
188 0.000426
189 0.000433
190 0.000454
191 0.000448
192 0.000451
193 0.000453
194 0.000466
195 0.000510
196 0.000544
197 0.000552
198 0.000550
199 0.000528
200 0.000550
201 0.000569
202 0.000573
203 0.000594
204 0.000607
205 0.000617
206 0.000613
207 0.000613
208 0.000611
209 0.000572
210 0.000558
211 0.000535
212 0.000525
213 0.000539
214 0.000540
215 0.000552
216 0.000565
217 0.000591
218 0.000612
219 0.000636
220 0.000658
221 0.000682
222 0.000668
223 0.000661
224 0.000668
225 0.000669
226 0.000652
227 0.000640
228 0.000589
229 0.000567
230 0.000548
231 0.000537
232 0.000538
233 0.000539
234 0.000567
235 0.000585
236 0.000590
237 0.000599
238 0.000617
239 0.000666
240 0.000682
241 0.000692
242 0.000685
243 0.000638
244 0.000616
245 0.000595
246 0.000573
247 0.000546
248 0.000528
249 0.000520
