# i correlation
1 0.003535
2 0.003269
3 0.003026
4 0.002837
5 0.002722
6 0.002593
7 0.002482
8 0.002386
9 0.002253
10 0.002158
11 0.002082
12 0.001996
13 0.001914
14 0.001827
15 0.001719
16 0.001633
17 0.001586
18 0.001545
19 0.001531
20 0.001529
21 0.001494
22 0.001473
23 0.001432
24 0.001414
25 0.001393
26 0.001349
27 0.001327
28 0.001325
29 0.001306
30 0.001313
31 0.001331
32 0.001354
33 0.001384
34 0.001380
35 0.001391
36 0.001426
37 0.001432
38 0.001451
39 0.001437
40 0.001464
41 0.001477
42 0.001506
43 0.001495
44 0.001501
45 0.001464
46 0.001431
47 0.001414
48 0.001417
49 0.001410
50 0.001424
51 0.001426
52 0.001411
53 0.001405
54 0.001400
55 0.001409
56 0.001389
57 0.001402
58 0.001405
59 0.001358
60 0.001334
61 0.001300
62 0.001291
63 0.001263
64 0.001252
65 0.001239
66 0.001252
67 0.001251
68 0.001298
69 0.001336
70 0.001395
71 0.001429
72 0.001463
73 0.001452
74 0.001467
75 0.001508
76 0.001540
77 0.001574
78 0.001624
79 0.001655
80 0.001690
81 0.001683
82 0.001658
83 0.001633
84 0.001607
85 0.001591
86 0.001592
87 0.001560
88 0.001531
89 0.001527
90 0.001512
91 0.001498
92 0.001460
93 0.001464
94 0.001490
95 0.001508
96 0.001516
97 0.001540
98 0.001562
99 0.001589
100 0.001619
101 0.001634
102 0.001647
103 0.001628
104 0.001610
105 0.001583
106 0.001541
107 0.001462
108 0.001436
109 0.001362
110 0.001329
111 0.001310
112 0.001273
113 0.001256
114 0.001224
115 0.001212
116 0.001227
117 0.001223
118 0.001212
119 0.001202
120 0.001177
121 0.001156
122 0.001165
123 0.001159
124 0.001158
125 0.001146
126 0.001140
127 0.001163
128 0.001200
129 0.001264
130 0.001308
131 0.001289
132 0.001277
133 0.001254
134 0.001229
135 0.001263
136 0.001300
137 0.001343
138 0.001365
139 0.001390
140 0.001440
141 0.001461
142 0.001458
143 0.001441
144 0.001404
145 0.001366
146 0.001327
147 0.001287
148 0.001273
149 0.001251
150 0.001247
151 0.001239
152 0.001200
153 0.001171
154 0.001130
155 0.001105
156 0.001073
157 0.001030
158 0.001019
159 0.000991
160 0.000978
161 0.000957
162 0.000927
163 0.000902
164 0.000871
165 0.000873
166 0.000877
167 0.000864
168 0.000866
169 0.000857
170 0.000848
171 0.000814
172 0.000831
173 0.000851
174 0.000841
175 0.000858
176 0.000855
177 0.000850
178 0.000811
179 0.000755
180 0.000725
181 0.000710
182 0.000705
183 0.000706
184 0.000700
185 0.000692
186 0.000709
187 0.000719
188 0.000730
189 0.000725
190 0.000740
191 0.000780
192 0.000800
193 0.000815
194 0.000868
195 0.000893
196 0.000881
197 0.000900
198 0.000905
199 0.000901
200 0.000928
201 0.000953
202 0.000998
203 0.001029
204 0.001072
205 0.001105
206 0.001137
207 0.001142
208 0.001159
209 0.001184
210 0.001197
211 0.001211
212 0.001189
213 0.001137
214 0.001115
215 0.001095
216 0.001124
217 0.001144
218 0.001155
219 0.001134
220 0.001092
221 0.001060
222 0.001039
223 0.001058
224 0.001046
225 0.001034
226 0.001014
227 0.000988
228 0.000938
229 0.000886
230 0.000841
231 0.000809
232 0.000752
233 0.000696
234 0.000651
235 0.000648
236 0.000642
237 0.000634
238 0.000626
239 0.000597
240 0.000573
241 0.000567
242 0.000590
243 0.000622
244 0.000648
245 0.000700
246 0.000728
247 0.000762
248 0.000831
249 0.000850
