# i correlation
1 0.002810
2 0.002490
3 0.002272
4 0.002093
5 0.001942
6 0.001803
7 0.001699
8 0.001637
9 0.001572
10 0.001503
11 0.001456
12 0.001388
13 0.001346
14 0.001353
15 0.001350
16 0.001331
17 0.001290
18 0.001239
19 0.001207
20 0.001135
21 0.001088
22 0.001069
23 0.001066
24 0.001041
25 0.001030
26 0.000995
27 0.000971
28 0.000940
29 0.000905
30 0.000894
31 0.000907
32 0.000915
33 0.000963
34 0.000991
35 0.001000
36 0.001006
37 0.001010
38 0.001002
39 0.000979
40 0.000948
41 0.000952
42 0.000949
43 0.000914
44 0.000894
45 0.000899
46 0.000890
47 0.000940
48 0.000931
49 0.000930
50 0.000967
51 0.000995
52 0.000989
53 0.000981
54 0.000973
55 0.000987
56 0.000970
57 0.000956
58 0.000969
59 0.000976
60 0.000987
61 0.000984
62 0.000966
63 0.000952
64 0.000951
65 0.000939
66 0.000939
67 0.000935
68 0.000948
69 0.000948
70 0.000950
71 0.000943
72 0.000970
73 0.000967
74 0.000972
75 0.000953
76 0.000923
77 0.000873
78 0.000845
79 0.000792
80 0.000799
81 0.000818
82 0.000819
83 0.000804
84 0.000795
85 0.000801
86 0.000736
87 0.000667
88 0.000636
89 0.000608
90 0.000581
91 0.000560
92 0.000574
93 0.000590
94 0.000634
95 0.000646
96 0.000681
97 0.000725
98 0.000714
99 0.000705
100 0.000699
101 0.000734
102 0.000744
103 0.000758
104 0.000736
105 0.000720
106 0.000712
107 0.000684
108 0.000663
109 0.000659
110 0.000652
111 0.000681
112 0.000656
113 0.000609
114 0.000565
115 0.000543
116 0.000527
117 0.000529
118 0.000577
119 0.000649
120 0.000704
121 0.000734
122 0.000736
123 0.000721
124 0.000669
125 0.000661
126 0.000672
127 0.000693
128 0.000695
129 0.000666
130 0.000647
131 0.000629
132 0.000608
133 0.000599
134 0.000578
135 0.000568
136 0.000569
137 0.000577
138 0.000569
139 0.000550
140 0.000540
141 0.000538
142 0.000539
143 0.000521
144 0.000535
145 0.000521
146 0.000528
147 0.000525
148 0.000528
149 0.000507
150 0.000489
151 0.000488
152 0.000520
153 0.000567
154 0.000625
155 0.000684
156 0.000735
157 0.000751
158 0.000733
159 0.000687
160 0.000641
161 0.000591
162 0.000582
163 0.000540
164 0.000518
165 0.000529
166 0.000536
167 0.000532
168 0.000543
169 0.000560
170 0.000572
171 0.000542
172 0.000524
173 0.000521
174 0.000509
175 0.000491
176 0.000464
177 0.000454
178 0.000460
179 0.000450
180 0.000430
181 0.000393
182 0.000355
183 0.000324
184 0.000298
185 0.000279
186 0.000250
187 0.000233
188 0.000229
189 0.000236
190 0.000252
191 0.000286
192 0.000278
193 0.000322
194 0.000329
195 0.000327
196 0.000338
197 0.000329
198 0.000304
199 0.000316
200 0.000325
201 0.000353
202 0.000339
203 0.000317
204 0.000322
205 0.000325
206 0.000307
207 0.000297
208 0.000303
209 0.000314
210 0.000290
211 0.000261
212 0.000261
213 0.000212
214 0.000169
215 0.000170
216 0.000227
217 0.000252
218 0.000245
219 0.000236
220 0.000249
221 0.000248
222 0.000247
223 0.000242
224 0.000250
225 0.000247
226 0.000247
227 0.000253
228 0.000237
229 0.000230
230 0.000252
231 0.000290
232 0.000325
233 0.000305
234 0.000278
235 0.000269
236 0.000258
237 0.000248
238 0.000257
239 0.000247
240 0.000256
241 0.000279
242 0.000286
243 0.000295
244 0.000268
245 0.000227
246 0.000229
247 0.000221
248 0.000193
249 0.000178
