# i correlation
1 0.003541
2 0.003177
3 0.002893
4 0.002665
5 0.002468
6 0.002302
7 0.002174
8 0.002047
9 0.001950
10 0.001883
11 0.001888
12 0.001912
13 0.001911
14 0.001914
15 0.001911
16 0.001921
17 0.001911
18 0.001849
19 0.001824
20 0.001794
21 0.001762
22 0.001748
23 0.001709
24 0.001632
25 0.001553
26 0.001515
27 0.001507
28 0.001504
29 0.001497
30 0.001466
31 0.001471
32 0.001501
33 0.001533
34 0.001530
35 0.001560
36 0.001593
37 0.001592
38 0.001590
39 0.001603
40 0.001596
41 0.001560
42 0.001499
43 0.001397
44 0.001308
45 0.001212
46 0.001131
47 0.001072
48 0.001069
49 0.001084
50 0.001108
51 0.001146
52 0.001174
53 0.001194
54 0.001212
55 0.001250
56 0.001273
57 0.001271
58 0.001272
59 0.001288
60 0.001268
61 0.001240
62 0.001204
63 0.001169
64 0.001172
65 0.001202
66 0.001182
67 0.001179
68 0.001177
69 0.001190
70 0.001189
71 0.001201
72 0.001215
73 0.001223
74 0.001209
75 0.001151
76 0.001111
77 0.001124
78 0.001136
79 0.001106
80 0.001045
81 0.000975
82 0.000919
83 0.000915
84 0.000936
85 0.000917
86 0.000907
87 0.000931
88 0.000983
89 0.001026
90 0.001068
91 0.001102
92 0.001115
93 0.001077
94 0.001056
95 0.001017
96 0.000965
97 0.000899
98 0.000837
99 0.000769
100 0.000763
101 0.000778
102 0.000793
103 0.000838
104 0.000874
105 0.000903
106 0.000936
107 0.000956
108 0.000945
109 0.000937
110 0.000893
111 0.000861
112 0.000836
113 0.000836
114 0.000830
115 0.000805
116 0.000802
117 0.000785
118 0.000759
119 0.000768
120 0.000792
121 0.000780
122 0.000764
123 0.000772
124 0.000779
125 0.000747
126 0.000734
127 0.000734
128 0.000771
129 0.000831
130 0.000864
131 0.000861
132 0.000841
133 0.000809
134 0.000753
135 0.000729
136 0.000717
137 0.000685
138 0.000656
139 0.000641
140 0.000651
141 0.000659
142 0.000687
143 0.000733
144 0.000782
145 0.000796
146 0.000826
147 0.000851
148 0.000848
149 0.000828
150 0.000784
151 0.000762
152 0.000777
153 0.000801
154 0.000793
155 0.000802
156 0.000844
157 0.000854
158 0.000868
159 0.000873
160 0.000876
161 0.000882
162 0.000924
163 0.000940
164 0.000927
165 0.000924
166 0.000936
167 0.000914
168 0.000900
169 0.000901
170 0.000908
171 0.000929
172 0.000953
173 0.000975
174 0.000996
175 0.001004
176 0.000975
177 0.000925
178 0.000907
179 0.000900
180 0.000892
181 0.000885
182 0.000851
183 0.000845
184 0.000875
185 0.000927
186 0.000943
187 0.000934
188 0.000951
189 0.000917
190 0.000872
191 0.000860
192 0.000853
193 0.000862
194 0.000885
195 0.000892
196 0.000881
197 0.000912
198 0.000948
199 0.000949
200 0.000952
201 0.000991
202 0.000999
203 0.001002
204 0.000974
205 0.000981
206 0.000959
207 0.000956
208 0.000934
209 0.000891
210 0.000845
211 0.000802
212 0.000764
213 0.000761
214 0.000778
215 0.000789
216 0.000787
217 0.000799
218 0.000815
219 0.000803
220 0.000839
221 0.000884
222 0.000912
223 0.000915
224 0.000922
225 0.000928
226 0.000918
227 0.000917
228 0.000899
229 0.000888
230 0.000883
231 0.000887
232 0.000880
233 0.000875
234 0.000865
235 0.000856
236 0.000866
237 0.000848
238 0.000847
239 0.000875
240 0.000912
241 0.000886
242 0.000877
243 0.000890
244 0.000914
245 0.000912
246 0.000903
247 0.000897
248 0.000845
249 0.000795
