# i correlation
1 0.002834
2 0.002545
3 0.002281
4 0.002043
5 0.001845
6 0.001701
7 0.001560
8 0.001409
9 0.001314
10 0.001228
11 0.001149
12 0.001098
13 0.001053
14 0.001012
15 0.000961
16 0.000908
17 0.000876
18 0.000853
19 0.000826
20 0.000802
21 0.000758
22 0.000729
23 0.000742
24 0.000744
25 0.000765
26 0.000715
27 0.000702
28 0.000656
29 0.000605
30 0.000566
31 0.000547
32 0.000533
33 0.000492
34 0.000456
35 0.000438
36 0.000424
37 0.000480
38 0.000469
39 0.000442
40 0.000394
41 0.000344
42 0.000303
43 0.000311
44 0.000352
45 0.000406
46 0.000443
47 0.000478
48 0.000481
49 0.000495
50 0.000503
51 0.000486
52 0.000463
53 0.000437
54 0.000422
55 0.000451
56 0.000491
57 0.000542
58 0.000576
59 0.000593
60 0.000621
61 0.000649
62 0.000711
63 0.000669
64 0.000655
65 0.000648
66 0.000617
67 0.000574
68 0.000552
69 0.000529
70 0.000504
71 0.000494
72 0.000513
73 0.000497
74 0.000501
75 0.000525
76 0.000568
77 0.000602
78 0.000609
79 0.000603
80 0.000572
81 0.000585
82 0.000580
83 0.000575
84 0.000544
85 0.000526
86 0.000491
87 0.000462
88 0.000417
89 0.000392
90 0.000353
91 0.000274
92 0.000235
93 0.000202
94 0.000195
95 0.000189
96 0.000164
97 0.000130
98 0.000105
99 0.000109
100 0.000125
101 0.000144
102 0.000177
103 0.000182
104 0.000186
105 0.000166
106 0.000192
107 0.000205
108 0.000186
109 0.000189
110 0.000187
111 0.000150
112 0.000137
113 0.000165
114 0.000167
115 0.000169
116 0.000173
117 0.000146
118 0.000140
119 0.000154
120 0.000185
121 0.000217
122 0.000212
123 0.000228
124 0.000243
125 0.000263
126 0.000268
127 0.000279
128 0.000273
129 0.000246
130 0.000216
131 0.000180
132 0.000157
133 0.000159
134 0.000186
135 0.000211
136 0.000208
137 0.000206
138 0.000219
139 0.000232
140 0.000245
141 0.000260
142 0.000266
143 0.000281
144 0.000302
145 0.000287
146 0.000283
147 0.000269
148 0.000272
149 0.000254
150 0.000247
151 0.000236
152 0.000223
153 0.000221
154 0.000202
155 0.000164
156 0.000126
157 0.000116
158 0.000133
159 0.000182
160 0.000219
161 0.000206
162 0.000234
163 0.000250
164 0.000264
165 0.000270
166 0.000288
167 0.000261
168 0.000265
169 0.000245
170 0.000199
171 0.000168
172 0.000164
173 0.000167
174 0.000160
175 0.000138
176 0.000093
177 0.000030
178 0.000021
179 0.000032
180 0.000058
181 0.000099
182 0.000129
183 0.000143
184 0.000162
185 0.000196
186 0.000207
187 0.000212
188 0.000195
189 0.000184
190 0.000169
191 0.000175
192 0.000182
193 0.000179
194 0.000173
195 0.000143
196 0.000129
197 0.000117
198 0.000098
199 0.000097
200 0.000071
201 0.000033
202 -0.000017
203 -0.000036
204 -0.000060
205 -0.000062
206 -0.000058
207 -0.000093
208 -0.000089
209 -0.000066
210 -0.000034
211 -0.000004
212 0.000040
213 0.000045
214 0.000025
215 0.000005
216 -0.000025
217 -0.000037
218 -0.000044
219 -0.000017
220 -0.000016
221 -0.000031
222 -0.000041
223 -0.000055
224 -0.000058
225 -0.000070
226 -0.000098
227 -0.000110
228 -0.000129
229 -0.000122
230 -0.000120
231 -0.000075
232 -0.000094
233 -0.000103
234 -0.000100
235 -0.000093
236 -0.000065
237 -0.000028
238 0.000029
239 0.000035
240 0.000056
241 0.000064
242 0.000095
243 0.000099
244 0.000113
245 0.000150
246 0.000176
247 0.000212
248 0.000241
249 0.000271
