# i correlation
1 0.002573
2 0.002290
3 0.002043
4 0.001818
5 0.001620
6 0.001432
7 0.001288
8 0.001160
9 0.001081
10 0.000999
11 0.000922
12 0.000874
13 0.000839
14 0.000791
15 0.000772
16 0.000741
17 0.000729
18 0.000696
19 0.000671
20 0.000628
21 0.000607
22 0.000624
23 0.000671
24 0.000713
25 0.000753
26 0.000750
27 0.000740
28 0.000753
29 0.000791
30 0.000848
31 0.000870
32 0.000875
33 0.000867
34 0.000861
35 0.000846
36 0.000841
37 0.000810
38 0.000786
39 0.000741
40 0.000694
41 0.000680
42 0.000626
43 0.000594
44 0.000587
45 0.000597
46 0.000574
47 0.000550
48 0.000585
49 0.000602
50 0.000602
51 0.000586
52 0.000525
53 0.000512
54 0.000483
55 0.000457
56 0.000402
57 0.000355
58 0.000352
59 0.000346
60 0.000379
61 0.000373
62 0.000401
63 0.000403
64 0.000427
65 0.000421
66 0.000427
67 0.000425
68 0.000433
69 0.000434
70 0.000403
71 0.000371
72 0.000316
73 0.000250
74 0.000207
75 0.000185
76 0.000172
77 0.000156
78 0.000122
79 0.000124
80 0.000147
81 0.000189
82 0.000222
83 0.000256
84 0.000259
85 0.000274
86 0.000306
87 0.000334
88 0.000372
89 0.000406
90 0.000455
91 0.000477
92 0.000497
93 0.000505
94 0.000513
95 0.000484
96 0.000469
97 0.000448
98 0.000434
99 0.000437
100 0.000446
101 0.000460
102 0.000437
103 0.000416
104 0.000382
105 0.000346
106 0.000312
107 0.000268
108 0.000262
109 0.000250
110 0.000221
111 0.000225
112 0.000213
113 0.000230
114 0.000215
115 0.000212
116 0.000186
117 0.000176
118 0.000214
119 0.000247
120 0.000275
121 0.000294
122 0.000318
123 0.000342
124 0.000369
125 0.000396
126 0.000442
127 0.000471
128 0.000500
129 0.000501
130 0.000482
131 0.000489
132 0.000497
133 0.000481
134 0.000479
135 0.000485
136 0.000485
137 0.000492
138 0.000480
139 0.000429
140 0.000381
141 0.000334
142 0.000325
143 0.000332
144 0.000340
145 0.000355
146 0.000343
147 0.000346
148 0.000336
149 0.000318
150 0.000313
151 0.000335
152 0.000334
153 0.000329
154 0.000330
155 0.000288
156 0.000300
157 0.000301
158 0.000319
159 0.000347
160 0.000374
161 0.000392
162 0.000438
163 0.000456
164 0.000461
165 0.000442
166 0.000436
167 0.000423
168 0.000411
169 0.000409
170 0.000401
171 0.000353
172 0.000342
173 0.000346
174 0.000359
175 0.000358
176 0.000351
177 0.000364
178 0.000372
179 0.000387
180 0.000376
181 0.000407
182 0.000450
183 0.000451
184 0.000432
185 0.000419
186 0.000404
187 0.000390
188 0.000368
189 0.000352
190 0.000349
191 0.000339
192 0.000346
193 0.000344
194 0.000305
195 0.000280
196 0.000235
197 0.000181
198 0.000142
199 0.000140
200 0.000121
201 0.000119
202 0.000131
203 0.000129
204 0.000123
205 0.000124
206 0.000121
207 0.000115
208 0.000137
209 0.000153
210 0.000149
211 0.000161
212 0.000202
213 0.000237
214 0.000258
215 0.000279
216 0.000299
217 0.000292
218 0.000288
219 0.000295
220 0.000287
221 0.000312
222 0.000314
223 0.000328
224 0.000339
225 0.000363
226 0.000401
227 0.000432
228 0.000470
229 0.000461
230 0.000475
231 0.000477
232 0.000465
233 0.000475
234 0.000481
235 0.000455
236 0.000432
237 0.000399
238 0.000365
239 0.000340
240 0.000304
241 0.000279
242 0.000233
243 0.000223
244 0.000198
245 0.000188
246 0.000185
247 0.000198
248 0.000206
249 0.000179
