# i correlation
1 0.004402
2 0.004161
3 0.003962
4 0.003789
5 0.003645
6 0.003505
7 0.003366
8 0.003270
9 0.003157
10 0.003063
11 0.002986
12 0.002910
13 0.002835
14 0.002804
15 0.002750
16 0.002713
17 0.002699
18 0.002692
19 0.002662
20 0.002621
21 0.002586
22 0.002592
23 0.002564
24 0.002572
25 0.002541
26 0.002512
27 0.002455
28 0.002439
29 0.002422
30 0.002441
31 0.002500
32 0.002500
33 0.002499
34 0.002499
35 0.002466
36 0.002420
37 0.002379
38 0.002338
39 0.002295
40 0.002271
41 0.002231
42 0.002207
43 0.002212
44 0.002177
45 0.002165
46 0.002184
47 0.002172
48 0.002190
49 0.002205
50 0.002205
51 0.002204
52 0.002168
53 0.002124
54 0.002106
55 0.002057
56 0.001967
57 0.001962
58 0.001952
59 0.001943
60 0.001955
61 0.001953
62 0.001995
63 0.002031
64 0.002044
65 0.002059
66 0.002061
67 0.002084
68 0.002092
69 0.002066
70 0.002058
71 0.002063
72 0.002084
73 0.002074
74 0.002047
75 0.002024
76 0.002023
77 0.002002
78 0.001970
79 0.001951
80 0.001942
81 0.001920
82 0.001922
83 0.001926
84 0.001921
85 0.001935
86 0.001959
87 0.001957
88 0.001980
89 0.001994
90 0.001987
91 0.001957
92 0.001925
93 0.001910
94 0.001919
95 0.001934
96 0.001922
97 0.001942
98 0.001966
99 0.001950
100 0.001926
101 0.001861
102 0.001839
103 0.001845
104 0.001863
105 0.001861
106 0.001839
107 0.001833
108 0.001851
109 0.001832
110 0.001821
111 0.001823
112 0.001840
113 0.001869
114 0.001914
115 0.001935
116 0.001961
117 0.001972
118 0.001994
119 0.002025
120 0.002051
121 0.002046
122 0.002061
123 0.002038
124 0.002017
125 0.001999
126 0.002007
127 0.001997
128 0.001983
129 0.001984
130 0.002002
131 0.002017
132 0.002021
133 0.002031
134 0.002058
135 0.002075
136 0.002122
137 0.002173
138 0.002223
139 0.002270
140 0.002269
141 0.002219
142 0.002169
143 0.002117
144 0.002069
145 0.002049
146 0.002018
147 0.002004
148 0.001997
149 0.001975
150 0.001936
151 0.001913
152 0.001892
153 0.001899
154 0.001909
155 0.001887
156 0.001861
157 0.001865
158 0.001845
159 0.001812
160 0.001807
161 0.001804
162 0.001809
163 0.001766
164 0.001726
165 0.001706
166 0.001679
167 0.001663
168 0.001636
169 0.001629
170 0.001650
171 0.001664
172 0.001669
173 0.001680
174 0.001623
175 0.001586
176 0.001566
177 0.001564
178 0.001567
179 0.001560
180 0.001569
181 0.001574
182 0.001593
183 0.001607
184 0.001640
185 0.001676
186 0.001711
187 0.001739
188 0.001792
189 0.001816
190 0.001814
191 0.001808
192 0.001776
193 0.001742
194 0.001708
195 0.001663
196 0.001637
197 0.001615
198 0.001607
199 0.001595
200 0.001564
201 0.001527
202 0.001541
203 0.001551
204 0.001551
205 0.001549
206 0.001567
207 0.001563
208 0.001574
209 0.001577
210 0.001571
211 0.001580
212 0.001555
213 0.001551
214 0.001552
215 0.001522
216 0.001517
217 0.001513
218 0.001502
219 0.001491
220 0.001477
221 0.001477
222 0.001455
223 0.001429
224 0.001447
225 0.001446
226 0.001416
227 0.001393
228 0.001363
229 0.001335
230 0.001327
231 0.001306
232 0.001306
233 0.001316
234 0.001323
235 0.001340
236 0.001368
237 0.001392
238 0.001408
239 0.001400
240 0.001403
241 0.001381
242 0.001369
243 0.001367
244 0.001347
245 0.001313
246 0.001278
247 0.001241
248 0.001228
249 0.001225
