# i correlation
1 0.003247
2 0.002919
3 0.002652
4 0.002453
5 0.002296
6 0.002168
7 0.002071
8 0.001991
9 0.001918
10 0.001866
11 0.001786
12 0.001679
13 0.001552
14 0.001451
15 0.001377
16 0.001329
17 0.001280
18 0.001245
19 0.001217
20 0.001174
21 0.001150
22 0.001144
23 0.001155
24 0.001202
25 0.001229
26 0.001253
27 0.001256
28 0.001254
29 0.001242
30 0.001198
31 0.001165
32 0.001101
33 0.001053
34 0.001029
35 0.001020
36 0.001025
37 0.000991
38 0.000950
39 0.000920
40 0.000928
41 0.000937
42 0.000951
43 0.000962
44 0.000991
45 0.001021
46 0.001042
47 0.001091
48 0.001106
49 0.001122
50 0.001173
51 0.001211
52 0.001216
53 0.001216
54 0.001224
55 0.001247
56 0.001219
57 0.001176
58 0.001110
59 0.001067
60 0.001043
61 0.001049
62 0.001047
63 0.001032
64 0.001027
65 0.001015
66 0.001010
67 0.001001
68 0.000977
69 0.000934
70 0.000916
71 0.000943
72 0.000961
73 0.000968
74 0.000987
75 0.000970
76 0.000945
77 0.000911
78 0.000886
79 0.000855
80 0.000820
81 0.000803
82 0.000806
83 0.000818
84 0.000825
85 0.000805
86 0.000820
87 0.000835
88 0.000829
89 0.000840
90 0.000865
91 0.000893
92 0.000922
93 0.000964
94 0.000970
95 0.000950
96 0.000939
97 0.000952
98 0.000975
99 0.001006
100 0.001040
101 0.001094
102 0.001133
103 0.001144
104 0.001151
105 0.001172
106 0.001162
107 0.001131
108 0.001104
109 0.001098
110 0.001095
111 0.001098
112 0.001084
113 0.001080
114 0.001081
115 0.001113
116 0.001158
117 0.001208
118 0.001254
119 0.001294
120 0.001306
121 0.001327
122 0.001318
123 0.001316
124 0.001300
125 0.001276
126 0.001239
127 0.001219
128 0.001195
129 0.001214
130 0.001228
131 0.001176
132 0.001133
133 0.001094
134 0.001015
135 0.000940
136 0.000865
137 0.000811
138 0.000780
139 0.000757
140 0.000695
141 0.000623
142 0.000584
143 0.000571
144 0.000554
145 0.000563
146 0.000573
147 0.000569
148 0.000561
149 0.000590
150 0.000574
151 0.000555
152 0.000565
153 0.000587
154 0.000605
155 0.000602
156 0.000601
157 0.000584
158 0.000561
159 0.000554
160 0.000554
161 0.000566
162 0.000573
163 0.000581
164 0.000606
165 0.000616
166 0.000636
167 0.000606
168 0.000583
169 0.000580
170 0.000597
171 0.000594
172 0.000586
173 0.000589
174 0.000608
175 0.000644
176 0.000678
177 0.000720
178 0.000720
179 0.000705
180 0.000737
181 0.000728
182 0.000733
183 0.000725
184 0.000729
185 0.000738
186 0.000736
187 0.000737
188 0.000712
189 0.000683
190 0.000668
191 0.000637
192 0.000604
193 0.000586
194 0.000564
195 0.000551
196 0.000535
197 0.000517
198 0.000466
199 0.000432
200 0.000415
201 0.000430
202 0.000462
203 0.000486
204 0.000536
205 0.000535
206 0.000562
207 0.000558
208 0.000537
209 0.000535
210 0.000544
211 0.000583
212 0.000611
213 0.000634
214 0.000648
215 0.000617
216 0.000607
217 0.000597
218 0.000566
219 0.000550
220 0.000577
221 0.000622
222 0.000658
223 0.000676
224 0.000663
225 0.000635
226 0.000616
227 0.000607
228 0.000595
229 0.000583
230 0.000613
231 0.000639
232 0.000681
233 0.000725
234 0.000773
235 0.000807
236 0.000804
237 0.000814
238 0.000831
239 0.000826
240 0.000803
241 0.000760
242 0.000722
243 0.000670
244 0.000638
245 0.000574
246 0.000529
247 0.000480
248 0.000451
249 0.000447
