# i correlation
1 0.002889
2 0.002567
3 0.002312
4 0.002121
5 0.001955
6 0.001838
7 0.001770
8 0.001729
9 0.001699
10 0.001660
11 0.001613
12 0.001542
13 0.001486
14 0.001467
15 0.001459
16 0.001458
17 0.001423
18 0.001401
19 0.001372
20 0.001340
21 0.001337
22 0.001365
23 0.001366
24 0.001360
25 0.001315
26 0.001267
27 0.001236
28 0.001209
29 0.001190
30 0.001148
31 0.001126
32 0.001094
33 0.001098
34 0.001091
35 0.001120
36 0.001141
37 0.001110
38 0.001106
39 0.001101
40 0.001122
41 0.001123
42 0.001077
43 0.001067
44 0.001057
45 0.001053
46 0.001041
47 0.001038
48 0.000999
49 0.000946
50 0.000902
51 0.000871
52 0.000825
53 0.000818
54 0.000835
55 0.000835
56 0.000784
57 0.000786
58 0.000759
59 0.000758
60 0.000751
61 0.000761
62 0.000821
63 0.000909
64 0.000983
65 0.001002
66 0.000975
67 0.000936
68 0.000916
69 0.000935
70 0.000951
71 0.000983
72 0.000985
73 0.000965
74 0.000902
75 0.000819
76 0.000766
77 0.000736
78 0.000722
79 0.000726
80 0.000748
81 0.000784
82 0.000787
83 0.000787
84 0.000825
85 0.000858
86 0.000893
87 0.000928
88 0.000968
89 0.000997
90 0.001001
91 0.000974
92 0.000940
93 0.000935
94 0.000880
95 0.000824
96 0.000745
97 0.000703
98 0.000701
99 0.000742
100 0.000772
101 0.000814
102 0.000845
103 0.000849
104 0.000900
105 0.000945
106 0.000965
107 0.000939
108 0.000918
109 0.000918
110 0.000900
111 0.000885
112 0.000884
113 0.000853
114 0.000858
115 0.000864
116 0.000869
117 0.000878
118 0.000831
119 0.000801
120 0.000753
121 0.000722
122 0.000682
123 0.000647
124 0.000602
125 0.000594
126 0.000616
127 0.000638
128 0.000720
129 0.000743
130 0.000761
131 0.000752
132 0.000735
133 0.000748
134 0.000765
135 0.000782
136 0.000793
137 0.000838
138 0.000869
139 0.000900
140 0.000918
141 0.000919
142 0.000908
143 0.000902
144 0.000911
145 0.000919
146 0.000912
147 0.000905
148 0.000882
149 0.000843
150 0.000832
151 0.000820
152 0.000826
153 0.000829
154 0.000842
155 0.000878
156 0.000902
157 0.000874
158 0.000867
159 0.000835
160 0.000751
161 0.000708
162 0.000692
163 0.000677
164 0.000683
165 0.000666
166 0.000674
167 0.000652
168 0.000604
169 0.000606
170 0.000648
171 0.000709
172 0.000745
173 0.000785
174 0.000831
175 0.000860
176 0.000868
177 0.000838
178 0.000829
179 0.000823
180 0.000843
181 0.000852
182 0.000868
183 0.000862
184 0.000844
185 0.000848
186 0.000844
187 0.000834
188 0.000805
189 0.000758
190 0.000693
191 0.000666
192 0.000675
193 0.000695
194 0.000704
195 0.000705
196 0.000708
197 0.000688
198 0.000681
199 0.000655
200 0.000613
201 0.000591
202 0.000586
203 0.000597
204 0.000609
205 0.000635
206 0.000622
207 0.000596
208 0.000550
209 0.000538
210 0.000525
211 0.000506
212 0.000495
213 0.000463
214 0.000443
215 0.000432
216 0.000442
217 0.000434
218 0.000475
219 0.000490
220 0.000550
221 0.000612
222 0.000610
223 0.000605
224 0.000582
225 0.000584
226 0.000598
227 0.000623
228 0.000639
229 0.000647
230 0.000630
231 0.000603
232 0.000578
233 0.000555
234 0.000545
235 0.000535
236 0.000544
237 0.000555
238 0.000555
239 0.000548
240 0.000531
241 0.000490
242 0.000503
243 0.000532
244 0.000565
245 0.000580
246 0.000564
247 0.000560
248 0.000564
249 0.000565
