# i correlation
1 0.002393
2 0.002093
3 0.001840
4 0.001671
5 0.001547
6 0.001426
7 0.001308
8 0.001199
9 0.001104
10 0.001053
11 0.000998
12 0.000984
13 0.000975
14 0.000955
15 0.000945
16 0.000950
17 0.000944
18 0.000928
19 0.000942
20 0.000950
21 0.000938
22 0.000928
23 0.000897
24 0.000881
25 0.000867
26 0.000850
27 0.000867
28 0.000862
29 0.000872
30 0.000857
31 0.000875
32 0.000886
33 0.000931
34 0.000939
35 0.000930
36 0.000915
37 0.000920
38 0.000874
39 0.000836
40 0.000823
41 0.000806
42 0.000785
43 0.000758
44 0.000741
45 0.000724
46 0.000724
47 0.000740
48 0.000760
49 0.000784
50 0.000816
51 0.000808
52 0.000779
53 0.000769
54 0.000723
55 0.000704
56 0.000687
57 0.000708
58 0.000750
59 0.000749
60 0.000763
61 0.000755
62 0.000744
63 0.000762
64 0.000795
65 0.000781
66 0.000735
67 0.000707
68 0.000674
69 0.000631
70 0.000586
71 0.000563
72 0.000545
73 0.000556
74 0.000556
75 0.000558
76 0.000550
77 0.000574
78 0.000569
79 0.000542
80 0.000539
81 0.000544
82 0.000526
83 0.000521
84 0.000542
85 0.000525
86 0.000487
87 0.000459
88 0.000411
89 0.000377
90 0.000382
91 0.000371
92 0.000349
93 0.000357
94 0.000338
95 0.000363
96 0.000399
97 0.000419
98 0.000411
99 0.000383
100 0.000406
101 0.000433
102 0.000438
103 0.000444
104 0.000475
105 0.000481
106 0.000506
107 0.000484
108 0.000475
109 0.000453
110 0.000476
111 0.000481
112 0.000479
113 0.000454
114 0.000428
115 0.000404
116 0.000386
117 0.000382
118 0.000384
119 0.000376
120 0.000376
121 0.000405
122 0.000449
123 0.000472
124 0.000511
125 0.000548
126 0.000551
127 0.000537
128 0.000557
129 0.000603
130 0.000603
131 0.000601
132 0.000586
133 0.000591
134 0.000623
135 0.000623
136 0.000593
137 0.000584
138 0.000568
139 0.000564
140 0.000560
141 0.000557
142 0.000537
143 0.000520
144 0.000523
145 0.000526
146 0.000523
147 0.000544
148 0.000567
149 0.000555
150 0.000539
151 0.000517
152 0.000489
153 0.000475
154 0.000463
155 0.000451
156 0.000438
157 0.000407
158 0.000374
159 0.000356
160 0.000325
161 0.000334
162 0.000326
163 0.000335
164 0.000318
165 0.000323
166 0.000326
167 0.000324
168 0.000333
169 0.000366
170 0.000403
171 0.000457
172 0.000449
173 0.000425
174 0.000420
175 0.000419
176 0.000391
177 0.000369
178 0.000337
179 0.000336
180 0.000336
181 0.000358
182 0.000373
183 0.000389
184 0.000399
185 0.000397
186 0.000378
187 0.000382
188 0.000400
189 0.000394
190 0.000390
191 0.000371
192 0.000337
193 0.000306
194 0.000279
195 0.000237
196 0.000206
197 0.000199
198 0.000219
199 0.000244
200 0.000271
201 0.000293
202 0.000289
203 0.000288
204 0.000271
205 0.000283
206 0.000311
207 0.000346
208 0.000347
209 0.000324
210 0.000292
211 0.000251
212 0.000262
213 0.000269
214 0.000274
215 0.000257
216 0.000269
217 0.000266
218 0.000288
219 0.000301
220 0.000274
221 0.000266
222 0.000273
223 0.000243
224 0.000232
225 0.000229
226 0.000215
227 0.000178
228 0.000166
229 0.000178
230 0.000187
231 0.000178
232 0.000179
233 0.000178
234 0.000203
235 0.000235
236 0.000245
237 0.000234
238 0.000243
239 0.000241
240 0.000259
241 0.000263
242 0.000224
243 0.000178
244 0.000141
245 0.000109
246 0.000096
247 0.000083
248 0.000055
249 0.000036
