# i correlation
1 0.003027
2 0.002767
3 0.002571
4 0.002387
5 0.002248
6 0.002095
7 0.001933
8 0.001797
9 0.001661
10 0.001546
11 0.001453
12 0.001407
13 0.001368
14 0.001306
15 0.001250
16 0.001204
17 0.001151
18 0.001104
19 0.001123
20 0.001088
21 0.001086
22 0.001054
23 0.001029
24 0.001005
25 0.000999
26 0.001003
27 0.001004
28 0.000981
29 0.000924
30 0.000915
31 0.000912
32 0.000919
33 0.000908
34 0.000894
35 0.000892
36 0.000906
37 0.000917
38 0.000955
39 0.000957
40 0.000964
41 0.000967
42 0.000965
43 0.000972
44 0.000986
45 0.001016
46 0.001068
47 0.001094
48 0.001103
49 0.001117
50 0.001127
51 0.001157
52 0.001121
53 0.001111
54 0.001082
55 0.001047
56 0.001032
57 0.001013
58 0.000985
59 0.000990
60 0.001051
61 0.001071
62 0.001072
63 0.001121
64 0.001214
65 0.001276
66 0.001335
67 0.001375
68 0.001416
69 0.001423
70 0.001407
71 0.001383
72 0.001345
73 0.001304
74 0.001268
75 0.001220
76 0.001169
77 0.001140
78 0.001046
79 0.000979
80 0.000926
81 0.000885
82 0.000861
83 0.000820
84 0.000783
85 0.000753
86 0.000718
87 0.000689
88 0.000666
89 0.000654
90 0.000614
91 0.000578
92 0.000575
93 0.000579
94 0.000552
95 0.000582
96 0.000590
97 0.000566
98 0.000564
99 0.000541
100 0.000548
101 0.000602
102 0.000598
103 0.000610
104 0.000611
105 0.000660
106 0.000719
107 0.000769
108 0.000790
109 0.000825
110 0.000867
111 0.000886
112 0.000896
113 0.000934
114 0.000984
115 0.001019
116 0.001073
117 0.001138
118 0.001131
119 0.001131
120 0.001144
121 0.001148
122 0.001127
123 0.001097
124 0.001062
125 0.001053
126 0.001046
127 0.001061
128 0.001069
129 0.001059
130 0.001031
131 0.001003
132 0.000989
133 0.000993
134 0.000995
135 0.000980
136 0.000971
137 0.000934
138 0.000893
139 0.000879
140 0.000864
141 0.000865
142 0.000846
143 0.000831
144 0.000829
145 0.000798
146 0.000756
147 0.000741
148 0.000742
149 0.000744
150 0.000725
151 0.000733
152 0.000746
153 0.000773
154 0.000795
155 0.000818
156 0.000822
157 0.000797
158 0.000767
159 0.000761
160 0.000741
161 0.000720
162 0.000711
163 0.000667
164 0.000634
165 0.000597
166 0.000580
167 0.000586
168 0.000541
169 0.000498
170 0.000480
171 0.000484
172 0.000457
173 0.000460
174 0.000481
175 0.000515
176 0.000548
177 0.000552
178 0.000577
179 0.000622
180 0.000654
181 0.000679
182 0.000704
183 0.000729
184 0.000737
185 0.000775
186 0.000779
187 0.000758
188 0.000712
189 0.000687
190 0.000696
191 0.000719
192 0.000768
193 0.000761
194 0.000800
195 0.000827
196 0.000845
197 0.000825
198 0.000820
199 0.000796
200 0.000770
201 0.000749
202 0.000751
203 0.000698
204 0.000634
205 0.000593
206 0.000545
207 0.000503
208 0.000501
209 0.000481
210 0.000455
211 0.000451
212 0.000448
213 0.000467
214 0.000450
215 0.000440
216 0.000424
217 0.000405
218 0.000416
219 0.000406
220 0.000376
221 0.000365
222 0.000378
223 0.000382
224 0.000393
225 0.000379
226 0.000380
227 0.000402
228 0.000428
229 0.000439
230 0.000465
231 0.000476
232 0.000487
233 0.000490
234 0.000504
235 0.000559
236 0.000611
237 0.000649
238 0.000647
239 0.000634
240 0.000644
241 0.000643
242 0.000654
243 0.000672
244 0.000675
245 0.000686
246 0.000665
247 0.000664
248 0.000701
249 0.000735
