# i correlation
1 0.003673
2 0.003384
3 0.003091
4 0.002849
5 0.002660
6 0.002492
7 0.002358
8 0.002225
9 0.002110
10 0.002013
11 0.001909
12 0.001826
13 0.001783
14 0.001740
15 0.001709
16 0.001629
17 0.001592
18 0.001584
19 0.001599
20 0.001619
21 0.001630
22 0.001602
23 0.001551
24 0.001492
25 0.001444
26 0.001413
27 0.001386
28 0.001377
29 0.001355
30 0.001332
31 0.001317
32 0.001275
33 0.001257
34 0.001240
35 0.001242
36 0.001264
37 0.001279
38 0.001317
39 0.001372
40 0.001390
41 0.001401
42 0.001392
43 0.001360
44 0.001347
45 0.001324
46 0.001284
47 0.001247
48 0.001200
49 0.001161
50 0.001138
51 0.001134
52 0.001164
53 0.001194
54 0.001200
55 0.001217
56 0.001224
57 0.001258
58 0.001297
59 0.001295
60 0.001309
61 0.001277
62 0.001268
63 0.001234
64 0.001211
65 0.001195
66 0.001180
67 0.001165
68 0.001162
69 0.001179
70 0.001184
71 0.001174
72 0.001197
73 0.001192
74 0.001181
75 0.001153
76 0.001157
77 0.001155
78 0.001162
79 0.001179
80 0.001169
81 0.001143
82 0.001061
83 0.001013
84 0.000984
85 0.000932
86 0.000855
87 0.000780
88 0.000684
89 0.000590
90 0.000510
91 0.000498
92 0.000490
93 0.000500
94 0.000522
95 0.000514
96 0.000465
97 0.000410
98 0.000385
99 0.000397
100 0.000426
101 0.000472
102 0.000517
103 0.000527
104 0.000557
105 0.000572
106 0.000600
107 0.000635
108 0.000691
109 0.000709
110 0.000734
111 0.000746
112 0.000775
113 0.000806
114 0.000826
115 0.000854
116 0.000878
117 0.000866
118 0.000858
119 0.000810
120 0.000746
121 0.000710
122 0.000708
123 0.000671
124 0.000597
125 0.000552
126 0.000546
127 0.000567
128 0.000582
129 0.000554
130 0.000506
131 0.000477
132 0.000452
133 0.000402
134 0.000352
135 0.000316
136 0.000277
137 0.000254
138 0.000246
139 0.000241
140 0.000263
141 0.000272
142 0.000283
143 0.000299
144 0.000297
145 0.000287
146 0.000297
147 0.000332
148 0.000339
149 0.000376
150 0.000375
151 0.000354
152 0.000320
153 0.000289
154 0.000255
155 0.000243
156 0.000210
157 0.000202
158 0.000180
159 0.000155
160 0.000129
161 0.000110
162 0.000094
163 0.000085
164 0.000114
165 0.000161
166 0.000208
167 0.000207
168 0.000223
169 0.000194
170 0.000210
171 0.000242
172 0.000292
173 0.000328
174 0.000340
175 0.000355
176 0.000334
177 0.000302
178 0.000259
179 0.000259
180 0.000278
181 0.000269
182 0.000272
183 0.000274
184 0.000288
185 0.000358
186 0.000403
187 0.000433
188 0.000460
189 0.000461
190 0.000445
191 0.000387
192 0.000340
193 0.000298
194 0.000277
195 0.000261
196 0.000256
197 0.000206
198 0.000152
199 0.000100
200 0.000067
201 0.000036
202 0.000000
203 -0.000017
204 -0.000053
205 -0.000096
206 -0.000139
207 -0.000123
208 -0.000162
209 -0.000165
210 -0.000160
211 -0.000164
212 -0.000143
213 -0.000114
214 -0.000101
215 -0.000121
216 -0.000128
217 -0.000139
218 -0.000133
219 -0.000114
220 -0.000109
221 -0.000102
222 -0.000090
223 -0.000024
224 0.000055
225 0.000129
226 0.000186
227 0.000223
228 0.000258
229 0.000289
230 0.000314
231 0.000348
232 0.000397
233 0.000424
234 0.000488
235 0.000530
236 0.000552
237 0.000561
238 0.000562
239 0.000532
240 0.000523
241 0.000508
242 0.000531
243 0.000568
244 0.000582
245 0.000592
246 0.000595
247 0.000567
248 0.000553
249 0.000546
