# i correlation
1 0.003726
2 0.003399
3 0.003091
4 0.002872
5 0.002669
6 0.002524
7 0.002402
8 0.002283
9 0.002156
10 0.002054
11 0.001966
12 0.001895
13 0.001815
14 0.001728
15 0.001643
16 0.001562
17 0.001492
18 0.001441
19 0.001408
20 0.001404
21 0.001378
22 0.001350
23 0.001332
24 0.001327
25 0.001290
26 0.001261
27 0.001227
28 0.001217
29 0.001177
30 0.001158
31 0.001191
32 0.001256
33 0.001332
34 0.001392
35 0.001435
36 0.001432
37 0.001426
38 0.001411
39 0.001393
40 0.001402
41 0.001382
42 0.001396
43 0.001397
44 0.001438
45 0.001476
46 0.001484
47 0.001501
48 0.001502
49 0.001502
50 0.001467
51 0.001375
52 0.001285
53 0.001241
54 0.001226
55 0.001210
56 0.001205
57 0.001188
58 0.001177
59 0.001169
60 0.001158
61 0.001142
62 0.001146
63 0.001123
64 0.001078
65 0.001065
66 0.001072
67 0.001086
68 0.001109
69 0.001122
70 0.001108
71 0.001066
72 0.000997
73 0.000951
74 0.000896
75 0.000867
76 0.000864
77 0.000882
78 0.000909
79 0.000921
80 0.000947
81 0.000959
82 0.000973
83 0.000987
84 0.001005
85 0.001023
86 0.001008
87 0.000985
88 0.000990
89 0.001016
90 0.001057
91 0.001123
92 0.001200
93 0.001248
94 0.001267
95 0.001284
96 0.001250
97 0.001205
98 0.001174
99 0.001148
100 0.001124
101 0.001095
102 0.001093
103 0.001074
104 0.001044
105 0.001019
106 0.000981
107 0.000948
108 0.000920
109 0.000892
110 0.000888
111 0.000900
112 0.000914
113 0.000935
114 0.000945
115 0.000944
116 0.000960
117 0.000972
118 0.000983
119 0.000944
120 0.000886
121 0.000808
122 0.000754
123 0.000710
124 0.000674
125 0.000658
126 0.000641
127 0.000624
128 0.000611
129 0.000629
130 0.000644
131 0.000641
132 0.000615
133 0.000555
134 0.000538
135 0.000565
136 0.000620
137 0.000694
138 0.000754
139 0.000780
140 0.000819
141 0.000844
142 0.000850
143 0.000852
144 0.000816
145 0.000773
146 0.000731
147 0.000692
148 0.000666
149 0.000668
150 0.000656
151 0.000653
152 0.000665
153 0.000660
154 0.000683
155 0.000679
156 0.000670
157 0.000668
158 0.000682
159 0.000677
160 0.000653
161 0.000662
162 0.000665
163 0.000655
164 0.000635
165 0.000579
166 0.000527
167 0.000492
168 0.000459
169 0.000421
170 0.000374
171 0.000360
172 0.000337
173 0.000321
174 0.000335
175 0.000366
176 0.000392
177 0.000423
178 0.000434
179 0.000454
180 0.000447
181 0.000442
182 0.000414
183 0.000366
184 0.000347
185 0.000391
186 0.000450
187 0.000508
188 0.000560
189 0.000567
190 0.000571
191 0.000556
192 0.000553
193 0.000551
194 0.000544
195 0.000551
196 0.000567
197 0.000603
198 0.000638
199 0.000667
200 0.000663
201 0.000645
202 0.000664
203 0.000688
204 0.000734
205 0.000772
206 0.000810
207 0.000848
208 0.000880
209 0.000912
210 0.000937
211 0.000958
212 0.000974
213 0.000952
214 0.000913
215 0.000864
216 0.000810
217 0.000758
218 0.000717
219 0.000671
220 0.000615
221 0.000576
222 0.000558
223 0.000544
224 0.000500
225 0.000469
226 0.000408
227 0.000349
228 0.000299
229 0.000286
230 0.000283
231 0.000281
232 0.000266
233 0.000236
234 0.000223
235 0.000205
236 0.000208
237 0.000219
238 0.000234
239 0.000249
240 0.000259
241 0.000256
242 0.000268
243 0.000299
244 0.000351
245 0.000422
246 0.000481
247 0.000575
248 0.000611
249 0.000639
