# i correlation
1 0.003552
2 0.003200
3 0.002928
4 0.002692
5 0.002496
6 0.002319
7 0.002157
8 0.002054
9 0.001928
10 0.001831
11 0.001781
12 0.001706
13 0.001611
14 0.001534
15 0.001479
16 0.001427
17 0.001395
18 0.001341
19 0.001304
20 0.001264
21 0.001211
22 0.001125
23 0.001071
24 0.001031
25 0.001043
26 0.001038
27 0.001011
28 0.000964
29 0.000955
30 0.000942
31 0.000922
32 0.000898
33 0.000895
34 0.000912
35 0.000912
36 0.000898
37 0.000926
38 0.000960
39 0.000940
40 0.000929
41 0.000949
42 0.000942
43 0.000923
44 0.000912
45 0.000884
46 0.000845
47 0.000782
48 0.000695
49 0.000626
50 0.000552
51 0.000478
52 0.000428
53 0.000372
54 0.000338
55 0.000348
56 0.000369
57 0.000360
58 0.000367
59 0.000400
60 0.000453
61 0.000484
62 0.000526
63 0.000608
64 0.000693
65 0.000748
66 0.000771
67 0.000796
68 0.000803
69 0.000792
70 0.000818
71 0.000889
72 0.000957
73 0.000996
74 0.001036
75 0.001059
76 0.001087
77 0.001089
78 0.001035
79 0.001001
80 0.000980
81 0.000974
82 0.000974
83 0.000948
84 0.000935
85 0.000916
86 0.000877
87 0.000871
88 0.000869
89 0.000861
90 0.000871
91 0.000869
92 0.000830
93 0.000803
94 0.000777
95 0.000735
96 0.000684
97 0.000669
98 0.000626
99 0.000592
100 0.000588
101 0.000624
102 0.000663
103 0.000679
104 0.000703
105 0.000768
106 0.000805
107 0.000831
108 0.000856
109 0.000910
110 0.000977
111 0.001001
112 0.001000
113 0.001005
114 0.001025
115 0.001029
116 0.001028
117 0.001032
118 0.001038
119 0.001023
120 0.001031
121 0.001048
122 0.001059
123 0.001034
124 0.000995
125 0.000961
126 0.000943
127 0.000895
128 0.000846
129 0.000803
130 0.000753
131 0.000726
132 0.000702
133 0.000684
134 0.000683
135 0.000697
136 0.000720
137 0.000727
138 0.000739
139 0.000731
140 0.000712
141 0.000682
142 0.000625
143 0.000584
144 0.000562
145 0.000565
146 0.000601
147 0.000633
148 0.000705
149 0.000774
150 0.000772
151 0.000765
152 0.000766
153 0.000711
154 0.000634
155 0.000555
156 0.000498
157 0.000448
158 0.000417
159 0.000383
160 0.000403
161 0.000420
162 0.000403
163 0.000369
164 0.000345
165 0.000300
166 0.000287
167 0.000281
168 0.000266
169 0.000248
170 0.000214
171 0.000163
172 0.000140
173 0.000146
174 0.000115
175 0.000109
176 0.000123
177 0.000157
178 0.000189
179 0.000219
180 0.000236
181 0.000258
182 0.000271
183 0.000321
184 0.000342
185 0.000322
186 0.000332
187 0.000332
188 0.000332
189 0.000379
190 0.000406
191 0.000434
192 0.000461
193 0.000480
194 0.000520
195 0.000550
196 0.000536
197 0.000552
198 0.000581
199 0.000616
200 0.000649
201 0.000668
202 0.000689
203 0.000680
204 0.000675
205 0.000651
206 0.000606
207 0.000593
208 0.000615
209 0.000650
210 0.000656
211 0.000688
212 0.000735
213 0.000781
214 0.000825
215 0.000855
216 0.000873
217 0.000865
218 0.000838
219 0.000815
220 0.000805
221 0.000767
222 0.000750
223 0.000773
224 0.000789
225 0.000802
226 0.000791
227 0.000806
228 0.000815
229 0.000802
230 0.000768
231 0.000745
232 0.000712
233 0.000709
234 0.000712
235 0.000730
236 0.000769
237 0.000757
238 0.000756
239 0.000772
240 0.000762
241 0.000752
242 0.000744
243 0.000776
244 0.000767
245 0.000732
246 0.000696
247 0.000644
248 0.000622
249 0.000631
