# i correlation
1 0.003319
2 0.003004
3 0.002764
4 0.002565
5 0.002419
6 0.002270
7 0.002178
8 0.002079
9 0.001963
10 0.001880
11 0.001817
12 0.001727
13 0.001667
14 0.001634
15 0.001587
16 0.001566
17 0.001540
18 0.001514
19 0.001456
20 0.001391
21 0.001324
22 0.001262
23 0.001229
24 0.001175
25 0.001129
26 0.001033
27 0.000965
28 0.000912
29 0.000845
30 0.000776
31 0.000707
32 0.000660
33 0.000629
34 0.000636
35 0.000653
36 0.000687
37 0.000699
38 0.000723
39 0.000752
40 0.000792
41 0.000838
42 0.000868
43 0.000855
44 0.000815
45 0.000770
46 0.000782
47 0.000767
48 0.000758
49 0.000759
50 0.000759
51 0.000773
52 0.000825
53 0.000869
54 0.000893
55 0.000893
56 0.000889
57 0.000860
58 0.000813
59 0.000814
60 0.000825
61 0.000828
62 0.000804
63 0.000821
64 0.000828
65 0.000840
66 0.000820
67 0.000777
68 0.000764
69 0.000716
70 0.000671
71 0.000641
72 0.000609
73 0.000600
74 0.000602
75 0.000585
76 0.000582
77 0.000629
78 0.000655
79 0.000691
80 0.000732
81 0.000712
82 0.000698
83 0.000643
84 0.000612
85 0.000608
86 0.000561
87 0.000531
88 0.000522
89 0.000494
90 0.000480
91 0.000461
92 0.000454
93 0.000443
94 0.000400
95 0.000399
96 0.000419
97 0.000420
98 0.000423
99 0.000434
100 0.000447
101 0.000458
102 0.000457
103 0.000496
104 0.000508
105 0.000525
106 0.000548
107 0.000582
108 0.000606
109 0.000656
110 0.000685
111 0.000678
112 0.000679
113 0.000731
114 0.000780
115 0.000822
116 0.000839
117 0.000866
118 0.000906
119 0.000933
120 0.000965
121 0.001010
122 0.001023
123 0.001029
124 0.001059
125 0.001068
126 0.001110
127 0.001119
128 0.001120
129 0.001119
130 0.001124
131 0.001135
132 0.001151
133 0.001137
134 0.001124
135 0.001080
136 0.001057
137 0.001035
138 0.001027
139 0.001025
140 0.000971
141 0.000948
142 0.000931
143 0.000907
144 0.000890
145 0.000882
146 0.000835
147 0.000812
148 0.000806
149 0.000801
150 0.000789
151 0.000807
152 0.000790
153 0.000740
154 0.000666
155 0.000609
156 0.000590
157 0.000572
158 0.000560
159 0.000549
160 0.000522
161 0.000501
162 0.000484
163 0.000464
164 0.000435
165 0.000403
166 0.000405
167 0.000432
168 0.000459
169 0.000463
170 0.000444
171 0.000403
172 0.000406
173 0.000414
174 0.000410
175 0.000390
176 0.000414
177 0.000412
178 0.000417
179 0.000417
180 0.000426
181 0.000421
182 0.000412
183 0.000419
184 0.000420
185 0.000440
186 0.000458
187 0.000466
188 0.000450
189 0.000438
190 0.000445
191 0.000494
192 0.000564
193 0.000617
194 0.000680
195 0.000710
196 0.000691
197 0.000664
198 0.000650
199 0.000634
200 0.000649
201 0.000675
202 0.000683
203 0.000693
204 0.000709
205 0.000715
206 0.000711
207 0.000692
208 0.000692
209 0.000710
210 0.000744
211 0.000766
212 0.000764
213 0.000752
214 0.000739
215 0.000706
216 0.000697
217 0.000674
218 0.000648
219 0.000639
220 0.000592
221 0.000537
222 0.000512
223 0.000478
224 0.000456
225 0.000439
226 0.000449
227 0.000488
228 0.000520
229 0.000543
230 0.000560
231 0.000559
232 0.000598
233 0.000639
234 0.000644
235 0.000651
236 0.000665
237 0.000698
238 0.000692
239 0.000698
240 0.000717
241 0.000752
242 0.000753
243 0.000756
244 0.000764
245 0.000767
246 0.000794
247 0.000835
248 0.000867
249 0.000845
