# i correlation
1 0.003286
2 0.003013
3 0.002753
4 0.002503
5 0.002276
6 0.002111
7 0.001994
8 0.001952
9 0.001915
10 0.001944
11 0.001950
12 0.001936
13 0.001928
14 0.001914
15 0.001895
16 0.001865
17 0.001867
18 0.001868
19 0.001860
20 0.001846
21 0.001834
22 0.001822
23 0.001799
24 0.001746
25 0.001666
26 0.001581
27 0.001557
28 0.001511
29 0.001513
30 0.001495
31 0.001476
32 0.001463
33 0.001452
34 0.001458
35 0.001484
36 0.001483
37 0.001477
38 0.001466
39 0.001460
40 0.001434
41 0.001421
42 0.001410
43 0.001416
44 0.001409
45 0.001415
46 0.001405
47 0.001408
48 0.001391
49 0.001365
50 0.001349
51 0.001365
52 0.001383
53 0.001368
54 0.001367
55 0.001343
56 0.001324
57 0.001298
58 0.001304
59 0.001322
60 0.001319
61 0.001297
62 0.001303
63 0.001299
64 0.001318
65 0.001332
66 0.001349
67 0.001364
68 0.001396
69 0.001431
70 0.001480
71 0.001503
72 0.001516
73 0.001544
74 0.001531
75 0.001478
76 0.001430
77 0.001396
78 0.001339
79 0.001265
80 0.001228
81 0.001168
82 0.001145
83 0.001136
84 0.001160
85 0.001186
86 0.001233
87 0.001260
88 0.001319
89 0.001326
90 0.001362
91 0.001359
92 0.001347
93 0.001308
94 0.001270
95 0.001217
96 0.001175
97 0.001154
98 0.001134
99 0.001141
100 0.001141
101 0.001142
102 0.001126
103 0.001103
104 0.001089
105 0.001060
106 0.001033
107 0.001029
108 0.001017
109 0.001054
110 0.001067
111 0.001089
112 0.001102
113 0.001106
114 0.001069
115 0.001047
116 0.001000
117 0.000990
118 0.000981
119 0.000984
120 0.000992
121 0.001037
122 0.001072
123 0.001098
124 0.001139
125 0.001159
126 0.001135
127 0.001103
128 0.001071
129 0.001067
130 0.001048
131 0.001043
132 0.001076
133 0.001076
134 0.001059
135 0.001045
136 0.001047
137 0.001039
138 0.001039
139 0.001032
140 0.001058
141 0.001064
142 0.001107
143 0.001123
144 0.001121
145 0.001087
146 0.001039
147 0.001009
148 0.001011
149 0.000997
150 0.001011
151 0.001044
152 0.001060
153 0.001082
154 0.001078
155 0.001047
156 0.001010
157 0.000959
158 0.000946
159 0.000939
160 0.000948
161 0.000987
162 0.001005
163 0.001013
164 0.001018
165 0.001026
166 0.001022
167 0.000995
168 0.000972
169 0.000930
170 0.000896
171 0.000881
172 0.000860
173 0.000853
174 0.000850
175 0.000839
176 0.000831
177 0.000816
178 0.000789
179 0.000759
180 0.000740
181 0.000729
182 0.000714
183 0.000731
184 0.000766
185 0.000821
186 0.000884
187 0.000903
188 0.000899
189 0.000882
190 0.000852
191 0.000816
192 0.000773
193 0.000744
194 0.000730
195 0.000723
196 0.000752
197 0.000801
198 0.000808
199 0.000792
200 0.000791
201 0.000830
202 0.000853
203 0.000870
204 0.000881
205 0.000883
206 0.000869
207 0.000866
208 0.000847
209 0.000830
210 0.000812
211 0.000798
212 0.000800
213 0.000780
214 0.000785
215 0.000810
216 0.000822
217 0.000846
218 0.000852
219 0.000879
220 0.000899
221 0.000910
222 0.000919
223 0.000907
224 0.000899
225 0.000913
226 0.000933
227 0.000924
228 0.000916
229 0.000900
230 0.000894
231 0.000873
232 0.000867
233 0.000854
234 0.000857
235 0.000847
236 0.000842
237 0.000828
238 0.000815
239 0.000799
240 0.000779
241 0.000786
242 0.000793
243 0.000784
244 0.000797
245 0.000796
246 0.000789
247 0.000775
248 0.000777
249 0.000748
