# i correlation
1 0.003407
2 0.003100
3 0.002858
4 0.002680
5 0.002506
6 0.002378
7 0.002283
8 0.002173
9 0.002071
10 0.001998
11 0.001995
12 0.001973
13 0.001972
14 0.001918
15 0.001851
16 0.001787
17 0.001734
18 0.001719
19 0.001697
20 0.001661
21 0.001623
22 0.001554
23 0.001488
24 0.001434
25 0.001419
26 0.001396
27 0.001370
28 0.001353
29 0.001354
30 0.001365
31 0.001355
32 0.001340
33 0.001294
34 0.001257
35 0.001210
36 0.001192
37 0.001174
38 0.001186
39 0.001201
40 0.001202
41 0.001184
42 0.001186
43 0.001190
44 0.001185
45 0.001152
46 0.001092
47 0.001050
48 0.001004
49 0.000977
50 0.000973
51 0.000984
52 0.000947
53 0.000917
54 0.000898
55 0.000894
56 0.000876
57 0.000869
58 0.000861
59 0.000833
60 0.000822
61 0.000794
62 0.000764
63 0.000762
64 0.000772
65 0.000768
66 0.000767
67 0.000766
68 0.000760
69 0.000728
70 0.000744
71 0.000773
72 0.000820
73 0.000867
74 0.000910
75 0.000955
76 0.001004
77 0.001038
78 0.001072
79 0.001117
80 0.001135
81 0.001150
82 0.001144
83 0.001204
84 0.001236
85 0.001275
86 0.001301
87 0.001327
88 0.001346
89 0.001358
90 0.001349
91 0.001337
92 0.001307
93 0.001268
94 0.001250
95 0.001207
96 0.001153
97 0.001121
98 0.001094
99 0.001084
100 0.001104
101 0.001143
102 0.001188
103 0.001188
104 0.001188
105 0.001192
106 0.001209
107 0.001206
108 0.001198
109 0.001178
110 0.001169
111 0.001147
112 0.001137
113 0.001137
114 0.001140
115 0.001150
116 0.001165
117 0.001175
118 0.001177
119 0.001210
120 0.001238
121 0.001273
122 0.001304
123 0.001316
124 0.001300
125 0.001289
126 0.001262
127 0.001222
128 0.001162
129 0.001133
130 0.001134
131 0.001125
132 0.001102
133 0.001106
134 0.001105
135 0.001074
136 0.001045
137 0.001018
138 0.000981
139 0.000942
140 0.000912
141 0.000900
142 0.000893
143 0.000873
144 0.000862
145 0.000838
146 0.000797
147 0.000761
148 0.000759
149 0.000766
150 0.000763
151 0.000751
152 0.000730
153 0.000697
154 0.000667
155 0.000671
156 0.000653
157 0.000616
158 0.000580
159 0.000529
160 0.000486
161 0.000473
162 0.000466
163 0.000481
164 0.000511
165 0.000514
166 0.000525
167 0.000530
168 0.000514
169 0.000495
170 0.000457
171 0.000410
172 0.000385
173 0.000387
174 0.000406
175 0.000420
176 0.000422
177 0.000446
178 0.000439
179 0.000433
180 0.000452
181 0.000443
182 0.000408
183 0.000352
184 0.000315
185 0.000318
186 0.000305
187 0.000288
188 0.000285
189 0.000292
190 0.000292
191 0.000280
192 0.000280
193 0.000305
194 0.000303
195 0.000319
196 0.000328
197 0.000329
198 0.000322
199 0.000333
200 0.000366
201 0.000367
202 0.000380
203 0.000398
204 0.000412
205 0.000415
206 0.000464
207 0.000495
208 0.000503
209 0.000533
210 0.000541
211 0.000540
212 0.000509
213 0.000487
214 0.000474
215 0.000490
216 0.000512
217 0.000518
218 0.000515
219 0.000515
220 0.000521
221 0.000523
222 0.000537
223 0.000594
224 0.000663
225 0.000711
226 0.000729
227 0.000761
228 0.000779
229 0.000771
230 0.000732
231 0.000681
232 0.000637
233 0.000606
234 0.000578
235 0.000560
236 0.000575
237 0.000576
238 0.000562
239 0.000535
240 0.000529
241 0.000546
242 0.000553
243 0.000568
244 0.000557
245 0.000540
246 0.000494
247 0.000475
248 0.000440
249 0.000423
