# i correlation
1 0.004756
2 0.004459
3 0.004199
4 0.003992
5 0.003830
6 0.003676
7 0.003521
8 0.003343
9 0.003214
10 0.003089
11 0.002984
12 0.002894
13 0.002802
14 0.002754
15 0.002716
16 0.002696
17 0.002698
18 0.002723
19 0.002733
20 0.002742
21 0.002715
22 0.002720
23 0.002711
24 0.002705
25 0.002670
26 0.002627
27 0.002590
28 0.002533
29 0.002473
30 0.002449
31 0.002430
32 0.002384
33 0.002349
34 0.002304
35 0.002227
36 0.002181
37 0.002138
38 0.002108
39 0.002068
40 0.002071
41 0.002064
42 0.002083
43 0.002105
44 0.002132
45 0.002126
46 0.002139
47 0.002162
48 0.002187
49 0.002214
50 0.002254
51 0.002302
52 0.002326
53 0.002373
54 0.002385
55 0.002348
56 0.002331
57 0.002296
58 0.002286
59 0.002279
60 0.002280
61 0.002262
62 0.002248
63 0.002217
64 0.002148
65 0.002113
66 0.002065
67 0.002074
68 0.002091
69 0.002077
70 0.002080
71 0.002097
72 0.002132
73 0.002152
74 0.002168
75 0.002155
76 0.002099
77 0.002051
78 0.002024
79 0.002003
80 0.001961
81 0.001933
82 0.001901
83 0.001857
84 0.001826
85 0.001790
86 0.001761
87 0.001748
88 0.001750
89 0.001767
90 0.001788
91 0.001788
92 0.001790
93 0.001806
94 0.001814
95 0.001864
96 0.001890
97 0.001910
98 0.001938
99 0.001946
100 0.001927
101 0.001934
102 0.001924
103 0.001951
104 0.001986
105 0.002018
106 0.002026
107 0.002018
108 0.002005
109 0.002014
110 0.002001
111 0.002014
112 0.002039
113 0.002066
114 0.002066
115 0.002059
116 0.002087
117 0.002078
118 0.002043
119 0.002009
120 0.001967
121 0.001985
122 0.002031
123 0.002038
124 0.002017
125 0.002018
126 0.002009
127 0.001997
128 0.001989
129 0.001933
130 0.001910
131 0.001873
132 0.001838
133 0.001791
134 0.001742
135 0.001730
136 0.001732
137 0.001746
138 0.001740
139 0.001721
140 0.001741
141 0.001714
142 0.001704
143 0.001680
144 0.001655
145 0.001601
146 0.001525
147 0.001464
148 0.001435
149 0.001416
150 0.001364
151 0.001311
152 0.001253
153 0.001178
154 0.001118
155 0.001076
156 0.001075
157 0.001068
158 0.001088
159 0.001047
160 0.001060
161 0.001046
162 0.001060
163 0.001081
164 0.001089
165 0.001133
166 0.001183
167 0.001236
168 0.001257
169 0.001253
170 0.001276
171 0.001287
172 0.001298
173 0.001297
174 0.001296
175 0.001276
176 0.001279
177 0.001277
178 0.001259
179 0.001237
180 0.001219
181 0.001208
182 0.001204
183 0.001194
184 0.001173
185 0.001172
186 0.001194
187 0.001204
188 0.001229
189 0.001259
190 0.001312
191 0.001359
192 0.001383
193 0.001422
194 0.001466
195 0.001498
196 0.001518
197 0.001545
198 0.001548
199 0.001520
200 0.001533
201 0.001516
202 0.001516
203 0.001463
204 0.001431
205 0.001396
206 0.001327
207 0.001290
208 0.001270
209 0.001255
210 0.001255
211 0.001303
212 0.001366
213 0.001382
214 0.001436
215 0.001446
216 0.001476
217 0.001535
218 0.001574
219 0.001605
220 0.001628
221 0.001634
222 0.001632
223 0.001648
224 0.001661
225 0.001660
226 0.001642
227 0.001624
228 0.001610
229 0.001580
230 0.001563
231 0.001540
232 0.001510
233 0.001503
234 0.001477
235 0.001484
236 0.001480
237 0.001443
238 0.001419
239 0.001422
240 0.001403
241 0.001415
242 0.001418
243 0.001398
244 0.001385
245 0.001395
246 0.001378
247 0.001390
248 0.001397
249 0.001422
