# i correlation
1 0.002900
2 0.002595
3 0.002310
4 0.002066
5 0.001851
6 0.001687
7 0.001555
8 0.001428
9 0.001320
10 0.001200
11 0.001104
12 0.001030
13 0.000974
14 0.000929
15 0.000877
16 0.000834
17 0.000811
18 0.000798
19 0.000814
20 0.000830
21 0.000818
22 0.000777
23 0.000758
24 0.000744
25 0.000746
26 0.000740
27 0.000745
28 0.000747
29 0.000771
30 0.000780
31 0.000776
32 0.000786
33 0.000798
34 0.000804
35 0.000777
36 0.000773
37 0.000770
38 0.000751
39 0.000734
40 0.000701
41 0.000683
42 0.000640
43 0.000591
44 0.000517
45 0.000469
46 0.000415
47 0.000365
48 0.000329
49 0.000305
50 0.000320
51 0.000318
52 0.000290
53 0.000255
54 0.000259
55 0.000281
56 0.000313
57 0.000377
58 0.000429
59 0.000430
60 0.000440
61 0.000438
62 0.000466
63 0.000498
64 0.000542
65 0.000572
66 0.000586
67 0.000591
68 0.000590
69 0.000601
70 0.000588
71 0.000578
72 0.000538
73 0.000488
74 0.000455
75 0.000413
76 0.000385
77 0.000355
78 0.000369
79 0.000431
80 0.000455
81 0.000477
82 0.000464
83 0.000485
84 0.000497
85 0.000532
86 0.000553
87 0.000536
88 0.000502
89 0.000453
90 0.000382
91 0.000328
92 0.000253
93 0.000206
94 0.000177
95 0.000156
96 0.000142
97 0.000134
98 0.000145
99 0.000153
100 0.000134
101 0.000141
102 0.000127
103 0.000137
104 0.000141
105 0.000177
106 0.000203
107 0.000200
108 0.000230
109 0.000250
110 0.000302
111 0.000337
112 0.000383
113 0.000428
114 0.000435
115 0.000407
116 0.000372
117 0.000315
118 0.000269
119 0.000253
120 0.000272
121 0.000290
122 0.000357
123 0.000387
124 0.000446
125 0.000511
126 0.000571
127 0.000599
128 0.000606
129 0.000657
130 0.000689
131 0.000735
132 0.000753
133 0.000762
134 0.000740
135 0.000722
136 0.000725
137 0.000730
138 0.000707
139 0.000694
140 0.000674
141 0.000625
142 0.000587
143 0.000546
144 0.000517
145 0.000495
146 0.000473
147 0.000435
148 0.000426
149 0.000426
150 0.000439
151 0.000431
152 0.000425
153 0.000424
154 0.000412
155 0.000367
156 0.000326
157 0.000277
158 0.000240
159 0.000184
160 0.000161
161 0.000150
162 0.000136
163 0.000131
164 0.000139
165 0.000149
166 0.000160
167 0.000199
168 0.000245
169 0.000308
170 0.000339
171 0.000319
172 0.000310
173 0.000296
174 0.000241
175 0.000154
176 0.000081
177 0.000016
178 -0.000032
179 -0.000084
180 -0.000099
181 -0.000115
182 -0.000116
183 -0.000134
184 -0.000144
185 -0.000160
186 -0.000181
187 -0.000166
188 -0.000127
189 -0.000080
190 -0.000045
191 -0.000011
192 0.000040
193 0.000101
194 0.000140
195 0.000202
196 0.000256
197 0.000283
198 0.000304
199 0.000337
200 0.000373
201 0.000402
202 0.000416
203 0.000422
204 0.000386
205 0.000344
206 0.000285
207 0.000214
208 0.000156
209 0.000125
210 0.000127
211 0.000124
212 0.000128
213 0.000114
214 0.000100
215 0.000089
216 0.000076
217 0.000055
218 0.000077
219 0.000090
220 0.000073
221 0.000059
222 0.000044
223 0.000071
224 0.000113
225 0.000154
226 0.000148
227 0.000131
228 0.000117
229 0.000093
230 0.000103
231 0.000086
232 0.000078
233 0.000078
234 0.000074
235 0.000087
236 0.000104
237 0.000125
238 0.000148
239 0.000169
240 0.000173
241 0.000159
242 0.000152
243 0.000134
244 0.000108
245 0.000097
246 0.000073
247 0.000065
248 0.000054
249 0.000040
