# i correlation
1 0.002812
2 0.002499
3 0.002236
4 0.002051
5 0.001923
6 0.001826
7 0.001780
8 0.001707
9 0.001625
10 0.001573
11 0.001548
12 0.001554
13 0.001558
14 0.001581
15 0.001571
16 0.001590
17 0.001575
18 0.001555
19 0.001580
20 0.001622
21 0.001653
22 0.001661
23 0.001674
24 0.001656
25 0.001649
26 0.001641
27 0.001613
28 0.001569
29 0.001499
30 0.001459
31 0.001416
32 0.001422
33 0.001433
34 0.001433
35 0.001440
36 0.001432
37 0.001430
38 0.001435
39 0.001438
40 0.001447
41 0.001424
42 0.001395
43 0.001351
44 0.001350
45 0.001339
46 0.001334
47 0.001349
48 0.001333
49 0.001290
50 0.001245
51 0.001273
52 0.001255
53 0.001234
54 0.001211
55 0.001203
56 0.001185
57 0.001207
58 0.001231
59 0.001255
60 0.001215
61 0.001201
62 0.001166
63 0.001144
64 0.001162
65 0.001206
66 0.001265
67 0.001279
68 0.001270
69 0.001258
70 0.001235
71 0.001226
72 0.001214
73 0.001209
74 0.001213
75 0.001197
76 0.001178
77 0.001201
78 0.001208
79 0.001232
80 0.001289
81 0.001289
82 0.001269
83 0.001235
84 0.001234
85 0.001252
86 0.001294
87 0.001335
88 0.001348
89 0.001346
90 0.001316
91 0.001302
92 0.001270
93 0.001256
94 0.001264
95 0.001252
96 0.001244
97 0.001208
98 0.001215
99 0.001210
100 0.001202
101 0.001172
102 0.001169
103 0.001167
104 0.001141
105 0.001130
106 0.001141
107 0.001119
108 0.001093
109 0.001052
110 0.001042
111 0.001017
112 0.001053
113 0.001083
114 0.001108
115 0.001105
116 0.001110
117 0.001120
118 0.001152
119 0.001193
120 0.001197
121 0.001227
122 0.001247
123 0.001255
124 0.001243
125 0.001260
126 0.001296
127 0.001308
128 0.001298
129 0.001287
130 0.001247
131 0.001194
132 0.001177
133 0.001158
134 0.001119
135 0.001086
136 0.001056
137 0.001042
138 0.001061
139 0.001061
140 0.001064
141 0.001067
142 0.001072
143 0.001078
144 0.001075
145 0.001085
146 0.001105
147 0.001120
148 0.001096
149 0.001037
150 0.000991
151 0.000957
152 0.000954
153 0.000983
154 0.000995
155 0.000994
156 0.000947
157 0.000934
158 0.000920
159 0.000945
160 0.001005
161 0.001080
162 0.001074
163 0.001069
164 0.001059
165 0.001062
166 0.001073
167 0.001102
168 0.001113
169 0.001141
170 0.001140
171 0.001142
172 0.001140
173 0.001158
174 0.001191
175 0.001186
176 0.001174
177 0.001157
178 0.001124
179 0.001075
180 0.001100
181 0.001098
182 0.001103
183 0.001102
184 0.001096
185 0.001095
186 0.001097
187 0.001125
188 0.001122
189 0.001117
190 0.001117
191 0.001095
192 0.001062
193 0.001057
194 0.001070
195 0.001078
196 0.001103
197 0.001104
198 0.001094
199 0.001088
200 0.001077
201 0.001101
202 0.001087
203 0.001095
204 0.001114
205 0.001106
206 0.001135
207 0.001179
208 0.001241
209 0.001288
210 0.001315
211 0.001282
212 0.001255
213 0.001227
214 0.001195
215 0.001166
216 0.001158
217 0.001155
218 0.001135
219 0.001119
220 0.001143
221 0.001153
222 0.001153
223 0.001153
224 0.001164
225 0.001173
226 0.001157
227 0.001136
228 0.001127
229 0.001100
230 0.001062
231 0.001049
232 0.001045
233 0.001048
234 0.001044
235 0.001049
236 0.001032
237 0.000991
238 0.000959
239 0.000936
240 0.000924
241 0.000944
242 0.000965
243 0.000998
244 0.001009
245 0.001027
246 0.001051
247 0.001057
248 0.001077
249 0.001073
