# i correlation
1 0.003487
2 0.003183
3 0.002924
4 0.002725
5 0.002544
6 0.002391
7 0.002253
8 0.002135
9 0.002034
10 0.001950
11 0.001865
12 0.001833
13 0.001783
14 0.001797
15 0.001812
16 0.001847
17 0.001827
18 0.001793
19 0.001788
20 0.001808
21 0.001827
22 0.001812
23 0.001820
24 0.001828
25 0.001854
26 0.001845
27 0.001851
28 0.001844
29 0.001850
30 0.001838
31 0.001849
32 0.001849
33 0.001843
34 0.001826
35 0.001851
36 0.001858
37 0.001850
38 0.001849
39 0.001851
40 0.001879
41 0.001865
42 0.001827
43 0.001773
44 0.001743
45 0.001724
46 0.001674
47 0.001651
48 0.001612
49 0.001623
50 0.001621
51 0.001649
52 0.001695
53 0.001722
54 0.001710
55 0.001673
56 0.001657
57 0.001689
58 0.001687
59 0.001677
60 0.001662
61 0.001651
62 0.001581
63 0.001551
64 0.001484
65 0.001453
66 0.001431
67 0.001416
68 0.001369
69 0.001327
70 0.001275
71 0.001230
72 0.001221
73 0.001251
74 0.001290
75 0.001334
76 0.001354
77 0.001369
78 0.001401
79 0.001413
80 0.001419
81 0.001435
82 0.001471
83 0.001465
84 0.001478
85 0.001497
86 0.001499
87 0.001486
88 0.001451
89 0.001421
90 0.001405
91 0.001374
92 0.001343
93 0.001312
94 0.001326
95 0.001327
96 0.001317
97 0.001313
98 0.001299
99 0.001282
100 0.001266
101 0.001276
102 0.001278
103 0.001277
104 0.001263
105 0.001230
106 0.001224
107 0.001210
108 0.001194
109 0.001188
110 0.001212
111 0.001236
112 0.001248
113 0.001255
114 0.001285
115 0.001312
116 0.001335
117 0.001363
118 0.001393
119 0.001420
120 0.001472
121 0.001468
122 0.001449
123 0.001372
124 0.001295
125 0.001237
126 0.001218
127 0.001223
128 0.001199
129 0.001173
130 0.001165
131 0.001165
132 0.001152
133 0.001119
134 0.001111
135 0.001113
136 0.001131
137 0.001155
138 0.001173
139 0.001207
140 0.001195
141 0.001201
142 0.001211
143 0.001240
144 0.001227
145 0.001208
146 0.001162
147 0.001134
148 0.001156
149 0.001137
150 0.001116
151 0.001106
152 0.001088
153 0.001052
154 0.001012
155 0.001024
156 0.001020
157 0.001016
158 0.001053
159 0.001083
160 0.001121
161 0.001138
162 0.001171
163 0.001196
164 0.001242
165 0.001268
166 0.001258
167 0.001261
168 0.001263
169 0.001247
170 0.001264
171 0.001282
172 0.001320
173 0.001340
174 0.001344
175 0.001327
176 0.001317
177 0.001314
178 0.001274
179 0.001247
180 0.001195
181 0.001140
182 0.001105
183 0.001058
184 0.001009
185 0.000957
186 0.000914
187 0.000911
188 0.000912
189 0.000913
190 0.000907
191 0.000878
192 0.000834
193 0.000835
194 0.000826
195 0.000836
196 0.000860
197 0.000878
198 0.000898
199 0.000910
200 0.000928
201 0.000936
202 0.000954
203 0.000959
204 0.000941
205 0.000958
206 0.000950
207 0.000926
208 0.000891
209 0.000863
210 0.000848
211 0.000825
212 0.000825
213 0.000807
214 0.000810
215 0.000819
216 0.000849
217 0.000893
218 0.000928
219 0.000983
220 0.001002
221 0.001023
222 0.001019
223 0.001011
224 0.000997
225 0.000986
226 0.000959
227 0.000934
228 0.000904
229 0.000905
230 0.000907
231 0.000920
232 0.000893
233 0.000838
234 0.000780
235 0.000740
236 0.000692
237 0.000685
238 0.000677
239 0.000703
240 0.000723
241 0.000729
242 0.000739
243 0.000741
244 0.000687
245 0.000679
246 0.000678
247 0.000695
248 0.000690
249 0.000682
