# i correlation
1 0.003617
2 0.003301
3 0.003033
4 0.002764
5 0.002586
6 0.002442
7 0.002310
8 0.002188
9 0.002055
10 0.001947
11 0.001811
12 0.001693
13 0.001610
14 0.001536
15 0.001482
16 0.001443
17 0.001428
18 0.001400
19 0.001396
20 0.001389
21 0.001380
22 0.001389
23 0.001397
24 0.001412
25 0.001432
26 0.001456
27 0.001458
28 0.001508
29 0.001561
30 0.001618
31 0.001650
32 0.001646
33 0.001614
34 0.001617
35 0.001600
36 0.001579
37 0.001564
38 0.001576
39 0.001591
40 0.001559
41 0.001547
42 0.001520
43 0.001483
44 0.001468
45 0.001437
46 0.001419
47 0.001367
48 0.001344
49 0.001347
50 0.001317
51 0.001276
52 0.001241
53 0.001181
54 0.001143
55 0.001131
56 0.001142
57 0.001112
58 0.001102
59 0.001083
60 0.001058
61 0.001049
62 0.001032
63 0.001040
64 0.001041
65 0.001047
66 0.001056
67 0.001024
68 0.000997
69 0.000973
70 0.000961
71 0.000930
72 0.000898
73 0.000900
74 0.000893
75 0.000859
76 0.000860
77 0.000881
78 0.000881
79 0.000894
80 0.000938
81 0.000945
82 0.000940
83 0.000907
84 0.000902
85 0.000873
86 0.000862
87 0.000908
88 0.000935
89 0.000929
90 0.000932
91 0.000920
92 0.000932
93 0.000934
94 0.000926
95 0.000910
96 0.000898
97 0.000929
98 0.000918
99 0.000901
100 0.000894
101 0.000870
102 0.000866
103 0.000856
104 0.000822
105 0.000810
106 0.000776
107 0.000766
108 0.000760
109 0.000769
110 0.000796
111 0.000814
112 0.000845
113 0.000860
114 0.000869
115 0.000878
116 0.000884
117 0.000868
118 0.000886
119 0.000900
120 0.000882
121 0.000831
122 0.000783
123 0.000756
124 0.000735
125 0.000705
126 0.000699
127 0.000697
128 0.000666
129 0.000646
130 0.000665
131 0.000676
132 0.000707
133 0.000758
134 0.000746
135 0.000725
136 0.000735
137 0.000705
138 0.000683
139 0.000652
140 0.000660
141 0.000689
142 0.000684
143 0.000678
144 0.000678
145 0.000649
146 0.000640
147 0.000617
148 0.000615
149 0.000623
150 0.000610
151 0.000596
152 0.000596
153 0.000645
154 0.000696
155 0.000751
156 0.000779
157 0.000811
158 0.000855
159 0.000870
160 0.000893
161 0.000933
162 0.000969
163 0.000966
164 0.000980
165 0.000955
166 0.000879
167 0.000820
168 0.000754
169 0.000691
170 0.000658
171 0.000619
172 0.000619
173 0.000622
174 0.000609
175 0.000650
176 0.000657
177 0.000630
178 0.000580
179 0.000516
180 0.000488
181 0.000482
182 0.000473
183 0.000475
184 0.000499
185 0.000500
186 0.000550
187 0.000579
188 0.000601
189 0.000623
190 0.000651
191 0.000663
192 0.000732
193 0.000786
194 0.000826
195 0.000842
196 0.000864
197 0.000889
198 0.000897
199 0.000917
200 0.000967
201 0.000975
202 0.000981
203 0.001001
204 0.001013
205 0.001029
206 0.001065
207 0.001090
208 0.001106
209 0.001127
210 0.001162
211 0.001200
212 0.001232
213 0.001242
214 0.001247
215 0.001232
216 0.001226
217 0.001225
218 0.001219
219 0.001186
220 0.001181
221 0.001161
222 0.001125
223 0.001099
224 0.001060
225 0.001011
226 0.000960
227 0.000912
228 0.000862
229 0.000825
230 0.000817
231 0.000800
232 0.000791
233 0.000789
234 0.000804
235 0.000828
236 0.000835
237 0.000829
238 0.000836
239 0.000860
240 0.000854
241 0.000880
242 0.000921
243 0.000938
244 0.000957
245 0.000984
246 0.001044
247 0.001080
248 0.001111
249 0.001147
