# i correlation
1 0.003355
2 0.003028
3 0.002754
4 0.002544
5 0.002404
6 0.002322
7 0.002220
8 0.002159
9 0.002137
10 0.002107
11 0.002038
12 0.002006
13 0.001949
14 0.001899
15 0.001904
16 0.001908
17 0.001892
18 0.001867
19 0.001880
20 0.001841
21 0.001813
22 0.001814
23 0.001838
24 0.001844
25 0.001849
26 0.001815
27 0.001785
28 0.001768
29 0.001731
30 0.001689
31 0.001649
32 0.001604
33 0.001560
34 0.001490
35 0.001419
36 0.001349
37 0.001313
38 0.001339
39 0.001345
40 0.001355
41 0.001360
42 0.001346
43 0.001344
44 0.001330
45 0.001303
46 0.001276
47 0.001291
48 0.001301
49 0.001324
50 0.001332
51 0.001335
52 0.001320
53 0.001311
54 0.001300
55 0.001267
56 0.001217
57 0.001191
58 0.001162
59 0.001135
60 0.001085
61 0.001034
62 0.000978
63 0.000980
64 0.000956
65 0.000933
66 0.000911
67 0.000896
68 0.000917
69 0.000967
70 0.000995
71 0.000983
72 0.000966
73 0.000900
74 0.000855
75 0.000832
76 0.000838
77 0.000834
78 0.000843
79 0.000857
80 0.000867
81 0.000866
82 0.000868
83 0.000861
84 0.000882
85 0.000939
86 0.001000
87 0.001052
88 0.001078
89 0.001065
90 0.001039
91 0.001037
92 0.001048
93 0.001052
94 0.001061
95 0.001075
96 0.001094
97 0.001096
98 0.001093
99 0.001065
100 0.001008
101 0.000997
102 0.000986
103 0.000978
104 0.000985
105 0.000950
106 0.000927
107 0.000896
108 0.000850
109 0.000812
110 0.000807
111 0.000813
112 0.000837
113 0.000879
114 0.000926
115 0.000914
116 0.000898
117 0.000878
118 0.000855
119 0.000827
120 0.000822
121 0.000803
122 0.000778
123 0.000752
124 0.000735
125 0.000720
126 0.000730
127 0.000734
128 0.000717
129 0.000718
130 0.000699
131 0.000681
132 0.000666
133 0.000666
134 0.000671
135 0.000689
136 0.000711
137 0.000763
138 0.000804
139 0.000833
140 0.000849
141 0.000869
142 0.000876
143 0.000866
144 0.000879
145 0.000876
146 0.000881
147 0.000880
148 0.000866
149 0.000846
150 0.000831
151 0.000816
152 0.000832
153 0.000855
154 0.000860
155 0.000841
156 0.000848
157 0.000875
158 0.000899
159 0.000897
160 0.000870
161 0.000871
162 0.000835
163 0.000818
164 0.000821
165 0.000851
166 0.000888
167 0.000917
168 0.000910
169 0.000907
170 0.000921
171 0.000951
172 0.000950
173 0.000965
174 0.000942
175 0.000951
176 0.000967
177 0.000961
178 0.000947
179 0.000931
180 0.000887
181 0.000860
182 0.000884
183 0.000899
184 0.000934
185 0.000994
186 0.001025
187 0.001054
188 0.001081
189 0.001084
190 0.001085
191 0.001101
192 0.001120
193 0.001080
194 0.001061
195 0.001033
196 0.001007
197 0.001012
198 0.001019
199 0.001023
200 0.001022
201 0.001028
202 0.001004
203 0.000956
204 0.000918
205 0.000884
206 0.000869
207 0.000888
208 0.000906
209 0.000929
210 0.000928
211 0.000936
212 0.000929
213 0.000920
214 0.000899
215 0.000880
216 0.000854
217 0.000848
218 0.000833
219 0.000804
220 0.000782
221 0.000741
222 0.000702
223 0.000678
224 0.000647
225 0.000640
226 0.000650
227 0.000653
228 0.000652
229 0.000671
230 0.000687
231 0.000683
232 0.000693
233 0.000666
234 0.000646
235 0.000621
236 0.000618
237 0.000622
238 0.000633
239 0.000654
240 0.000686
241 0.000716
242 0.000737
243 0.000732
244 0.000717
245 0.000728
246 0.000719
247 0.000674
248 0.000641
249 0.000599
