# i correlation
1 0.002652
2 0.002375
3 0.002116
4 0.001898
5 0.001754
6 0.001611
7 0.001551
8 0.001490
9 0.001421
10 0.001345
11 0.001314
12 0.001259
13 0.001172
14 0.001089
15 0.001030
16 0.001010
17 0.000965
18 0.000920
19 0.000909
20 0.000905
21 0.000916
22 0.000892
23 0.000891
24 0.000901
25 0.000892
26 0.000914
27 0.000929
28 0.000980
29 0.000995
30 0.001015
31 0.001036
32 0.001041
33 0.001029
34 0.001006
35 0.000968
36 0.000911
37 0.000862
38 0.000841
39 0.000849
40 0.000827
41 0.000817
42 0.000845
43 0.000875
44 0.000899
45 0.000916
46 0.000933
47 0.000950
48 0.000920
49 0.000930
50 0.000939
51 0.000949
52 0.000948
53 0.000942
54 0.000937
55 0.000957
56 0.000989
57 0.001006
58 0.001042
59 0.001032
60 0.001022
61 0.001014
62 0.000995
63 0.001013
64 0.001019
65 0.001008
66 0.001017
67 0.001029
68 0.001045
69 0.001096
70 0.001110
71 0.001125
72 0.001099
73 0.001075
74 0.001084
75 0.001061
76 0.001035
77 0.001019
78 0.000997
79 0.000972
80 0.000921
81 0.000874
82 0.000812
83 0.000761
84 0.000714
85 0.000697
86 0.000700
87 0.000706
88 0.000724
89 0.000756
90 0.000759
91 0.000734
92 0.000690
93 0.000645
94 0.000630
95 0.000628
96 0.000624
97 0.000646
98 0.000653
99 0.000672
100 0.000706
101 0.000719
102 0.000786
103 0.000845
104 0.000869
105 0.000910
106 0.000931
107 0.000943
108 0.000958
109 0.000971
110 0.000982
111 0.000976
112 0.000955
113 0.000976
114 0.000993
115 0.000998
116 0.001019
117 0.001037
118 0.001070
119 0.001113
120 0.001089
121 0.001053
122 0.001029
123 0.000982
124 0.000956
125 0.000956
126 0.000991
127 0.001032
128 0.001054
129 0.001069
130 0.001066
131 0.001042
132 0.000996
133 0.000933
134 0.000887
135 0.000896
136 0.000925
137 0.000943
138 0.000969
139 0.000981
140 0.000980
141 0.000968
142 0.000990
143 0.000980
144 0.000990
145 0.000939
146 0.000890
147 0.000862
148 0.000850
149 0.000857
150 0.000838
151 0.000822
152 0.000783
153 0.000768
154 0.000738
155 0.000727
156 0.000721
157 0.000703
158 0.000692
159 0.000665
160 0.000655
161 0.000646
162 0.000626
163 0.000623
164 0.000638
165 0.000666
166 0.000687
167 0.000685
168 0.000660
169 0.000637
170 0.000635
171 0.000636
172 0.000644
173 0.000630
174 0.000629
175 0.000651
176 0.000676
177 0.000694
178 0.000686
179 0.000655
180 0.000605
181 0.000579
182 0.000581
183 0.000609
184 0.000614
185 0.000636
186 0.000649
187 0.000671
188 0.000695
189 0.000694
190 0.000671
191 0.000657
192 0.000652
193 0.000654
194 0.000673
195 0.000670
196 0.000694
197 0.000677
198 0.000653
199 0.000667
200 0.000666
201 0.000643
202 0.000623
203 0.000594
204 0.000582
205 0.000600
206 0.000613
207 0.000655
208 0.000674
209 0.000686
210 0.000705
211 0.000724
212 0.000690
213 0.000659
214 0.000656
215 0.000658
216 0.000691
217 0.000701
218 0.000736
219 0.000761
220 0.000754
221 0.000749
222 0.000743
223 0.000737
224 0.000728
225 0.000689
226 0.000632
227 0.000606
228 0.000569
229 0.000529
230 0.000501
231 0.000486
232 0.000477
233 0.000463
234 0.000463
235 0.000458
236 0.000449
237 0.000414
238 0.000379
239 0.000401
240 0.000421
241 0.000474
242 0.000502
243 0.000519
244 0.000559
245 0.000622
246 0.000660
247 0.000661
248 0.000651
249 0.000635
