# i correlation
1 0.002952
2 0.002671
3 0.002438
4 0.002235
5 0.002071
6 0.001937
7 0.001793
8 0.001692
9 0.001573
10 0.001468
11 0.001431
12 0.001361
13 0.001304
14 0.001262
15 0.001213
16 0.001166
17 0.001150
18 0.001169
19 0.001172
20 0.001163
21 0.001138
22 0.001103
23 0.001123
24 0.001111
25 0.001076
26 0.001081
27 0.001042
28 0.001001
29 0.001007
30 0.001015
31 0.001054
32 0.001075
33 0.001056
34 0.001069
35 0.001079
36 0.001056
37 0.001087
38 0.001106
39 0.001094
40 0.001088
41 0.001076
42 0.001080
43 0.001075
44 0.001045
45 0.001006
46 0.000975
47 0.000932
48 0.000902
49 0.000870
50 0.000875
51 0.000862
52 0.000881
53 0.000876
54 0.000854
55 0.000833
56 0.000820
57 0.000851
58 0.000915
59 0.000951
60 0.000991
61 0.000998
62 0.000984
63 0.000973
64 0.000987
65 0.000999
66 0.001037
67 0.001075
68 0.001110
69 0.001121
70 0.001122
71 0.001158
72 0.001180
73 0.001175
74 0.001134
75 0.001105
76 0.001048
77 0.000974
78 0.000895
79 0.000833
80 0.000785
81 0.000736
82 0.000702
83 0.000682
84 0.000666
85 0.000664
86 0.000673
87 0.000675
88 0.000688
89 0.000719
90 0.000755
91 0.000822
92 0.000901
93 0.000962
94 0.001010
95 0.001051
96 0.001086
97 0.001087
98 0.001072
99 0.001054
100 0.001046
101 0.001020
102 0.001002
103 0.000976
104 0.000918
105 0.000874
106 0.000827
107 0.000786
108 0.000754
109 0.000692
110 0.000704
111 0.000736
112 0.000754
113 0.000753
114 0.000748
115 0.000715
116 0.000692
117 0.000685
118 0.000685
119 0.000717
120 0.000715
121 0.000701
122 0.000641
123 0.000612
124 0.000574
125 0.000592
126 0.000629
127 0.000640
128 0.000681
129 0.000721
130 0.000736
131 0.000743
132 0.000756
133 0.000768
134 0.000807
135 0.000827
136 0.000802
137 0.000791
138 0.000797
139 0.000800
140 0.000792
141 0.000740
142 0.000697
143 0.000685
144 0.000664
145 0.000641
146 0.000604
147 0.000569
148 0.000572
149 0.000575
150 0.000566
151 0.000546
152 0.000540
153 0.000547
154 0.000587
155 0.000602
156 0.000629
157 0.000645
158 0.000662
159 0.000672
160 0.000693
161 0.000686
162 0.000659
163 0.000694
164 0.000698
165 0.000703
166 0.000694
167 0.000671
168 0.000665
169 0.000668
170 0.000640
171 0.000631
172 0.000639
173 0.000629
174 0.000628
175 0.000621
176 0.000614
177 0.000603
178 0.000619
179 0.000584
180 0.000561
181 0.000526
182 0.000494
183 0.000459
184 0.000427
185 0.000425
186 0.000428
187 0.000446
188 0.000463
189 0.000480
190 0.000498
191 0.000539
192 0.000600
193 0.000650
194 0.000645
195 0.000621
196 0.000616
197 0.000610
198 0.000631
199 0.000652
200 0.000672
201 0.000698
202 0.000712
203 0.000729
204 0.000728
205 0.000699
206 0.000693
207 0.000651
208 0.000612
209 0.000573
210 0.000531
211 0.000502
212 0.000476
213 0.000465
214 0.000462
215 0.000440
216 0.000400
217 0.000343
218 0.000319
219 0.000284
220 0.000282
221 0.000327
222 0.000394
223 0.000460
224 0.000501
225 0.000524
226 0.000560
227 0.000580
228 0.000600
229 0.000635
230 0.000669
231 0.000685
232 0.000707
233 0.000711
234 0.000709
235 0.000679
236 0.000665
237 0.000631
238 0.000583
239 0.000526
240 0.000479
241 0.000463
242 0.000423
243 0.000377
244 0.000359
245 0.000359
246 0.000358
247 0.000359
248 0.000339
249 0.000335
