# i correlation
1 0.001765
2 0.001662
3 0.001572
4 0.001491
5 0.001423
6 0.001369
7 0.001320
8 0.001281
9 0.001251
10 0.001244
11 0.001228
12 0.001214
13 0.001199
14 0.001172
15 0.001147
16 0.001134
17 0.001126
18 0.001115
19 0.001113
20 0.001136
21 0.001142
22 0.001144
23 0.001145
24 0.001139
25 0.001139
26 0.001145
27 0.001156
28 0.001172
29 0.001182
30 0.001180
31 0.001183
32 0.001182
33 0.001173
34 0.001161
35 0.001152
36 0.001131
37 0.001123
38 0.001111
39 0.001106
40 0.001097
41 0.001083
42 0.001077
43 0.001062
44 0.001043
45 0.001039
46 0.001029
47 0.001021
48 0.001021
49 0.001017
50 0.001010
51 0.001000
52 0.000986
53 0.000974
54 0.000957
55 0.000943
56 0.000936
57 0.000941
58 0.000949
59 0.000970
60 0.000981
61 0.000985
62 0.001000
63 0.001013
64 0.001011
65 0.001010
66 0.001006
67 0.001007
68 0.001011
69 0.001014
70 0.001027
71 0.001029
72 0.001034
73 0.001036
74 0.001034
75 0.001028
76 0.001022
77 0.001020
78 0.001012
79 0.001001
80 0.000998
81 0.000980
82 0.000964
83 0.000957
84 0.000951
85 0.000945
86 0.000939
87 0.000938
88 0.000937
89 0.000932
90 0.000949
91 0.000957
92 0.000959
93 0.000955
94 0.000948
95 0.000940
96 0.000936
97 0.000935
98 0.000924
99 0.000906
100 0.000895
101 0.000884
102 0.000874
103 0.000857
104 0.000847
105 0.000845
106 0.000856
107 0.000868
108 0.000872
109 0.000867
110 0.000863
111 0.000841
112 0.000834
113 0.000819
114 0.000808
115 0.000808
116 0.000798
117 0.000786
118 0.000792
119 0.000797
120 0.000795
121 0.000783
122 0.000772
123 0.000760
124 0.000749
125 0.000743
126 0.000736
127 0.000741
128 0.000742
129 0.000750
130 0.000760
131 0.000750
132 0.000737
133 0.000722
134 0.000704
135 0.000688
136 0.000672
137 0.000674
138 0.000669
139 0.000673
140 0.000684
141 0.000682
142 0.000674
143 0.000675
144 0.000671
145 0.000677
146 0.000674
147 0.000676
148 0.000674
149 0.000672
150 0.000674
151 0.000674
152 0.000668
153 0.000664
154 0.000650
155 0.000646
156 0.000641
157 0.000642
158 0.000643
159 0.000643
160 0.000643
161 0.000639
162 0.000633
163 0.000633
164 0.000630
165 0.000631
166 0.000636
167 0.000645
168 0.000654
169 0.000657
170 0.000659
171 0.000649
172 0.000649
173 0.000649
174 0.000641
175 0.000639
176 0.000626
177 0.000635
178 0.000635
179 0.000640
180 0.000648
181 0.000644
182 0.000641
183 0.000638
184 0.000623
185 0.000601
186 0.000591
187 0.000587
188 0.000590
189 0.000586
190 0.000586
191 0.000584
192 0.000578
193 0.000574
194 0.000574
195 0.000569
196 0.000561
197 0.000552
198 0.000541
199 0.000533
200 0.000526
201 0.000521
202 0.000520
203 0.000530
204 0.000536
205 0.000532
206 0.000530
207 0.000533
208 0.000533
209 0.000532
210 0.000531
211 0.000528
212 0.000523
213 0.000509
214 0.000501
215 0.000506
216 0.000508
217 0.000502
218 0.000498
219 0.000494
220 0.000497
221 0.000495
222 0.000489
223 0.000476
224 0.000470
225 0.000473
226 0.000470
227 0.000477
228 0.000479
229 0.000470
230 0.000475
231 0.000481
232 0.000484
233 0.000479
234 0.000471
235 0.000470
236 0.000470
237 0.000485
238 0.000491
239 0.000492
240 0.000499
241 0.000505
242 0.000505
243 0.000514
244 0.000511
245 0.000515
246 0.000523
247 0.000541
248 0.000553
249 0.000561
250 0.000564
251 0.000562
252 0.000560
253 0.000558
254 0.000556
255 0.000553
256 0.000546
257 0.000545
258 0.000545
259 0.000544
260 0.000554
261 0.000550
262 0.000530
263 0.000521
264 0.000508
265 0.000490
266 0.000465
267 0.000457
268 0.000443
269 0.000441
270 0.000447
271 0.000456
272 0.000465
273 0.000475
274 0.000480
275 0.000486
276 0.000486
277 0.000489
278 0.000492
279 0.000496
280 0.000503
281 0.000507
282 0.000507
283 0.000511
284 0.000517
285 0.000524
286 0.000523
287 0.000527
288 0.000520
289 0.000514
290 0.000511
291 0.000498
292 0.000485
293 0.000476
294 0.000457
295 0.000447
296 0.000439
297 0.000423
298 0.000415
299 0.000411
300 0.000416
301 0.000416
302 0.000424
303 0.000428
304 0.000427
305 0.000424
306 0.000427
307 0.000432
308 0.000433
309 0.000436
310 0.000437
311 0.000435
312 0.000431
313 0.000431
314 0.000419
315 0.000410
316 0.000399
317 0.000397
318 0.000397
319 0.000401
320 0.000407
321 0.000409
322 0.000420
323 0.000429
324 0.000438
325 0.000432
326 0.000434
327 0.000435
328 0.000435
329 0.000426
330 0.000425
331 0.000421
332 0.000416
333 0.000416
334 0.000418
335 0.000419
336 0.000423
337 0.000427
338 0.000430
339 0.000434
340 0.000440
341 0.000437
342 0.000432
343 0.000431
344 0.000421
345 0.000411
346 0.000410
347 0.000415
348 0.000417
349 0.000424
350 0.000438
351 0.000443
352 0.000455
353 0.000466
354 0.000468
355 0.000478
356 0.000477
357 0.000466
358 0.000448
359 0.000425
360 0.000399
361 0.000389
362 0.000390
363 0.000391
364 0.000386
365 0.000385
366 0.000377
367 0.000378
368 0.000379
369 0.000387
370 0.000395
371 0.000398
372 0.000399
373 0.000404
374 0.000397
375 0.000404
376 0.000399
377 0.000397
378 0.000400
379 0.000404
380 0.000414
381 0.000426
382 0.000438
383 0.000447
384 0.000442
385 0.000439
386 0.000439
387 0.000433
388 0.000425
389 0.000411
390 0.000406
391 0.000393
392 0.000380
393 0.000370
394 0.000359
395 0.000351
396 0.000330
397 0.000321
398 0.000319
399 0.000324
400 0.000338
401 0.000345
402 0.000357
403 0.000366
404 0.000377
405 0.000380
406 0.000378
407 0.000373
408 0.000363
409 0.000358
410 0.000361
411 0.000356
412 0.000361
413 0.000356
414 0.000369
415 0.000383
416 0.000392
417 0.000400
418 0.000404
419 0.000399
420 0.000402
421 0.000405
422 0.000397
423 0.000385
424 0.000371
425 0.000357
426 0.000350
427 0.000354
428 0.000359
429 0.000363
430 0.000377
431 0.000392
432 0.000403
433 0.000405
434 0.000405
435 0.000403
436 0.000395
437 0.000388
438 0.000389
439 0.000384
440 0.000388
441 0.000391
442 0.000392
443 0.000395
444 0.000393
445 0.000384
446 0.000371
447 0.000366
448 0.000367
449 0.000367
450 0.000361
451 0.000361
452 0.000364
453 0.000371
454 0.000376
455 0.000375
456 0.000372
457 0.000367
458 0.000368
459 0.000369
460 0.000372
461 0.000372
462 0.000376
463 0.000388
464 0.000400
465 0.000412
466 0.000414
467 0.000417
468 0.000415
469 0.000409
470 0.000406
471 0.000411
472 0.000410
473 0.000411
474 0.000404
475 0.000400
476 0.000402
477 0.000410
478 0.000406
479 0.000406
480 0.000408
481 0.000404
482 0.000400
483 0.000399
484 0.000393
485 0.000388
486 0.000376
487 0.000367
488 0.000366
489 0.000366
490 0.000379
491 0.000385
492 0.000394
493 0.000406
494 0.000412
495 0.000413
496 0.000409
497 0.000407
498 0.000405
499 0.000401
500 0.000407
501 0.000412
502 0.000426
503 0.000433
504 0.000440
505 0.000442
506 0.000443
507 0.000436
508 0.000434
509 0.000423
510 0.000426
511 0.000424
512 0.000428
513 0.000429
514 0.000431
515 0.000425
516 0.000423
517 0.000417
518 0.000417
519 0.000411
520 0.000414
521 0.000418
522 0.000431
523 0.000439
524 0.000448
525 0.000451
526 0.000441
527 0.000442
528 0.000440
529 0.000437
530 0.000446
531 0.000458
532 0.000466
533 0.000476
534 0.000484
535 0.000485
536 0.000485
537 0.000479
538 0.000471
539 0.000462
540 0.000446
541 0.000433
542 0.000424
543 0.000424
544 0.000423
545 0.000422
546 0.000415
547 0.000410
548 0.000402
549 0.000397
550 0.000406
551 0.000411
552 0.000414
553 0.000416
554 0.000416
555 0.000415
556 0.000418
557 0.000426
558 0.000436
559 0.000442
560 0.000452
561 0.000458
562 0.000459
563 0.000464
564 0.000466
565 0.000471
566 0.000463
567 0.000458
568 0.000452
569 0.000443
570 0.000442
571 0.000437
572 0.000443
573 0.000451
574 0.000453
575 0.000444
576 0.000431
577 0.000426
578 0.000426
579 0.000419
580 0.000417
581 0.000412
582 0.000407
583 0.000411
584 0.000415
585 0.000418
586 0.000423
587 0.000428
588 0.000426
589 0.000425
590 0.000432
591 0.000437
592 0.000441
593 0.000444
594 0.000448
595 0.000454
596 0.000457
597 0.000464
598 0.000468
599 0.000462
600 0.000469
601 0.000475
602 0.000480
603 0.000484
604 0.000485
605 0.000483
606 0.000478
607 0.000475
608 0.000471
609 0.000455
610 0.000456
611 0.000453
612 0.000454
613 0.000458
614 0.000458
615 0.000458
616 0.000453
617 0.000450
618 0.000453
619 0.000440
620 0.000441
621 0.000439
622 0.000437
623 0.000435
624 0.000432
625 0.000423
626 0.000419
627 0.000412
628 0.000410
629 0.000408
630 0.000412
631 0.000411
632 0.000410
633 0.000406
634 0.000405
635 0.000408
636 0.000409
637 0.000415
638 0.000412
639 0.000408
640 0.000412
641 0.000413
642 0.000422
643 0.000432
644 0.000428
645 0.000422
646 0.000415
647 0.000407
648 0.000397
649 0.000388
650 0.000385
651 0.000383
652 0.000385
653 0.000385
654 0.000377
655 0.000373
656 0.000363
657 0.000358
658 0.000359
659 0.000360
660 0.000360
661 0.000357
662 0.000359
663 0.000370
664 0.000376
665 0.000382
666 0.000383
667 0.000379
668 0.000372
669 0.000369
670 0.000365
671 0.000366
672 0.000367
673 0.000365
674 0.000361
675 0.000362
676 0.000359
677 0.000357
678 0.000351
679 0.000348
680 0.000348
681 0.000356
682 0.000356
683 0.000352
684 0.000347
685 0.000343
686 0.000339
687 0.000332
688 0.000326
689 0.000317
690 0.000310
691 0.000304
692 0.000304
693 0.000306
694 0.000300
695 0.000295
696 0.000280
697 0.000270
698 0.000258
699 0.000241
700 0.000225
701 0.000216
702 0.000215
703 0.000213
704 0.000216
705 0.000221
706 0.000222
707 0.000225
708 0.000229
709 0.000232
710 0.000237
711 0.000244
712 0.000255
713 0.000264
714 0.000267
715 0.000264
716 0.000257
717 0.000253
718 0.000252
719 0.000243
720 0.000241
721 0.000235
722 0.000231
723 0.000231
724 0.000232
725 0.000235
726 0.000233
727 0.000233
728 0.000233
729 0.000224
730 0.000216
731 0.000211
732 0.000206
733 0.000203
734 0.000200
735 0.000197
736 0.000192
737 0.000191
738 0.000195
739 0.000193
740 0.000197
741 0.000196
742 0.000192
743 0.000197
744 0.000204
745 0.000209
746 0.000206
747 0.000202
748 0.000199
749 0.000203
750 0.000211
751 0.000220
752 0.000223
753 0.000229
754 0.000230
755 0.000235
756 0.000235
757 0.000236
758 0.000236
759 0.000233
760 0.000232
761 0.000228
762 0.000225
763 0.000225
764 0.000224
765 0.000225
766 0.000226
767 0.000223
768 0.000215
769 0.000215
770 0.000212
771 0.000208
772 0.000206
773 0.000203
774 0.000201
775 0.000196
776 0.000188
777 0.000183
778 0.000178
779 0.000176
780 0.000177
781 0.000176
782 0.000177
783 0.000175
784 0.000171
785 0.000180
786 0.000182
787 0.000179
788 0.000176
789 0.000169
790 0.000169
791 0.000167
792 0.000165
793 0.000164
794 0.000157
795 0.000156
796 0.000151
797 0.000146
798 0.000139
799 0.000132
800 0.000123
801 0.000114
802 0.000105
803 0.000105
804 0.000106
805 0.000102
806 0.000095
807 0.000084
808 0.000074
809 0.000067
