# i correlation
1 0.002006
2 0.001901
3 0.001817
4 0.001739
5 0.001687
6 0.001655
7 0.001627
8 0.001602
9 0.001591
10 0.001576
11 0.001558
12 0.001552
13 0.001553
14 0.001548
15 0.001545
16 0.001530
17 0.001505
18 0.001483
19 0.001466
20 0.001440
21 0.001421
22 0.001412
23 0.001414
24 0.001414
25 0.001414
26 0.001412
27 0.001406
28 0.001400
29 0.001387
30 0.001383
31 0.001386
32 0.001387
33 0.001382
34 0.001367
35 0.001352
36 0.001341
37 0.001329
38 0.001320
39 0.001303
40 0.001290
41 0.001278
42 0.001274
43 0.001269
44 0.001256
45 0.001250
46 0.001259
47 0.001262
48 0.001258
49 0.001256
50 0.001252
51 0.001246
52 0.001240
53 0.001239
54 0.001237
55 0.001243
56 0.001252
57 0.001272
58 0.001284
59 0.001290
60 0.001282
61 0.001281
62 0.001284
63 0.001283
64 0.001285
65 0.001289
66 0.001297
67 0.001298
68 0.001294
69 0.001291
70 0.001293
71 0.001286
72 0.001291
73 0.001280
74 0.001265
75 0.001247
76 0.001235
77 0.001226
78 0.001222
79 0.001218
80 0.001223
81 0.001230
82 0.001228
83 0.001233
84 0.001231
85 0.001231
86 0.001223
87 0.001225
88 0.001233
89 0.001243
90 0.001246
91 0.001247
92 0.001251
93 0.001261
94 0.001270
95 0.001276
96 0.001273
97 0.001267
98 0.001270
99 0.001257
100 0.001248
101 0.001239
102 0.001226
103 0.001211
104 0.001201
105 0.001198
106 0.001175
107 0.001158
108 0.001150
109 0.001128
110 0.001111
111 0.001099
112 0.001091
113 0.001084
114 0.001079
115 0.001071
116 0.001055
117 0.001050
118 0.001052
119 0.001048
120 0.001046
121 0.001045
122 0.001044
123 0.001043
124 0.001041
125 0.001039
126 0.001038
127 0.001050
128 0.001057
129 0.001064
130 0.001073
131 0.001079
132 0.001072
133 0.001054
134 0.001032
135 0.001014
136 0.001006
137 0.001002
138 0.000994
139 0.000986
140 0.000971
141 0.000957
142 0.000943
143 0.000934
144 0.000933
145 0.000947
146 0.000956
147 0.000952
148 0.000949
149 0.000940
150 0.000943
151 0.000955
152 0.000961
153 0.000962
154 0.000962
155 0.000969
156 0.000979
157 0.000988
158 0.000990
159 0.000983
160 0.000980
161 0.000979
162 0.000969
163 0.000958
164 0.000957
165 0.000949
166 0.000931
167 0.000918
168 0.000910
169 0.000899
170 0.000909
171 0.000922
172 0.000918
173 0.000922
174 0.000931
175 0.000934
176 0.000927
177 0.000920
178 0.000905
179 0.000896
180 0.000891
181 0.000898
182 0.000899
183 0.000914
184 0.000924
185 0.000926
186 0.000933
187 0.000931
188 0.000938
189 0.000945
190 0.000947
191 0.000953
192 0.000959
193 0.000962
194 0.000955
195 0.000944
196 0.000944
197 0.000945
198 0.000966
199 0.000970
200 0.000955
201 0.000943
202 0.000933
203 0.000921
204 0.000904
205 0.000890
206 0.000890
207 0.000896
208 0.000893
209 0.000881
210 0.000863
211 0.000852
212 0.000840
213 0.000835
214 0.000825
215 0.000823
216 0.000825
217 0.000835
218 0.000839
219 0.000833
220 0.000833
221 0.000832
222 0.000834
223 0.000841
224 0.000844
225 0.000846
226 0.000851
227 0.000848
228 0.000844
229 0.000845
230 0.000852
231 0.000856
232 0.000851
233 0.000842
234 0.000837
235 0.000827
236 0.000815
237 0.000811
238 0.000814
239 0.000826
240 0.000834
241 0.000837
242 0.000837
243 0.000821
244 0.000804
245 0.000800
246 0.000794
247 0.000785
248 0.000776
249 0.000767
250 0.000766
251 0.000767
252 0.000771
253 0.000780
254 0.000787
255 0.000790
256 0.000788
257 0.000783
258 0.000781
259 0.000781
260 0.000776
261 0.000763
262 0.000758
263 0.000752
264 0.000756
265 0.000755
266 0.000758
267 0.000742
268 0.000734
269 0.000735
270 0.000726
271 0.000718
272 0.000718
273 0.000715
274 0.000710
275 0.000725
276 0.000732
277 0.000743
278 0.000752
279 0.000763
280 0.000757
281 0.000748
282 0.000737
283 0.000729
284 0.000725
285 0.000723
286 0.000725
287 0.000720
288 0.000723
289 0.000718
290 0.000709
291 0.000707
292 0.000706
293 0.000711
294 0.000714
295 0.000716
296 0.000727
297 0.000733
298 0.000734
299 0.000737
300 0.000740
301 0.000740
302 0.000746
303 0.000750
304 0.000749
305 0.000741
306 0.000734
307 0.000727
308 0.000712
309 0.000703
310 0.000695
311 0.000700
312 0.000705
313 0.000695
314 0.000677
315 0.000664
316 0.000648
317 0.000628
318 0.000609
319 0.000595
320 0.000591
321 0.000595
322 0.000596
323 0.000592
324 0.000591
325 0.000599
326 0.000604
327 0.000610
328 0.000616
329 0.000609
330 0.000598
331 0.000583
332 0.000564
333 0.000541
334 0.000531
335 0.000528
336 0.000522
337 0.000519
338 0.000516
339 0.000513
340 0.000502
341 0.000494
342 0.000488
343 0.000481
344 0.000484
345 0.000482
346 0.000473
347 0.000471
348 0.000465
349 0.000455
350 0.000446
351 0.000434
352 0.000425
353 0.000423
354 0.000425
355 0.000410
356 0.000399
357 0.000389
358 0.000389
359 0.000392
360 0.000395
361 0.000390
362 0.000388
363 0.000391
364 0.000393
365 0.000390
366 0.000388
367 0.000387
368 0.000393
369 0.000407
370 0.000413
371 0.000421
372 0.000426
373 0.000437
374 0.000441
375 0.000445
376 0.000435
377 0.000434
378 0.000432
379 0.000431
380 0.000427
381 0.000426
382 0.000427
383 0.000434
384 0.000446
385 0.000458
386 0.000460
387 0.000465
388 0.000458
389 0.000459
390 0.000459
391 0.000466
392 0.000481
393 0.000485
394 0.000488
395 0.000486
396 0.000487
397 0.000492
398 0.000502
399 0.000514
400 0.000524
401 0.000531
402 0.000527
403 0.000509
404 0.000498
405 0.000488
406 0.000487
407 0.000489
408 0.000482
409 0.000472
410 0.000472
411 0.000473
412 0.000463
413 0.000452
414 0.000435
415 0.000424
416 0.000416
417 0.000417
418 0.000408
419 0.000379
420 0.000359
421 0.000340
422 0.000327
423 0.000332
424 0.000337
425 0.000344
426 0.000356
427 0.000359
428 0.000351
429 0.000347
430 0.000353
431 0.000352
432 0.000359
433 0.000365
434 0.000361
435 0.000347
436 0.000338
437 0.000333
438 0.000326
439 0.000321
440 0.000320
441 0.000314
442 0.000305
443 0.000304
444 0.000294
445 0.000284
446 0.000275
447 0.000268
448 0.000264
449 0.000263
450 0.000262
451 0.000252
452 0.000247
453 0.000244
454 0.000237
455 0.000234
456 0.000240
457 0.000254
458 0.000271
459 0.000289
460 0.000299
461 0.000309
462 0.000315
463 0.000314
464 0.000315
465 0.000310
466 0.000307
467 0.000302
468 0.000301
469 0.000301
470 0.000302
471 0.000303
472 0.000311
473 0.000323
474 0.000328
475 0.000334
476 0.000340
477 0.000336
478 0.000326
479 0.000315
480 0.000309
481 0.000303
482 0.000304
483 0.000307
484 0.000310
485 0.000314
486 0.000312
487 0.000310
488 0.000308
489 0.000305
490 0.000313
491 0.000312
492 0.000315
493 0.000314
494 0.000311
495 0.000316
496 0.000323
497 0.000321
498 0.000320
499 0.000321
500 0.000325
501 0.000328
502 0.000323
503 0.000314
504 0.000308
505 0.000302
506 0.000297
507 0.000290
508 0.000281
509 0.000279
510 0.000279
511 0.000275
512 0.000264
513 0.000248
514 0.000237
515 0.000227
516 0.000215
517 0.000207
518 0.000203
519 0.000205
520 0.000205
521 0.000203
522 0.000205
523 0.000209
524 0.000210
525 0.000215
526 0.000213
527 0.000215
528 0.000224
529 0.000224
530 0.000239
531 0.000256
532 0.000260
533 0.000261
534 0.000259
535 0.000253
536 0.000241
537 0.000237
538 0.000240
539 0.000236
540 0.000234
541 0.000233
542 0.000228
543 0.000227
544 0.000220
545 0.000222
546 0.000230
547 0.000231
548 0.000230
549 0.000218
550 0.000212
551 0.000199
552 0.000194
553 0.000190
554 0.000190
555 0.000194
556 0.000198
557 0.000204
558 0.000207
559 0.000209
560 0.000213
561 0.000212
562 0.000216
563 0.000219
564 0.000218
565 0.000215
566 0.000210
567 0.000201
568 0.000195
569 0.000188
570 0.000181
571 0.000184
572 0.000180
573 0.000176
574 0.000173
575 0.000169
576 0.000168
577 0.000168
578 0.000164
579 0.000153
580 0.000143
581 0.000143
582 0.000147
583 0.000153
584 0.000158
585 0.000166
586 0.000171
587 0.000168
588 0.000175
589 0.000182
590 0.000195
591 0.000205
592 0.000208
593 0.000209
594 0.000205
595 0.000195
596 0.000187
597 0.000183
598 0.000179
599 0.000182
600 0.000194
601 0.000200
602 0.000202
603 0.000205
604 0.000212
605 0.000216
606 0.000215
607 0.000213
608 0.000208
609 0.000202
610 0.000192
611 0.000184
612 0.000174
613 0.000168
614 0.000169
615 0.000172
616 0.000171
617 0.000164
618 0.000167
619 0.000173
620 0.000179
621 0.000180
622 0.000181
623 0.000184
624 0.000189
625 0.000190
626 0.000186
627 0.000180
628 0.000176
629 0.000174
630 0.000173
631 0.000182
632 0.000192
633 0.000197
634 0.000188
635 0.000183
636 0.000177
637 0.000166
638 0.000161
639 0.000160
640 0.000159
641 0.000160
642 0.000149
643 0.000138
644 0.000126
645 0.000108
646 0.000098
647 0.000100
648 0.000112
649 0.000125
650 0.000135
651 0.000145
652 0.000154
653 0.000159
654 0.000162
655 0.000163
656 0.000166
657 0.000175
658 0.000184
659 0.000184
660 0.000183
661 0.000177
662 0.000173
663 0.000165
664 0.000161
665 0.000159
666 0.000156
667 0.000150
668 0.000151
669 0.000154
670 0.000157
671 0.000166
672 0.000168
673 0.000168
674 0.000167
675 0.000167
676 0.000165
677 0.000165
678 0.000164
679 0.000161
680 0.000159
681 0.000158
682 0.000159
683 0.000160
684 0.000162
685 0.000167
686 0.000174
687 0.000179
688 0.000184
689 0.000187
690 0.000192
691 0.000191
692 0.000187
693 0.000184
694 0.000178
695 0.000172
696 0.000177
697 0.000174
698 0.000176
699 0.000181
700 0.000185
701 0.000191
702 0.000191
703 0.000193
704 0.000189
705 0.000182
706 0.000175
707 0.000166
708 0.000165
709 0.000162
710 0.000155
711 0.000155
712 0.000157
713 0.000163
714 0.000169
715 0.000171
716 0.000179
717 0.000179
718 0.000175
719 0.000172
720 0.000166
721 0.000165
722 0.000162
723 0.000157
724 0.000154
725 0.000145
726 0.000137
727 0.000136
728 0.000137
729 0.000139
730 0.000140
731 0.000140
732 0.000140
733 0.000137
734 0.000135
735 0.000125
736 0.000119
737 0.000113
738 0.000113
739 0.000115
740 0.000113
741 0.000110
742 0.000100
743 0.000093
744 0.000080
745 0.000073
746 0.000069
747 0.000063
748 0.000059
749 0.000057
750 0.000052
751 0.000046
752 0.000046
753 0.000042
754 0.000044
755 0.000048
756 0.000049
757 0.000048
758 0.000047
759 0.000045
760 0.000041
761 0.000036
762 0.000037
763 0.000037
764 0.000039
765 0.000043
766 0.000038
767 0.000034
768 0.000028
769 0.000024
770 0.000028
771 0.000035
772 0.000042
773 0.000047
774 0.000046
775 0.000045
776 0.000047
777 0.000048
778 0.000050
779 0.000049
780 0.000047
781 0.000045
782 0.000042
783 0.000043
784 0.000046
785 0.000051
786 0.000057
787 0.000063
788 0.000074
789 0.000083
790 0.000086
791 0.000091
792 0.000093
793 0.000092
794 0.000089
795 0.000085
796 0.000080
797 0.000074
798 0.000064
799 0.000056
800 0.000051
801 0.000044
802 0.000038
803 0.000035
804 0.000034
805 0.000036
806 0.000042
807 0.000049
808 0.000052
809 0.000051
