# i correlation
1 0.001903
2 0.001817
3 0.001748
4 0.001684
5 0.001634
6 0.001597
7 0.001549
8 0.001518
9 0.001485
10 0.001456
11 0.001426
12 0.001391
13 0.001362
14 0.001326
15 0.001289
16 0.001257
17 0.001233
18 0.001218
19 0.001199
20 0.001177
21 0.001152
22 0.001146
23 0.001137
24 0.001118
25 0.001107
26 0.001089
27 0.001080
28 0.001063
29 0.001051
30 0.001037
31 0.001030
32 0.001036
33 0.001038
34 0.001022
35 0.001013
36 0.001013
37 0.001006
38 0.000997
39 0.000996
40 0.000995
41 0.000988
42 0.000983
43 0.000970
44 0.000956
45 0.000944
46 0.000932
47 0.000924
48 0.000920
49 0.000912
50 0.000908
51 0.000903
52 0.000895
53 0.000884
54 0.000871
55 0.000860
56 0.000847
57 0.000835
58 0.000827
59 0.000824
60 0.000821
61 0.000812
62 0.000801
63 0.000810
64 0.000824
65 0.000827
66 0.000825
67 0.000832
68 0.000836
69 0.000837
70 0.000834
71 0.000833
72 0.000829
73 0.000832
74 0.000845
75 0.000852
76 0.000861
77 0.000859
78 0.000858
79 0.000847
80 0.000845
81 0.000839
82 0.000829
83 0.000815
84 0.000803
85 0.000794
86 0.000788
87 0.000799
88 0.000803
89 0.000807
90 0.000818
91 0.000822
92 0.000809
93 0.000801
94 0.000794
95 0.000785
96 0.000779
97 0.000767
98 0.000764
99 0.000768
100 0.000770
101 0.000770
102 0.000761
103 0.000766
104 0.000756
105 0.000744
106 0.000742
107 0.000750
108 0.000761
109 0.000769
110 0.000768
111 0.000770
112 0.000764
113 0.000777
114 0.000784
115 0.000796
116 0.000810
117 0.000811
118 0.000809
119 0.000818
120 0.000823
121 0.000823
122 0.000823
123 0.000813
124 0.000808
125 0.000804
126 0.000805
127 0.000807
128 0.000804
129 0.000791
130 0.000792
131 0.000800
132 0.000804
133 0.000807
134 0.000800
135 0.000806
136 0.000802
137 0.000790
138 0.000781
139 0.000775
140 0.000766
141 0.000768
142 0.000764
143 0.000765
144 0.000766
145 0.000766
146 0.000772
147 0.000772
148 0.000762
149 0.000766
150 0.000768
151 0.000763
152 0.000759
153 0.000748
154 0.000736
155 0.000730
156 0.000721
157 0.000704
158 0.000697
159 0.000681
160 0.000676
161 0.000667
162 0.000661
163 0.000660
164 0.000650
165 0.000642
166 0.000635
167 0.000632
168 0.000632
169 0.000631
170 0.000624
171 0.000627
172 0.000621
173 0.000605
174 0.000593
175 0.000598
176 0.000599
177 0.000598
178 0.000598
179 0.000606
180 0.000602
181 0.000598
182 0.000597
183 0.000594
184 0.000596
185 0.000606
186 0.000607
187 0.000613
188 0.000612
189 0.000619
190 0.000615
191 0.000610
192 0.000609
193 0.000608
194 0.000609
195 0.000608
196 0.000601
197 0.000585
198 0.000588
199 0.000583
200 0.000587
201 0.000582
202 0.000584
203 0.000579
204 0.000578
205 0.000563
206 0.000556
207 0.000557
208 0.000560
209 0.000561
210 0.000561
211 0.000571
212 0.000586
213 0.000592
214 0.000587
215 0.000582
216 0.000579
217 0.000567
218 0.000556
219 0.000548
220 0.000537
221 0.000527
222 0.000523
223 0.000533
224 0.000541
225 0.000552
226 0.000569
227 0.000572
228 0.000562
229 0.000560
230 0.000544
231 0.000533
232 0.000526
233 0.000503
234 0.000496
235 0.000509
236 0.000515
237 0.000521
238 0.000518
239 0.000522
240 0.000524
241 0.000533
242 0.000540
243 0.000543
244 0.000545
245 0.000556
246 0.000571
247 0.000572
248 0.000573
249 0.000576
250 0.000574
251 0.000571
252 0.000574
253 0.000575
254 0.000574
255 0.000564
256 0.000553
257 0.000540
258 0.000542
259 0.000545
260 0.000538
261 0.000543
262 0.000554
263 0.000573
264 0.000583
265 0.000589
266 0.000600
267 0.000615
268 0.000634
269 0.000649
270 0.000652
271 0.000661
272 0.000673
273 0.000670
274 0.000676
275 0.000672
276 0.000670
277 0.000673
278 0.000673
279 0.000672
280 0.000668
281 0.000661
282 0.000660
283 0.000659
284 0.000639
285 0.000629
286 0.000619
287 0.000606
288 0.000595
289 0.000583
290 0.000564
291 0.000545
292 0.000539
293 0.000531
294 0.000513
295 0.000512
296 0.000509
297 0.000501
298 0.000495
299 0.000486
300 0.000476
301 0.000478
302 0.000481
303 0.000477
304 0.000468
305 0.000463
306 0.000453
307 0.000451
308 0.000435
309 0.000416
310 0.000403
311 0.000394
312 0.000380
313 0.000370
314 0.000364
315 0.000363
316 0.000361
317 0.000359
318 0.000348
319 0.000339
320 0.000331
321 0.000325
322 0.000326
323 0.000306
324 0.000298
325 0.000290
326 0.000296
327 0.000298
328 0.000302
329 0.000302
330 0.000294
331 0.000283
332 0.000284
333 0.000276
334 0.000281
335 0.000287
336 0.000275
337 0.000271
338 0.000267
339 0.000277
340 0.000287
341 0.000287
342 0.000290
343 0.000293
344 0.000293
345 0.000304
346 0.000307
347 0.000309
348 0.000303
349 0.000293
350 0.000292
351 0.000282
352 0.000276
353 0.000273
354 0.000261
355 0.000246
356 0.000247
357 0.000254
358 0.000254
359 0.000251
360 0.000245
361 0.000238
362 0.000246
363 0.000251
364 0.000254
365 0.000254
366 0.000253
367 0.000263
368 0.000265
369 0.000266
370 0.000265
371 0.000255
372 0.000245
373 0.000238
374 0.000232
375 0.000235
376 0.000239
377 0.000237
378 0.000238
379 0.000238
380 0.000232
381 0.000235
382 0.000249
383 0.000247
384 0.000245
385 0.000255
386 0.000251
387 0.000257
388 0.000252
389 0.000258
390 0.000257
391 0.000259
392 0.000258
393 0.000255
394 0.000248
395 0.000246
396 0.000236
397 0.000220
398 0.000212
399 0.000206
400 0.000200
401 0.000196
402 0.000197
403 0.000198
404 0.000202
405 0.000203
406 0.000202
407 0.000201
408 0.000197
409 0.000198
410 0.000197
411 0.000201
412 0.000202
413 0.000195
414 0.000202
415 0.000207
416 0.000212
417 0.000217
418 0.000223
419 0.000219
420 0.000213
421 0.000207
422 0.000204
423 0.000199
424 0.000192
425 0.000183
426 0.000169
427 0.000164
428 0.000166
429 0.000172
430 0.000182
431 0.000181
432 0.000169
433 0.000167
434 0.000162
435 0.000160
436 0.000150
437 0.000142
438 0.000136
439 0.000129
440 0.000114
441 0.000103
442 0.000102
443 0.000100
444 0.000091
445 0.000075
446 0.000065
447 0.000055
448 0.000046
449 0.000036
450 0.000026
451 0.000025
452 0.000026
453 0.000032
454 0.000041
455 0.000049
456 0.000059
457 0.000065
458 0.000072
459 0.000073
460 0.000076
461 0.000074
462 0.000071
463 0.000071
464 0.000080
465 0.000086
466 0.000097
467 0.000110
468 0.000113
469 0.000106
470 0.000100
471 0.000091
472 0.000090
473 0.000085
474 0.000080
475 0.000088
476 0.000092
477 0.000096
478 0.000107
479 0.000104
480 0.000102
481 0.000105
482 0.000115
483 0.000122
484 0.000131
485 0.000139
486 0.000140
487 0.000139
488 0.000139
489 0.000140
490 0.000145
491 0.000151
492 0.000154
493 0.000158
494 0.000164
495 0.000176
496 0.000186
497 0.000194
498 0.000208
499 0.000214
500 0.000219
501 0.000219
502 0.000219
503 0.000211
504 0.000209
505 0.000212
506 0.000212
507 0.000220
508 0.000227
509 0.000237
510 0.000247
511 0.000254
512 0.000250
513 0.000248
514 0.000244
515 0.000236
516 0.000227
517 0.000222
518 0.000226
519 0.000230
520 0.000236
521 0.000232
522 0.000228
523 0.000218
524 0.000216
525 0.000216
526 0.000207
527 0.000200
528 0.000197
529 0.000195
530 0.000194
531 0.000194
532 0.000189
533 0.000186
534 0.000194
535 0.000193
536 0.000186
537 0.000182
538 0.000185
539 0.000183
540 0.000179
541 0.000171
542 0.000173
543 0.000166
544 0.000157
545 0.000155
546 0.000155
547 0.000160
548 0.000158
549 0.000157
550 0.000158
551 0.000159
552 0.000160
553 0.000163
554 0.000162
555 0.000162
556 0.000164
557 0.000167
558 0.000166
559 0.000160
560 0.000148
561 0.000141
562 0.000125
563 0.000107
564 0.000098
565 0.000087
566 0.000080
567 0.000068
568 0.000049
569 0.000034
570 0.000020
571 0.000008
572 -0.000005
573 -0.000019
574 -0.000029
575 -0.000038
576 -0.000037
577 -0.000045
578 -0.000054
579 -0.000059
580 -0.000068
581 -0.000082
582 -0.000093
583 -0.000096
584 -0.000099
585 -0.000095
586 -0.000095
587 -0.000096
588 -0.000095
589 -0.000090
590 -0.000090
591 -0.000081
592 -0.000087
593 -0.000084
594 -0.000082
595 -0.000081
596 -0.000090
597 -0.000091
598 -0.000082
599 -0.000071
600 -0.000072
601 -0.000067
602 -0.000068
603 -0.000062
604 -0.000062
605 -0.000056
606 -0.000049
607 -0.000045
608 -0.000036
609 -0.000021
610 -0.000013
611 -0.000009
612 -0.000007
613 -0.000008
614 0.000002
615 0.000008
616 0.000012
617 0.000018
618 0.000026
619 0.000028
620 0.000030
621 0.000032
622 0.000034
623 0.000038
624 0.000046
625 0.000052
626 0.000054
627 0.000064
628 0.000073
629 0.000078
630 0.000085
631 0.000095
632 0.000100
633 0.000101
634 0.000098
635 0.000098
636 0.000092
637 0.000091
638 0.000088
639 0.000081
640 0.000072
641 0.000074
642 0.000078
643 0.000080
644 0.000075
645 0.000075
646 0.000076
647 0.000069
648 0.000065
649 0.000059
650 0.000052
651 0.000044
652 0.000031
653 0.000027
654 0.000034
655 0.000039
656 0.000045
657 0.000051
658 0.000053
659 0.000053
660 0.000055
661 0.000048
662 0.000046
663 0.000040
664 0.000042
665 0.000048
666 0.000045
667 0.000051
668 0.000054
669 0.000051
670 0.000052
671 0.000045
672 0.000034
673 0.000024
674 0.000019
675 0.000014
676 0.000013
677 0.000011
678 0.000015
679 0.000016
680 0.000016
681 0.000016
682 0.000019
683 0.000022
684 0.000023
685 0.000019
686 0.000017
687 0.000015
688 0.000016
689 0.000020
690 0.000022
691 0.000026
692 0.000038
693 0.000039
694 0.000041
695 0.000034
696 0.000037
697 0.000038
698 0.000037
699 0.000034
700 0.000035
701 0.000040
702 0.000047
703 0.000050
704 0.000053
705 0.000056
706 0.000059
707 0.000063
708 0.000058
709 0.000061
710 0.000069
711 0.000073
712 0.000070
713 0.000068
714 0.000062
715 0.000054
716 0.000040
717 0.000030
718 0.000018
719 0.000013
720 0.000005
721 0.000004
722 -0.000000
723 -0.000001
724 -0.000003
725 -0.000007
726 -0.000017
727 -0.000030
728 -0.000039
729 -0.000041
730 -0.000046
731 -0.000055
732 -0.000053
733 -0.000053
734 -0.000048
735 -0.000046
736 -0.000042
737 -0.000037
738 -0.000032
739 -0.000034
740 -0.000038
741 -0.000044
742 -0.000050
743 -0.000053
744 -0.000055
745 -0.000053
746 -0.000050
747 -0.000049
748 -0.000053
749 -0.000054
750 -0.000055
751 -0.000051
752 -0.000045
753 -0.000044
754 -0.000043
755 -0.000042
756 -0.000042
757 -0.000035
758 -0.000029
759 -0.000022
760 -0.000017
761 -0.000013
762 -0.000011
763 -0.000006
764 -0.000003
765 0.000003
766 0.000005
767 -0.000001
768 -0.000001
769 -0.000005
770 -0.000000
771 0.000000
772 0.000006
773 0.000008
774 0.000017
775 0.000015
776 0.000017
777 0.000019
778 0.000023
779 0.000028
780 0.000032
781 0.000037
782 0.000036
783 0.000038
784 0.000038
785 0.000037
786 0.000038
787 0.000042
788 0.000046
789 0.000045
790 0.000039
791 0.000033
792 0.000034
793 0.000038
794 0.000040
795 0.000035
796 0.000031
797 0.000031
798 0.000028
799 0.000029
800 0.000030
801 0.000038
802 0.000044
803 0.000054
804 0.000056
805 0.000055
806 0.000053
807 0.000049
808 0.000044
809 0.000035
