# i correlation
1 0.001893
2 0.001777
3 0.001677
4 0.001593
5 0.001522
6 0.001461
7 0.001406
8 0.001365
9 0.001332
10 0.001299
11 0.001274
12 0.001248
13 0.001233
14 0.001225
15 0.001225
16 0.001227
17 0.001231
18 0.001230
19 0.001221
20 0.001212
21 0.001198
22 0.001183
23 0.001158
24 0.001140
25 0.001122
26 0.001113
27 0.001105
28 0.001091
29 0.001085
30 0.001073
31 0.001067
32 0.001058
33 0.001038
34 0.001028
35 0.001028
36 0.001027
37 0.001026
38 0.001022
39 0.001007
40 0.000997
41 0.000989
42 0.000988
43 0.000986
44 0.000977
45 0.000982
46 0.000975
47 0.000969
48 0.000965
49 0.000956
50 0.000945
51 0.000923
52 0.000920
53 0.000937
54 0.000943
55 0.000934
56 0.000930
57 0.000923
58 0.000911
59 0.000897
60 0.000892
61 0.000892
62 0.000895
63 0.000893
64 0.000896
65 0.000909
66 0.000908
67 0.000901
68 0.000886
69 0.000890
70 0.000911
71 0.000930
72 0.000955
73 0.000973
74 0.000995
75 0.001000
76 0.001003
77 0.000991
78 0.000978
79 0.000974
80 0.000969
81 0.000947
82 0.000934
83 0.000912
84 0.000878
85 0.000851
86 0.000832
87 0.000813
88 0.000809
89 0.000811
90 0.000813
91 0.000826
92 0.000821
93 0.000810
94 0.000815
95 0.000811
96 0.000814
97 0.000824
98 0.000825
99 0.000842
100 0.000861
101 0.000863
102 0.000858
103 0.000844
104 0.000830
105 0.000821
106 0.000810
107 0.000802
108 0.000800
109 0.000807
110 0.000811
111 0.000819
112 0.000829
113 0.000821
114 0.000811
115 0.000806
116 0.000801
117 0.000809
118 0.000815
119 0.000822
120 0.000831
121 0.000827
122 0.000822
123 0.000816
124 0.000802
125 0.000783
126 0.000763
127 0.000748
128 0.000733
129 0.000723
130 0.000709
131 0.000702
132 0.000704
133 0.000690
134 0.000667
135 0.000649
136 0.000665
137 0.000674
138 0.000671
139 0.000683
140 0.000689
141 0.000691
142 0.000695
143 0.000687
144 0.000683
145 0.000678
146 0.000666
147 0.000651
148 0.000642
149 0.000645
150 0.000640
151 0.000639
152 0.000643
153 0.000655
154 0.000658
155 0.000664
156 0.000669
157 0.000662
158 0.000660
159 0.000648
160 0.000625
161 0.000605
162 0.000602
163 0.000601
164 0.000602
165 0.000603
166 0.000602
167 0.000603
168 0.000616
169 0.000620
170 0.000631
171 0.000646
172 0.000657
173 0.000681
174 0.000705
175 0.000730
176 0.000735
177 0.000737
178 0.000730
179 0.000723
180 0.000717
181 0.000711
182 0.000709
183 0.000698
184 0.000679
185 0.000661
186 0.000654
187 0.000649
188 0.000657
189 0.000671
190 0.000685
191 0.000700
192 0.000702
193 0.000715
194 0.000722
195 0.000719
196 0.000703
197 0.000686
198 0.000673
199 0.000658
200 0.000642
201 0.000626
202 0.000612
203 0.000592
204 0.000553
205 0.000529
206 0.000516
207 0.000506
208 0.000500
209 0.000500
210 0.000500
211 0.000509
212 0.000524
213 0.000520
214 0.000511
215 0.000498
216 0.000497
217 0.000493
218 0.000489
219 0.000484
220 0.000475
221 0.000467
222 0.000462
223 0.000456
224 0.000453
225 0.000456
226 0.000444
227 0.000448
228 0.000466
229 0.000495
230 0.000528
231 0.000551
232 0.000562
233 0.000566
234 0.000565
235 0.000553
236 0.000538
237 0.000527
238 0.000522
239 0.000516
240 0.000506
241 0.000503
242 0.000505
243 0.000512
244 0.000517
245 0.000514
246 0.000502
247 0.000502
248 0.000504
249 0.000503
250 0.000506
251 0.000505
252 0.000505
253 0.000514
254 0.000524
255 0.000543
256 0.000555
257 0.000554
258 0.000541
259 0.000529
260 0.000510
261 0.000502
262 0.000498
263 0.000490
264 0.000489
265 0.000498
266 0.000503
267 0.000495
268 0.000492
269 0.000499
270 0.000502
271 0.000509
272 0.000515
273 0.000526
274 0.000528
275 0.000522
276 0.000509
277 0.000510
278 0.000495
279 0.000493
280 0.000487
281 0.000482
282 0.000487
283 0.000496
284 0.000498
285 0.000508
286 0.000510
287 0.000510
288 0.000500
289 0.000482
290 0.000473
291 0.000458
292 0.000444
293 0.000416
294 0.000403
295 0.000403
296 0.000401
297 0.000402
298 0.000401
299 0.000403
300 0.000408
301 0.000406
302 0.000413
303 0.000434
304 0.000448
305 0.000454
306 0.000454
307 0.000448
308 0.000439
309 0.000433
310 0.000428
311 0.000436
312 0.000446
313 0.000449
314 0.000450
315 0.000452
316 0.000439
317 0.000437
318 0.000440
319 0.000444
320 0.000449
321 0.000437
322 0.000432
323 0.000413
324 0.000397
325 0.000378
326 0.000368
327 0.000372
328 0.000368
329 0.000360
330 0.000365
331 0.000377
332 0.000384
333 0.000381
334 0.000384
335 0.000379
336 0.000367
337 0.000357
338 0.000348
339 0.000343
340 0.000338
341 0.000342
342 0.000357
343 0.000364
344 0.000385
345 0.000404
346 0.000421
347 0.000431
348 0.000444
349 0.000458
350 0.000460
351 0.000468
352 0.000471
353 0.000472
354 0.000475
355 0.000479
356 0.000479
357 0.000488
358 0.000480
359 0.000470
360 0.000447
361 0.000437
362 0.000423
363 0.000411
364 0.000401
365 0.000401
366 0.000396
367 0.000395
368 0.000403
369 0.000408
370 0.000411
371 0.000402
372 0.000392
373 0.000390
374 0.000398
375 0.000408
376 0.000417
377 0.000418
378 0.000411
379 0.000416
380 0.000412
381 0.000404
382 0.000395
383 0.000398
384 0.000407
385 0.000414
386 0.000420
387 0.000426
388 0.000421
389 0.000419
390 0.000404
391 0.000397
392 0.000390
393 0.000378
394 0.000375
395 0.000364
396 0.000350
397 0.000344
398 0.000336
399 0.000321
400 0.000321
401 0.000315
402 0.000301
403 0.000287
404 0.000274
405 0.000262
406 0.000256
407 0.000258
408 0.000258
409 0.000259
410 0.000251
411 0.000257
412 0.000253
413 0.000244
414 0.000238
415 0.000240
416 0.000237
417 0.000237
418 0.000244
419 0.000257
420 0.000264
421 0.000274
422 0.000290
423 0.000307
424 0.000319
425 0.000319
426 0.000313
427 0.000314
428 0.000321
429 0.000328
430 0.000326
431 0.000326
432 0.000313
433 0.000299
434 0.000279
435 0.000260
436 0.000252
437 0.000246
438 0.000237
439 0.000241
440 0.000239
441 0.000235
442 0.000226
443 0.000220
444 0.000224
445 0.000229
446 0.000241
447 0.000250
448 0.000263
449 0.000268
450 0.000272
451 0.000272
452 0.000264
453 0.000258
454 0.000264
455 0.000264
456 0.000263
457 0.000264
458 0.000261
459 0.000271
460 0.000288
461 0.000292
462 0.000299
463 0.000298
464 0.000307
465 0.000320
466 0.000327
467 0.000330
468 0.000332
469 0.000326
470 0.000305
471 0.000285
472 0.000265
473 0.000266
474 0.000274
475 0.000281
476 0.000286
477 0.000284
478 0.000276
479 0.000259
480 0.000246
481 0.000236
482 0.000223
483 0.000212
484 0.000204
485 0.000195
486 0.000188
487 0.000185
488 0.000180
489 0.000164
490 0.000148
491 0.000136
492 0.000116
493 0.000109
494 0.000113
495 0.000118
496 0.000127
497 0.000137
498 0.000147
499 0.000147
500 0.000150
501 0.000154
502 0.000158
503 0.000153
504 0.000141
505 0.000134
506 0.000113
507 0.000099
508 0.000080
509 0.000067
510 0.000058
511 0.000048
512 0.000040
513 0.000039
514 0.000039
515 0.000034
516 0.000036
517 0.000033
518 0.000034
519 0.000039
520 0.000051
521 0.000062
522 0.000074
523 0.000072
524 0.000072
525 0.000069
526 0.000066
527 0.000064
528 0.000059
529 0.000059
530 0.000071
531 0.000071
532 0.000072
533 0.000069
534 0.000062
535 0.000049
536 0.000041
537 0.000041
538 0.000045
539 0.000058
540 0.000075
541 0.000087
542 0.000104
543 0.000127
544 0.000137
545 0.000144
546 0.000147
547 0.000152
548 0.000165
549 0.000171
550 0.000172
551 0.000169
552 0.000159
553 0.000147
554 0.000137
555 0.000119
556 0.000118
557 0.000114
558 0.000114
559 0.000127
560 0.000142
561 0.000151
562 0.000151
563 0.000147
564 0.000141
565 0.000134
566 0.000127
567 0.000122
568 0.000120
569 0.000119
570 0.000118
571 0.000108
572 0.000097
573 0.000089
574 0.000082
575 0.000089
576 0.000093
577 0.000103
578 0.000108
579 0.000110
580 0.000107
581 0.000102
582 0.000087
583 0.000071
584 0.000059
585 0.000052
586 0.000053
587 0.000054
588 0.000059
589 0.000056
590 0.000056
591 0.000053
592 0.000051
593 0.000050
594 0.000034
595 0.000024
596 0.000030
597 0.000032
598 0.000033
599 0.000041
600 0.000047
601 0.000052
602 0.000056
603 0.000054
604 0.000056
605 0.000056
606 0.000057
607 0.000057
608 0.000048
609 0.000040
610 0.000035
611 0.000027
612 0.000026
613 0.000028
614 0.000034
615 0.000026
616 0.000019
617 0.000023
618 0.000035
619 0.000042
620 0.000044
621 0.000042
622 0.000042
623 0.000047
624 0.000058
625 0.000055
626 0.000050
627 0.000046
628 0.000041
629 0.000028
630 0.000026
631 0.000024
632 0.000021
633 0.000025
634 0.000034
635 0.000033
636 0.000029
637 0.000029
638 0.000030
639 0.000039
640 0.000047
641 0.000058
642 0.000076
643 0.000082
644 0.000087
645 0.000081
646 0.000079
647 0.000069
648 0.000063
649 0.000070
650 0.000081
651 0.000090
652 0.000087
653 0.000092
654 0.000091
655 0.000096
656 0.000101
657 0.000103
658 0.000100
659 0.000099
660 0.000108
661 0.000115
662 0.000126
663 0.000132
664 0.000128
665 0.000117
666 0.000124
667 0.000123
668 0.000122
669 0.000122
670 0.000121
671 0.000122
672 0.000125
673 0.000129
674 0.000128
675 0.000126
676 0.000123
677 0.000122
678 0.000124
679 0.000128
680 0.000129
681 0.000127
682 0.000126
683 0.000114
684 0.000108
685 0.000095
686 0.000083
687 0.000077
688 0.000078
689 0.000076
690 0.000082
691 0.000085
692 0.000091
693 0.000092
694 0.000090
695 0.000094
696 0.000104
697 0.000110
698 0.000121
699 0.000130
700 0.000138
701 0.000145
702 0.000144
703 0.000143
704 0.000143
705 0.000137
706 0.000130
707 0.000125
708 0.000118
709 0.000114
710 0.000114
711 0.000116
712 0.000117
713 0.000119
714 0.000119
715 0.000123
716 0.000132
717 0.000136
718 0.000144
719 0.000155
720 0.000158
721 0.000162
722 0.000161
723 0.000158
724 0.000158
725 0.000157
726 0.000156
727 0.000153
728 0.000151
729 0.000146
730 0.000144
731 0.000150
732 0.000157
733 0.000167
734 0.000175
735 0.000183
736 0.000194
737 0.000197
738 0.000196
739 0.000198
740 0.000197
741 0.000194
742 0.000191
743 0.000189
744 0.000185
745 0.000180
746 0.000181
747 0.000167
748 0.000154
749 0.000152
750 0.000151
751 0.000150
752 0.000147
753 0.000142
754 0.000141
755 0.000144
756 0.000145
757 0.000149
758 0.000142
759 0.000139
760 0.000138
761 0.000139
762 0.000139
763 0.000140
764 0.000142
765 0.000135
766 0.000127
767 0.000117
768 0.000111
769 0.000097
770 0.000089
771 0.000084
772 0.000083
773 0.000090
774 0.000092
775 0.000089
776 0.000085
777 0.000085
778 0.000091
779 0.000101
780 0.000106
781 0.000113
782 0.000127
783 0.000130
784 0.000130
785 0.000120
786 0.000116
787 0.000115
788 0.000114
789 0.000110
790 0.000102
791 0.000092
792 0.000090
793 0.000097
794 0.000098
795 0.000103
796 0.000100
797 0.000096
798 0.000094
799 0.000098
800 0.000099
801 0.000099
802 0.000097
803 0.000094
804 0.000091
805 0.000085
806 0.000081
807 0.000079
808 0.000080
809 0.000086
