# i correlation
1 0.001791
2 0.001670
3 0.001559
4 0.001470
5 0.001399
6 0.001342
7 0.001308
8 0.001267
9 0.001230
10 0.001185
11 0.001148
12 0.001122
13 0.001103
14 0.001109
15 0.001107
16 0.001102
17 0.001085
18 0.001064
19 0.001042
20 0.001014
21 0.000998
22 0.000981
23 0.000967
24 0.000954
25 0.000940
26 0.000924
27 0.000913
28 0.000901
29 0.000889
30 0.000889
31 0.000884
32 0.000863
33 0.000845
34 0.000837
35 0.000827
36 0.000820
37 0.000797
38 0.000781
39 0.000769
40 0.000767
41 0.000764
42 0.000772
43 0.000782
44 0.000784
45 0.000787
46 0.000788
47 0.000789
48 0.000785
49 0.000776
50 0.000770
51 0.000759
52 0.000747
53 0.000741
54 0.000730
55 0.000711
56 0.000694
57 0.000680
58 0.000667
59 0.000667
60 0.000673
61 0.000688
62 0.000693
63 0.000691
64 0.000680
65 0.000681
66 0.000671
67 0.000664
68 0.000659
69 0.000646
70 0.000644
71 0.000647
72 0.000646
73 0.000641
74 0.000641
75 0.000645
76 0.000640
77 0.000639
78 0.000635
79 0.000633
80 0.000636
81 0.000638
82 0.000641
83 0.000642
84 0.000647
85 0.000643
86 0.000636
87 0.000631
88 0.000620
89 0.000605
90 0.000585
91 0.000576
92 0.000578
93 0.000580
94 0.000591
95 0.000607
96 0.000622
97 0.000617
98 0.000598
99 0.000586
100 0.000576
101 0.000561
102 0.000547
103 0.000549
104 0.000542
105 0.000536
106 0.000517
107 0.000502
108 0.000485
109 0.000475
110 0.000465
111 0.000460
112 0.000466
113 0.000458
114 0.000455
115 0.000437
116 0.000423
117 0.000403
118 0.000379
119 0.000377
120 0.000363
121 0.000366
122 0.000369
123 0.000381
124 0.000393
125 0.000408
126 0.000420
127 0.000432
128 0.000438
129 0.000444
130 0.000460
131 0.000467
132 0.000450
133 0.000443
134 0.000450
135 0.000468
136 0.000478
137 0.000487
138 0.000486
139 0.000487
140 0.000487
141 0.000480
142 0.000483
143 0.000493
144 0.000506
145 0.000507
146 0.000499
147 0.000481
148 0.000474
149 0.000479
150 0.000494
151 0.000510
152 0.000530
153 0.000529
154 0.000533
155 0.000528
156 0.000516
157 0.000501
158 0.000491
159 0.000487
160 0.000484
161 0.000480
162 0.000468
163 0.000460
164 0.000463
165 0.000478
166 0.000489
167 0.000508
168 0.000533
169 0.000556
170 0.000567
171 0.000563
172 0.000551
173 0.000534
174 0.000520
175 0.000512
176 0.000504
177 0.000509
178 0.000511
179 0.000522
180 0.000526
181 0.000526
182 0.000530
183 0.000523
184 0.000530
185 0.000546
186 0.000568
187 0.000586
188 0.000596
189 0.000589
190 0.000582
191 0.000573
192 0.000580
193 0.000585
194 0.000590
195 0.000598
196 0.000620
197 0.000632
198 0.000639
199 0.000645
200 0.000656
201 0.000661
202 0.000650
203 0.000641
204 0.000635
205 0.000629
206 0.000629
207 0.000627
208 0.000621
209 0.000607
210 0.000595
211 0.000582
212 0.000567
213 0.000559
214 0.000550
215 0.000554
216 0.000549
217 0.000546
218 0.000544
219 0.000540
220 0.000526
221 0.000512
222 0.000508
223 0.000495
224 0.000475
225 0.000451
226 0.000441
227 0.000429
228 0.000421
229 0.000417
230 0.000412
231 0.000410
232 0.000412
233 0.000412
234 0.000409
235 0.000398
236 0.000389
237 0.000367
238 0.000354
239 0.000344
240 0.000351
241 0.000345
242 0.000337
243 0.000336
244 0.000331
245 0.000314
246 0.000299
247 0.000297
248 0.000304
249 0.000328
250 0.000352
251 0.000367
252 0.000368
253 0.000365
254 0.000367
255 0.000376
256 0.000381
257 0.000383
258 0.000371
259 0.000351
260 0.000335
261 0.000325
262 0.000319
263 0.000320
264 0.000330
265 0.000342
266 0.000348
267 0.000341
268 0.000336
269 0.000331
270 0.000317
271 0.000305
272 0.000290
273 0.000289
274 0.000297
275 0.000296
276 0.000300
277 0.000292
278 0.000288
279 0.000284
280 0.000300
281 0.000323
282 0.000344
283 0.000361
284 0.000367
285 0.000373
286 0.000367
287 0.000358
288 0.000356
289 0.000353
290 0.000355
291 0.000361
292 0.000361
293 0.000362
294 0.000362
295 0.000354
296 0.000339
297 0.000328
298 0.000316
299 0.000304
300 0.000294
301 0.000285
302 0.000276
303 0.000274
304 0.000278
305 0.000282
306 0.000279
307 0.000276
308 0.000265
309 0.000258
310 0.000252
311 0.000245
312 0.000242
313 0.000235
314 0.000228
315 0.000222
316 0.000222
317 0.000232
318 0.000236
319 0.000237
320 0.000235
321 0.000229
322 0.000227
323 0.000231
324 0.000233
325 0.000230
326 0.000218
327 0.000211
328 0.000207
329 0.000207
330 0.000205
331 0.000197
332 0.000187
333 0.000181
334 0.000179
335 0.000184
336 0.000194
337 0.000207
338 0.000223
339 0.000236
340 0.000244
341 0.000254
342 0.000249
343 0.000244
344 0.000239
345 0.000232
346 0.000224
347 0.000222
348 0.000221
349 0.000222
350 0.000230
351 0.000237
352 0.000243
353 0.000251
354 0.000247
355 0.000245
356 0.000245
357 0.000251
358 0.000247
359 0.000251
360 0.000249
361 0.000239
362 0.000219
363 0.000204
364 0.000197
365 0.000206
366 0.000213
367 0.000213
368 0.000209
369 0.000200
370 0.000196
371 0.000189
372 0.000185
373 0.000192
374 0.000200
375 0.000207
376 0.000215
377 0.000227
378 0.000242
379 0.000260
380 0.000279
381 0.000288
382 0.000288
383 0.000286
384 0.000290
385 0.000288
386 0.000290
387 0.000296
388 0.000304
389 0.000298
390 0.000293
391 0.000293
392 0.000296
393 0.000306
394 0.000312
395 0.000328
396 0.000334
397 0.000347
398 0.000351
399 0.000359
400 0.000375
401 0.000386
402 0.000392
403 0.000397
404 0.000411
405 0.000416
406 0.000408
407 0.000402
408 0.000393
409 0.000386
410 0.000376
411 0.000376
412 0.000366
413 0.000362
414 0.000356
415 0.000352
416 0.000353
417 0.000354
418 0.000364
419 0.000380
420 0.000405
421 0.000421
422 0.000429
423 0.000423
424 0.000425
425 0.000430
426 0.000431
427 0.000432
428 0.000427
429 0.000422
430 0.000420
431 0.000408
432 0.000393
433 0.000375
434 0.000369
435 0.000368
436 0.000375
437 0.000373
438 0.000362
439 0.000351
440 0.000338
441 0.000329
442 0.000317
443 0.000316
444 0.000324
445 0.000329
446 0.000328
447 0.000322
448 0.000320
449 0.000315
450 0.000319
451 0.000320
452 0.000324
453 0.000328
454 0.000327
455 0.000321
456 0.000313
457 0.000305
458 0.000295
459 0.000286
460 0.000283
461 0.000287
462 0.000293
463 0.000296
464 0.000297
465 0.000288
466 0.000286
467 0.000283
468 0.000280
469 0.000283
470 0.000287
471 0.000287
472 0.000301
473 0.000308
474 0.000319
475 0.000324
476 0.000332
477 0.000338
478 0.000339
479 0.000345
480 0.000354
481 0.000358
482 0.000361
483 0.000364
484 0.000367
485 0.000365
486 0.000361
487 0.000362
488 0.000359
489 0.000355
490 0.000352
491 0.000361
492 0.000364
493 0.000367
494 0.000362
495 0.000359
496 0.000351
497 0.000348
498 0.000339
499 0.000332
500 0.000326
501 0.000307
502 0.000297
503 0.000284
504 0.000279
505 0.000276
506 0.000270
507 0.000277
508 0.000275
509 0.000277
510 0.000275
511 0.000282
512 0.000282
513 0.000278
514 0.000279
515 0.000269
516 0.000272
517 0.000269
518 0.000266
519 0.000266
520 0.000266
521 0.000279
522 0.000292
523 0.000309
524 0.000323
525 0.000339
526 0.000340
527 0.000334
528 0.000328
529 0.000315
530 0.000303
531 0.000303
532 0.000299
533 0.000297
534 0.000296
535 0.000301
536 0.000302
537 0.000300
538 0.000305
539 0.000318
540 0.000333
541 0.000336
542 0.000339
543 0.000342
544 0.000343
545 0.000339
546 0.000331
547 0.000330
548 0.000331
549 0.000334
550 0.000333
551 0.000333
552 0.000333
553 0.000332
554 0.000330
555 0.000333
556 0.000336
557 0.000342
558 0.000348
559 0.000356
560 0.000354
561 0.000356
562 0.000355
563 0.000343
564 0.000333
565 0.000328
566 0.000326
567 0.000329
568 0.000331
569 0.000341
570 0.000356
571 0.000362
572 0.000369
573 0.000383
574 0.000399
575 0.000416
576 0.000420
577 0.000407
578 0.000393
579 0.000385
580 0.000380
581 0.000377
582 0.000371
583 0.000367
584 0.000360
585 0.000369
586 0.000376
587 0.000377
588 0.000383
589 0.000394
590 0.000398
591 0.000400
592 0.000404
593 0.000410
594 0.000408
595 0.000401
596 0.000395
597 0.000393
598 0.000391
599 0.000396
600 0.000403
601 0.000410
602 0.000411
603 0.000416
604 0.000424
605 0.000430
606 0.000434
607 0.000438
608 0.000440
609 0.000440
610 0.000439
611 0.000439
612 0.000437
613 0.000432
614 0.000432
615 0.000429
616 0.000437
617 0.000447
618 0.000452
619 0.000453
620 0.000455
621 0.000466
622 0.000473
623 0.000481
624 0.000487
625 0.000484
626 0.000482
627 0.000476
628 0.000476
629 0.000472
630 0.000467
631 0.000460
632 0.000450
633 0.000442
634 0.000429
635 0.000428
636 0.000434
637 0.000435
638 0.000427
639 0.000414
640 0.000401
641 0.000384
642 0.000370
643 0.000357
644 0.000347
645 0.000335
646 0.000322
647 0.000314
648 0.000313
649 0.000308
650 0.000303
651 0.000308
652 0.000314
653 0.000311
654 0.000313
655 0.000302
656 0.000295
657 0.000286
658 0.000279
659 0.000268
660 0.000255
661 0.000247
662 0.000237
663 0.000225
664 0.000213
665 0.000203
666 0.000195
667 0.000193
668 0.000191
669 0.000194
670 0.000200
671 0.000202
672 0.000197
673 0.000196
674 0.000193
675 0.000193
676 0.000193
677 0.000192
678 0.000190
679 0.000195
680 0.000196
681 0.000193
682 0.000189
683 0.000182
684 0.000177
685 0.000179
686 0.000176
687 0.000172
688 0.000170
689 0.000173
690 0.000170
691 0.000163
692 0.000158
693 0.000152
694 0.000149
695 0.000147
696 0.000147
697 0.000149
698 0.000151
699 0.000150
700 0.000156
701 0.000167
702 0.000172
703 0.000173
704 0.000178
705 0.000177
706 0.000172
707 0.000167
708 0.000164
709 0.000158
710 0.000161
711 0.000155
712 0.000147
713 0.000136
714 0.000120
715 0.000101
716 0.000086
717 0.000080
718 0.000079
719 0.000076
720 0.000077
721 0.000072
722 0.000065
723 0.000059
724 0.000054
725 0.000056
726 0.000059
727 0.000063
728 0.000064
729 0.000065
730 0.000059
731 0.000054
732 0.000053
733 0.000050
734 0.000043
735 0.000042
736 0.000036
737 0.000027
738 0.000019
739 0.000012
740 0.000012
741 0.000018
742 0.000025
743 0.000033
744 0.000042
745 0.000048
746 0.000047
747 0.000048
748 0.000047
749 0.000046
750 0.000048
751 0.000047
752 0.000048
753 0.000045
754 0.000047
755 0.000056
756 0.000059
757 0.000066
758 0.000067
759 0.000064
760 0.000065
761 0.000065
762 0.000068
763 0.000070
764 0.000068
765 0.000066
766 0.000062
767 0.000056
768 0.000055
769 0.000053
770 0.000052
771 0.000056
772 0.000065
773 0.000073
774 0.000076
775 0.000081
776 0.000087
777 0.000091
778 0.000097
779 0.000104
780 0.000110
781 0.000119
782 0.000127
783 0.000128
784 0.000125
785 0.000128
786 0.000132
787 0.000136
788 0.000143
789 0.000143
790 0.000143
791 0.000142
792 0.000139
793 0.000138
794 0.000138
795 0.000135
796 0.000131
797 0.000133
798 0.000133
799 0.000126
800 0.000126
801 0.000125
802 0.000127
803 0.000130
804 0.000137
805 0.000147
806 0.000149
807 0.000150
808 0.000151
809 0.000152
