# i correlation
1 0.002044
2 0.001942
3 0.001858
4 0.001769
5 0.001698
6 0.001647
7 0.001608
8 0.001581
9 0.001549
10 0.001533
11 0.001518
12 0.001494
13 0.001471
14 0.001447
15 0.001425
16 0.001410
17 0.001383
18 0.001363
19 0.001348
20 0.001337
21 0.001323
22 0.001310
23 0.001302
24 0.001294
25 0.001288
26 0.001278
27 0.001265
28 0.001256
29 0.001251
30 0.001246
31 0.001235
32 0.001234
33 0.001244
34 0.001248
35 0.001246
36 0.001252
37 0.001254
38 0.001255
39 0.001245
40 0.001249
41 0.001260
42 0.001256
43 0.001247
44 0.001240
45 0.001216
46 0.001199
47 0.001182
48 0.001163
49 0.001148
50 0.001133
51 0.001121
52 0.001130
53 0.001139
54 0.001141
55 0.001137
56 0.001115
57 0.001104
58 0.001089
59 0.001070
60 0.001049
61 0.001036
62 0.001030
63 0.001020
64 0.001011
65 0.001001
66 0.000987
67 0.000970
68 0.000959
69 0.000965
70 0.000967
71 0.000973
72 0.000977
73 0.000979
74 0.000993
75 0.000996
76 0.000992
77 0.000992
78 0.000992
79 0.000981
80 0.000973
81 0.000955
82 0.000938
83 0.000923
84 0.000910
85 0.000908
86 0.000908
87 0.000913
88 0.000927
89 0.000928
90 0.000919
91 0.000903
92 0.000878
93 0.000858
94 0.000842
95 0.000843
96 0.000853
97 0.000855
98 0.000864
99 0.000870
100 0.000871
101 0.000874
102 0.000873
103 0.000865
104 0.000867
105 0.000867
106 0.000866
107 0.000881
108 0.000900
109 0.000901
110 0.000896
111 0.000899
112 0.000894
113 0.000897
114 0.000899
115 0.000906
116 0.000906
117 0.000916
118 0.000922
119 0.000931
120 0.000940
121 0.000947
122 0.000945
123 0.000941
124 0.000931
125 0.000913
126 0.000905
127 0.000891
128 0.000880
129 0.000860
130 0.000835
131 0.000832
132 0.000826
133 0.000832
134 0.000840
135 0.000846
136 0.000845
137 0.000846
138 0.000834
139 0.000813
140 0.000790
141 0.000774
142 0.000768
143 0.000771
144 0.000769
145 0.000776
146 0.000780
147 0.000776
148 0.000771
149 0.000763
150 0.000749
151 0.000731
152 0.000724
153 0.000719
154 0.000723
155 0.000729
156 0.000736
157 0.000743
158 0.000738
159 0.000742
160 0.000736
161 0.000729
162 0.000726
163 0.000705
164 0.000689
165 0.000667
166 0.000648
167 0.000637
168 0.000625
169 0.000624
170 0.000613
171 0.000601
172 0.000605
173 0.000608
174 0.000609
175 0.000620
176 0.000634
177 0.000641
178 0.000640
179 0.000636
180 0.000625
181 0.000608
182 0.000587
183 0.000569
184 0.000551
185 0.000537
186 0.000528
187 0.000529
188 0.000525
189 0.000534
190 0.000548
191 0.000569
192 0.000577
193 0.000597
194 0.000609
195 0.000627
196 0.000648
197 0.000667
198 0.000673
199 0.000665
200 0.000653
201 0.000640
202 0.000630
203 0.000623
204 0.000609
205 0.000604
206 0.000600
207 0.000593
208 0.000591
209 0.000594
210 0.000593
211 0.000594
212 0.000591
213 0.000599
214 0.000601
215 0.000605
216 0.000615
217 0.000615
218 0.000620
219 0.000621
220 0.000616
221 0.000622
222 0.000623
223 0.000625
224 0.000638
225 0.000649
226 0.000653
227 0.000648
228 0.000642
229 0.000635
230 0.000624
231 0.000633
232 0.000642
233 0.000655
234 0.000679
235 0.000684
236 0.000689
237 0.000688
238 0.000680
239 0.000673
240 0.000657
241 0.000642
242 0.000632
243 0.000624
244 0.000628
245 0.000636
246 0.000635
247 0.000639
248 0.000640
249 0.000645
250 0.000659
251 0.000662
252 0.000664
253 0.000664
254 0.000672
255 0.000689
256 0.000702
257 0.000707
258 0.000715
259 0.000715
260 0.000706
261 0.000695
262 0.000677
263 0.000664
264 0.000636
265 0.000610
266 0.000585
267 0.000565
268 0.000554
269 0.000544
270 0.000538
271 0.000542
272 0.000531
273 0.000510
274 0.000504
275 0.000488
276 0.000481
277 0.000467
278 0.000447
279 0.000421
280 0.000406
281 0.000404
282 0.000396
283 0.000401
284 0.000409
285 0.000419
286 0.000428
287 0.000432
288 0.000442
289 0.000439
290 0.000430
291 0.000438
292 0.000439
293 0.000438
294 0.000439
295 0.000450
296 0.000466
297 0.000489
298 0.000500
299 0.000510
300 0.000506
301 0.000502
302 0.000498
303 0.000501
304 0.000504
305 0.000497
306 0.000483
307 0.000471
308 0.000453
309 0.000439
310 0.000431
311 0.000432
312 0.000434
313 0.000438
314 0.000455
315 0.000459
316 0.000454
317 0.000455
318 0.000446
319 0.000428
320 0.000417
321 0.000402
322 0.000389
323 0.000378
324 0.000375
325 0.000369
326 0.000372
327 0.000375
328 0.000379
329 0.000397
330 0.000412
331 0.000418
332 0.000433
333 0.000449
334 0.000462
335 0.000477
336 0.000486
337 0.000492
338 0.000497
339 0.000500
340 0.000501
341 0.000505
342 0.000511
343 0.000515
344 0.000505
345 0.000507
346 0.000515
347 0.000512
348 0.000513
349 0.000515
350 0.000519
351 0.000525
352 0.000534
353 0.000535
354 0.000534
355 0.000532
356 0.000526
357 0.000523
358 0.000527
359 0.000530
360 0.000533
361 0.000521
362 0.000516
363 0.000502
364 0.000485
365 0.000478
366 0.000475
367 0.000482
368 0.000480
369 0.000481
370 0.000496
371 0.000510
372 0.000538
373 0.000564
374 0.000580
375 0.000599
376 0.000611
377 0.000607
378 0.000608
379 0.000600
380 0.000585
381 0.000565
382 0.000552
383 0.000550
384 0.000537
385 0.000518
386 0.000502
387 0.000491
388 0.000476
389 0.000460
390 0.000452
391 0.000448
392 0.000444
393 0.000447
394 0.000459
395 0.000459
396 0.000454
397 0.000437
398 0.000427
399 0.000407
400 0.000396
401 0.000387
402 0.000377
403 0.000377
404 0.000377
405 0.000381
406 0.000389
407 0.000392
408 0.000394
409 0.000395
410 0.000390
411 0.000389
412 0.000393
413 0.000393
414 0.000400
415 0.000408
416 0.000412
417 0.000423
418 0.000423
419 0.000427
420 0.000430
421 0.000425
422 0.000417
423 0.000410
424 0.000405
425 0.000404
426 0.000394
427 0.000382
428 0.000376
429 0.000366
430 0.000371
431 0.000382
432 0.000385
433 0.000384
434 0.000375
435 0.000354
436 0.000336
437 0.000321
438 0.000313
439 0.000299
440 0.000295
441 0.000296
442 0.000299
443 0.000298
444 0.000292
445 0.000299
446 0.000308
447 0.000325
448 0.000338
449 0.000352
450 0.000374
451 0.000391
452 0.000401
453 0.000421
454 0.000438
455 0.000455
456 0.000465
457 0.000479
458 0.000495
459 0.000502
460 0.000514
461 0.000533
462 0.000531
463 0.000533
464 0.000528
465 0.000528
466 0.000528
467 0.000529
468 0.000520
469 0.000511
470 0.000499
471 0.000496
472 0.000497
473 0.000487
474 0.000484
475 0.000482
476 0.000475
477 0.000461
478 0.000449
479 0.000449
480 0.000453
481 0.000457
482 0.000461
483 0.000473
484 0.000478
485 0.000470
486 0.000457
487 0.000451
488 0.000436
489 0.000425
490 0.000420
491 0.000425
492 0.000432
493 0.000441
494 0.000456
495 0.000480
496 0.000491
497 0.000495
498 0.000492
499 0.000491
500 0.000480
501 0.000475
502 0.000478
503 0.000474
504 0.000475
505 0.000481
506 0.000474
507 0.000479
508 0.000486
509 0.000495
510 0.000507
511 0.000512
512 0.000519
513 0.000520
514 0.000519
515 0.000519
516 0.000519
517 0.000514
518 0.000505
519 0.000501
520 0.000500
521 0.000498
522 0.000495
523 0.000486
524 0.000474
525 0.000461
526 0.000451
527 0.000440
528 0.000438
529 0.000440
530 0.000437
531 0.000434
532 0.000440
533 0.000445
534 0.000443
535 0.000443
536 0.000443
537 0.000435
538 0.000426
539 0.000426
540 0.000418
541 0.000416
542 0.000412
543 0.000400
544 0.000388
545 0.000389
546 0.000389
547 0.000386
548 0.000382
549 0.000383
550 0.000381
551 0.000386
552 0.000391
553 0.000400
554 0.000408
555 0.000419
556 0.000425
557 0.000429
558 0.000427
559 0.000421
560 0.000412
561 0.000401
562 0.000395
563 0.000390
564 0.000386
565 0.000380
566 0.000378
567 0.000380
568 0.000387
569 0.000406
570 0.000419
571 0.000426
572 0.000432
573 0.000435
574 0.000444
575 0.000447
576 0.000450
577 0.000446
578 0.000437
579 0.000436
580 0.000440
581 0.000431
582 0.000425
583 0.000420
584 0.000418
585 0.000424
586 0.000426
587 0.000430
588 0.000444
589 0.000452
590 0.000453
591 0.000455
592 0.000457
593 0.000454
594 0.000452
595 0.000448
596 0.000443
597 0.000431
598 0.000425
599 0.000419
600 0.000416
601 0.000414
602 0.000419
603 0.000424
604 0.000432
605 0.000436
606 0.000437
607 0.000437
608 0.000439
609 0.000445
610 0.000455
611 0.000459
612 0.000463
613 0.000458
614 0.000447
615 0.000436
616 0.000428
617 0.000426
618 0.000425
619 0.000423
620 0.000418
621 0.000412
622 0.000409
623 0.000404
624 0.000395
625 0.000377
626 0.000360
627 0.000351
628 0.000347
629 0.000352
630 0.000357
631 0.000362
632 0.000359
633 0.000356
634 0.000349
635 0.000343
636 0.000331
637 0.000323
638 0.000324
639 0.000322
640 0.000318
641 0.000318
642 0.000314
643 0.000316
644 0.000322
645 0.000318
646 0.000315
647 0.000310
648 0.000305
649 0.000297
650 0.000295
651 0.000293
652 0.000289
653 0.000276
654 0.000277
655 0.000272
656 0.000271
657 0.000273
658 0.000269
659 0.000270
660 0.000269
661 0.000265
662 0.000259
663 0.000252
664 0.000252
665 0.000248
666 0.000249
667 0.000245
668 0.000237
669 0.000229
670 0.000225
671 0.000217
672 0.000217
673 0.000210
674 0.000209
675 0.000210
676 0.000216
677 0.000221
678 0.000225
679 0.000225
680 0.000223
681 0.000221
682 0.000225
683 0.000221
684 0.000219
685 0.000217
686 0.000217
687 0.000214
688 0.000214
689 0.000209
690 0.000208
691 0.000204
692 0.000210
693 0.000217
694 0.000215
695 0.000213
696 0.000203
697 0.000195
698 0.000188
699 0.000180
700 0.000178
701 0.000180
702 0.000171
703 0.000168
704 0.000168
705 0.000176
706 0.000179
707 0.000184
708 0.000194
709 0.000201
710 0.000206
711 0.000208
712 0.000211
713 0.000210
714 0.000209
715 0.000206
716 0.000205
717 0.000211
718 0.000221
719 0.000229
720 0.000231
721 0.000230
722 0.000225
723 0.000224
724 0.000218
725 0.000212
726 0.000212
727 0.000211
728 0.000205
729 0.000206
730 0.000208
731 0.000210
732 0.000209
733 0.000211
734 0.000214
735 0.000219
736 0.000217
737 0.000216
738 0.000216
739 0.000214
740 0.000203
741 0.000193
742 0.000193
743 0.000192
744 0.000191
745 0.000191
746 0.000200
747 0.000208
748 0.000217
749 0.000223
750 0.000231
751 0.000234
752 0.000241
753 0.000242
754 0.000244
755 0.000243
756 0.000241
757 0.000241
758 0.000246
759 0.000249
760 0.000254
761 0.000256
762 0.000256
763 0.000254
764 0.000251
765 0.000252
766 0.000251
767 0.000254
768 0.000258
769 0.000257
770 0.000258
771 0.000260
772 0.000259
773 0.000253
774 0.000246
775 0.000242
776 0.000239
777 0.000229
778 0.000224
779 0.000219
780 0.000217
781 0.000217
782 0.000215
783 0.000214
784 0.000211
785 0.000207
786 0.000200
787 0.000196
788 0.000197
789 0.000192
790 0.000189
791 0.000188
792 0.000190
793 0.000191
794 0.000188
795 0.000187
796 0.000190
797 0.000192
798 0.000192
799 0.000188
800 0.000190
801 0.000191
802 0.000183
803 0.000182
804 0.000184
805 0.000183
806 0.000184
807 0.000186
808 0.000188
809 0.000190
