# i correlation
1 0.002227
2 0.002111
3 0.002009
4 0.001912
5 0.001826
6 0.001759
7 0.001723
8 0.001690
9 0.001656
10 0.001631
11 0.001614
12 0.001602
13 0.001605
14 0.001607
15 0.001594
16 0.001575
17 0.001564
18 0.001550
19 0.001533
20 0.001514
21 0.001494
22 0.001478
23 0.001461
24 0.001433
25 0.001404
26 0.001379
27 0.001356
28 0.001333
29 0.001305
30 0.001293
31 0.001282
32 0.001277
33 0.001267
34 0.001264
35 0.001242
36 0.001218
37 0.001202
38 0.001186
39 0.001177
40 0.001188
41 0.001194
42 0.001195
43 0.001211
44 0.001212
45 0.001217
46 0.001226
47 0.001235
48 0.001245
49 0.001249
50 0.001245
51 0.001231
52 0.001222
53 0.001220
54 0.001228
55 0.001237
56 0.001238
57 0.001239
58 0.001221
59 0.001206
60 0.001191
61 0.001169
62 0.001163
63 0.001154
64 0.001143
65 0.001145
66 0.001151
67 0.001156
68 0.001157
69 0.001161
70 0.001170
71 0.001174
72 0.001173
73 0.001171
74 0.001169
75 0.001166
76 0.001154
77 0.001142
78 0.001134
79 0.001119
80 0.001116
81 0.001106
82 0.001098
83 0.001097
84 0.001100
85 0.001092
86 0.001081
87 0.001071
88 0.001065
89 0.001057
90 0.001050
91 0.001038
92 0.001034
93 0.001033
94 0.001034
95 0.001031
96 0.001037
97 0.001045
98 0.001045
99 0.001041
100 0.001046
101 0.001044
102 0.001044
103 0.001045
104 0.001042
105 0.001025
106 0.001019
107 0.001010
108 0.001004
109 0.000995
110 0.000981
111 0.000966
112 0.000964
113 0.000942
114 0.000932
115 0.000918
116 0.000913
117 0.000919
118 0.000935
119 0.000950
120 0.000963
121 0.000971
122 0.000952
123 0.000946
124 0.000944
125 0.000942
126 0.000954
127 0.000960
128 0.000971
129 0.000973
130 0.000966
131 0.000957
132 0.000948
133 0.000946
134 0.000939
135 0.000947
136 0.000944
137 0.000945
138 0.000941
139 0.000939
140 0.000941
141 0.000933
142 0.000922
143 0.000906
144 0.000892
145 0.000885
146 0.000882
147 0.000875
148 0.000852
149 0.000846
150 0.000839
151 0.000835
152 0.000837
153 0.000839
154 0.000838
155 0.000838
156 0.000824
157 0.000810
158 0.000815
159 0.000816
160 0.000808
161 0.000799
162 0.000785
163 0.000775
164 0.000757
165 0.000734
166 0.000719
167 0.000712
168 0.000710
169 0.000711
170 0.000706
171 0.000699
172 0.000692
173 0.000695
174 0.000706
175 0.000707
176 0.000716
177 0.000712
178 0.000704
179 0.000684
180 0.000658
181 0.000640
182 0.000618
183 0.000606
184 0.000608
185 0.000604
186 0.000601
187 0.000594
188 0.000598
189 0.000592
190 0.000594
191 0.000598
192 0.000607
193 0.000612
194 0.000618
195 0.000632
196 0.000636
197 0.000631
198 0.000629
199 0.000628
200 0.000622
201 0.000625
202 0.000623
203 0.000608
204 0.000597
205 0.000583
206 0.000570
207 0.000549
208 0.000551
209 0.000562
210 0.000560
211 0.000568
212 0.000589
213 0.000610
214 0.000621
215 0.000625
216 0.000636
217 0.000638
218 0.000632
219 0.000622
220 0.000623
221 0.000626
222 0.000633
223 0.000644
224 0.000660
225 0.000667
226 0.000668
227 0.000675
228 0.000678
229 0.000679
230 0.000678
231 0.000667
232 0.000649
233 0.000624
234 0.000606
235 0.000596
236 0.000586
237 0.000571
238 0.000568
239 0.000560
240 0.000547
241 0.000540
242 0.000532
243 0.000528
244 0.000521
245 0.000519
246 0.000511
247 0.000512
248 0.000501
249 0.000490
250 0.000470
251 0.000458
252 0.000446
253 0.000429
254 0.000418
255 0.000414
256 0.000419
257 0.000408
258 0.000412
259 0.000412
260 0.000413
261 0.000420
262 0.000407
263 0.000405
264 0.000405
265 0.000404
266 0.000407
267 0.000405
268 0.000411
269 0.000407
270 0.000420
271 0.000438
272 0.000449
273 0.000456
274 0.000455
275 0.000451
276 0.000434
277 0.000426
278 0.000419
279 0.000423
280 0.000414
281 0.000407
282 0.000415
283 0.000417
284 0.000423
285 0.000424
286 0.000427
287 0.000438
288 0.000451
289 0.000448
290 0.000447
291 0.000437
292 0.000432
293 0.000412
294 0.000401
295 0.000397
296 0.000402
297 0.000401
298 0.000401
299 0.000394
300 0.000374
301 0.000354
302 0.000337
303 0.000311
304 0.000302
305 0.000297
306 0.000285
307 0.000272
308 0.000257
309 0.000240
310 0.000220
311 0.000217
312 0.000213
313 0.000225
314 0.000235
315 0.000241
316 0.000235
317 0.000218
318 0.000205
319 0.000191
320 0.000168
321 0.000152
322 0.000149
323 0.000139
324 0.000130
325 0.000126
326 0.000126
327 0.000111
328 0.000100
329 0.000091
330 0.000096
331 0.000105
332 0.000116
333 0.000124
334 0.000127
335 0.000126
336 0.000129
337 0.000135
338 0.000133
339 0.000135
340 0.000121
341 0.000122
342 0.000112
343 0.000102
344 0.000111
345 0.000119
346 0.000122
347 0.000131
348 0.000144
349 0.000158
350 0.000164
351 0.000166
352 0.000164
353 0.000167
354 0.000162
355 0.000171
356 0.000186
357 0.000197
358 0.000216
359 0.000228
360 0.000226
361 0.000219
362 0.000210
363 0.000205
364 0.000208
365 0.000205
366 0.000206
367 0.000221
368 0.000236
369 0.000250
370 0.000266
371 0.000286
372 0.000302
373 0.000306
374 0.000295
375 0.000287
376 0.000274
377 0.000246
378 0.000227
379 0.000218
380 0.000215
381 0.000219
382 0.000225
383 0.000226
384 0.000234
385 0.000236
386 0.000242
387 0.000249
388 0.000252
389 0.000262
390 0.000270
391 0.000281
392 0.000284
393 0.000288
394 0.000295
395 0.000285
396 0.000284
397 0.000281
398 0.000274
399 0.000265
400 0.000253
401 0.000245
402 0.000232
403 0.000224
404 0.000227
405 0.000227
406 0.000226
407 0.000221
408 0.000227
409 0.000225
410 0.000222
411 0.000220
412 0.000213
413 0.000218
414 0.000221
415 0.000227
416 0.000236
417 0.000238
418 0.000233
419 0.000229
420 0.000213
421 0.000199
422 0.000193
423 0.000189
424 0.000181
425 0.000180
426 0.000178
427 0.000183
428 0.000178
429 0.000189
430 0.000199
431 0.000198
432 0.000192
433 0.000187
434 0.000188
435 0.000180
436 0.000178
437 0.000189
438 0.000204
439 0.000208
440 0.000215
441 0.000216
442 0.000216
443 0.000226
444 0.000234
445 0.000237
446 0.000240
447 0.000245
448 0.000242
449 0.000236
450 0.000222
451 0.000221
452 0.000209
453 0.000207
454 0.000201
455 0.000188
456 0.000185
457 0.000179
458 0.000177
459 0.000186
460 0.000199
461 0.000216
462 0.000224
463 0.000225
464 0.000226
465 0.000235
466 0.000241
467 0.000242
468 0.000239
469 0.000233
470 0.000225
471 0.000213
472 0.000202
473 0.000201
474 0.000201
475 0.000195
476 0.000196
477 0.000206
478 0.000214
479 0.000219
480 0.000214
481 0.000210
482 0.000197
483 0.000191
484 0.000196
485 0.000197
486 0.000201
487 0.000211
488 0.000213
489 0.000208
490 0.000210
491 0.000211
492 0.000210
493 0.000211
494 0.000209
495 0.000204
496 0.000203
497 0.000203
498 0.000198
499 0.000196
500 0.000200
501 0.000191
502 0.000180
503 0.000171
504 0.000165
505 0.000155
506 0.000153
507 0.000160
508 0.000166
509 0.000172
510 0.000188
511 0.000205
512 0.000209
513 0.000216
514 0.000219
515 0.000221
516 0.000216
517 0.000219
518 0.000223
519 0.000214
520 0.000205
521 0.000193
522 0.000181
523 0.000166
524 0.000156
525 0.000150
526 0.000149
527 0.000158
528 0.000157
529 0.000152
530 0.000141
531 0.000147
532 0.000144
533 0.000142
534 0.000153
535 0.000161
536 0.000156
537 0.000151
538 0.000141
539 0.000133
540 0.000129
541 0.000123
542 0.000119
543 0.000124
544 0.000133
545 0.000138
546 0.000142
547 0.000144
548 0.000143
549 0.000149
550 0.000159
551 0.000160
552 0.000162
553 0.000164
554 0.000163
555 0.000159
556 0.000151
557 0.000152
558 0.000155
559 0.000155
560 0.000156
561 0.000154
562 0.000162
563 0.000167
564 0.000168
565 0.000169
566 0.000173
567 0.000182
568 0.000186
569 0.000195
570 0.000190
571 0.000190
572 0.000193
573 0.000195
574 0.000193
575 0.000192
576 0.000185
577 0.000181
578 0.000168
579 0.000154
580 0.000147
581 0.000140
582 0.000137
583 0.000133
584 0.000135
585 0.000136
586 0.000138
587 0.000142
588 0.000144
589 0.000136
590 0.000131
591 0.000120
592 0.000114
593 0.000106
594 0.000097
595 0.000092
596 0.000088
597 0.000092
598 0.000092
599 0.000094
600 0.000096
601 0.000100
602 0.000099
603 0.000100
604 0.000096
605 0.000094
606 0.000091
607 0.000090
608 0.000081
609 0.000073
610 0.000070
611 0.000065
612 0.000062
613 0.000059
614 0.000066
615 0.000069
616 0.000070
617 0.000075
618 0.000085
619 0.000097
620 0.000109
621 0.000117
622 0.000126
623 0.000137
624 0.000144
625 0.000148
626 0.000141
627 0.000136
628 0.000128
629 0.000123
630 0.000116
631 0.000112
632 0.000111
633 0.000107
634 0.000095
635 0.000084
636 0.000076
637 0.000076
638 0.000082
639 0.000089
640 0.000096
641 0.000103
642 0.000110
643 0.000118
644 0.000123
645 0.000126
646 0.000134
647 0.000144
648 0.000132
649 0.000119
650 0.000112
651 0.000104
652 0.000104
653 0.000109
654 0.000115
655 0.000125
656 0.000124
657 0.000128
658 0.000126
659 0.000116
660 0.000114
661 0.000107
662 0.000103
663 0.000107
664 0.000118
665 0.000124
666 0.000125
667 0.000128
668 0.000135
669 0.000137
670 0.000143
671 0.000152
672 0.000158
673 0.000160
674 0.000166
675 0.000172
676 0.000173
677 0.000171
678 0.000168
679 0.000162
680 0.000150
681 0.000152
682 0.000149
683 0.000149
684 0.000141
685 0.000143
686 0.000148
687 0.000154
688 0.000158
689 0.000161
690 0.000163
691 0.000157
692 0.000151
693 0.000143
694 0.000136
695 0.000140
696 0.000143
697 0.000138
698 0.000131
699 0.000129
700 0.000127
701 0.000132
702 0.000137
703 0.000147
704 0.000157
705 0.000162
706 0.000158
707 0.000149
708 0.000146
709 0.000149
710 0.000147
711 0.000144
712 0.000137
713 0.000130
714 0.000116
715 0.000102
716 0.000086
717 0.000079
718 0.000067
719 0.000064
720 0.000057
721 0.000052
722 0.000051
723 0.000053
724 0.000049
725 0.000047
726 0.000050
727 0.000058
728 0.000063
729 0.000061
730 0.000061
731 0.000065
732 0.000061
733 0.000052
734 0.000042
735 0.000032
736 0.000023
737 0.000019
738 0.000017
739 0.000016
740 0.000017
741 0.000025
742 0.000038
743 0.000053
744 0.000068
745 0.000087
746 0.000099
747 0.000101
748 0.000101
749 0.000101
750 0.000101
751 0.000106
752 0.000110
753 0.000112
754 0.000112
755 0.000110
756 0.000111
757 0.000112
758 0.000115
759 0.000119
760 0.000119
761 0.000124
762 0.000127
763 0.000130
764 0.000136
765 0.000140
766 0.000142
767 0.000139
768 0.000133
769 0.000126
770 0.000109
771 0.000100
772 0.000092
773 0.000087
774 0.000086
775 0.000089
776 0.000095
777 0.000100
778 0.000110
779 0.000115
780 0.000112
781 0.000111
782 0.000112
783 0.000115
784 0.000114
785 0.000119
786 0.000118
787 0.000111
788 0.000107
789 0.000099
790 0.000091
791 0.000083
792 0.000084
793 0.000085
794 0.000082
795 0.000083
796 0.000090
797 0.000094
798 0.000100
799 0.000108
800 0.000113
801 0.000119
802 0.000122
803 0.000123
804 0.000123
805 0.000128
806 0.000129
807 0.000128
808 0.000121
809 0.000118
