# i correlation
1 0.001692
2 0.001583
3 0.001485
4 0.001404
5 0.001324
6 0.001268
7 0.001225
8 0.001189
9 0.001161
10 0.001154
11 0.001133
12 0.001112
13 0.001082
14 0.001055
15 0.001024
16 0.001003
17 0.000985
18 0.000968
19 0.000960
20 0.000964
21 0.000961
22 0.000971
23 0.000973
24 0.000976
25 0.000974
26 0.000967
27 0.000955
28 0.000938
29 0.000919
30 0.000893
31 0.000880
32 0.000877
33 0.000884
34 0.000903
35 0.000921
36 0.000932
37 0.000940
38 0.000943
39 0.000932
40 0.000913
41 0.000884
42 0.000869
43 0.000852
44 0.000837
45 0.000829
46 0.000819
47 0.000818
48 0.000822
49 0.000823
50 0.000818
51 0.000819
52 0.000826
53 0.000826
54 0.000816
55 0.000820
56 0.000822
57 0.000821
58 0.000814
59 0.000812
60 0.000805
61 0.000803
62 0.000800
63 0.000791
64 0.000773
65 0.000760
66 0.000745
67 0.000726
68 0.000711
69 0.000696
70 0.000684
71 0.000683
72 0.000685
73 0.000703
74 0.000722
75 0.000730
76 0.000737
77 0.000758
78 0.000765
79 0.000763
80 0.000767
81 0.000774
82 0.000775
83 0.000768
84 0.000767
85 0.000763
86 0.000754
87 0.000754
88 0.000759
89 0.000752
90 0.000748
91 0.000757
92 0.000760
93 0.000757
94 0.000753
95 0.000744
96 0.000729
97 0.000718
98 0.000706
99 0.000701
100 0.000699
101 0.000701
102 0.000702
103 0.000706
104 0.000721
105 0.000730
106 0.000747
107 0.000740
108 0.000742
109 0.000738
110 0.000724
111 0.000707
112 0.000692
113 0.000683
114 0.000674
115 0.000677
116 0.000677
117 0.000675
118 0.000676
119 0.000678
120 0.000674
121 0.000664
122 0.000649
123 0.000634
124 0.000628
125 0.000627
126 0.000647
127 0.000658
128 0.000684
129 0.000703
130 0.000722
131 0.000727
132 0.000726
133 0.000716
134 0.000708
135 0.000700
136 0.000693
137 0.000677
138 0.000669
139 0.000659
140 0.000663
141 0.000662
142 0.000656
143 0.000652
144 0.000648
145 0.000639
146 0.000631
147 0.000613
148 0.000589
149 0.000559
150 0.000546
151 0.000546
152 0.000547
153 0.000548
154 0.000548
155 0.000554
156 0.000562
157 0.000568
158 0.000570
159 0.000564
160 0.000564
161 0.000561
162 0.000555
163 0.000554
164 0.000558
165 0.000578
166 0.000594
167 0.000603
168 0.000613
169 0.000621
170 0.000614
171 0.000600
172 0.000588
173 0.000561
174 0.000545
175 0.000522
176 0.000508
177 0.000493
178 0.000486
179 0.000476
180 0.000476
181 0.000477
182 0.000477
183 0.000471
184 0.000468
185 0.000458
186 0.000449
187 0.000436
188 0.000436
189 0.000436
190 0.000447
191 0.000469
192 0.000490
193 0.000506
194 0.000524
195 0.000525
196 0.000523
197 0.000515
198 0.000508
199 0.000501
200 0.000503
201 0.000502
202 0.000494
203 0.000501
204 0.000508
205 0.000502
206 0.000494
207 0.000486
208 0.000482
209 0.000471
210 0.000467
211 0.000462
212 0.000469
213 0.000467
214 0.000472
215 0.000480
216 0.000483
217 0.000482
218 0.000486
219 0.000492
220 0.000504
221 0.000511
222 0.000512
223 0.000509
224 0.000501
225 0.000487
226 0.000483
227 0.000487
228 0.000492
229 0.000498
230 0.000508
231 0.000516
232 0.000517
233 0.000519
234 0.000529
235 0.000532
236 0.000533
237 0.000533
238 0.000540
239 0.000552
240 0.000553
241 0.000546
242 0.000545
243 0.000543
244 0.000540
245 0.000534
246 0.000532
247 0.000527
248 0.000526
249 0.000534
250 0.000541
251 0.000538
252 0.000534
253 0.000522
254 0.000518
255 0.000506
256 0.000501
257 0.000495
258 0.000485
259 0.000476
260 0.000462
261 0.000445
262 0.000440
263 0.000429
264 0.000416
265 0.000409
266 0.000415
267 0.000420
268 0.000424
269 0.000438
270 0.000446
271 0.000452
272 0.000459
273 0.000466
274 0.000463
275 0.000453
276 0.000447
277 0.000447
278 0.000448
279 0.000443
280 0.000434
281 0.000423
282 0.000416
283 0.000405
284 0.000395
285 0.000380
286 0.000373
287 0.000367
288 0.000353
289 0.000341
290 0.000330
291 0.000320
292 0.000317
293 0.000302
294 0.000294
295 0.000288
296 0.000294
297 0.000306
298 0.000309
299 0.000311
300 0.000316
301 0.000313
302 0.000303
303 0.000305
304 0.000325
305 0.000337
306 0.000349
307 0.000358
308 0.000362
309 0.000369
310 0.000367
311 0.000375
312 0.000379
313 0.000368
314 0.000362
315 0.000357
316 0.000355
317 0.000353
318 0.000348
319 0.000335
320 0.000329
321 0.000329
322 0.000323
323 0.000311
324 0.000306
325 0.000309
326 0.000313
327 0.000315
328 0.000318
329 0.000317
330 0.000317
331 0.000323
332 0.000335
333 0.000343
334 0.000360
335 0.000379
336 0.000387
337 0.000391
338 0.000393
339 0.000392
340 0.000384
341 0.000377
342 0.000371
343 0.000372
344 0.000375
345 0.000382
346 0.000389
347 0.000381
348 0.000382
349 0.000375
350 0.000371
351 0.000371
352 0.000373
353 0.000371
354 0.000374
355 0.000377
356 0.000389
357 0.000398
358 0.000406
359 0.000417
360 0.000440
361 0.000458
362 0.000463
363 0.000458
364 0.000460
365 0.000458
366 0.000461
367 0.000455
368 0.000445
369 0.000431
370 0.000425
371 0.000424
372 0.000425
373 0.000431
374 0.000436
375 0.000435
376 0.000424
377 0.000418
378 0.000414
379 0.000404
380 0.000391
381 0.000374
382 0.000369
383 0.000370
384 0.000374
385 0.000378
386 0.000388
387 0.000390
388 0.000390
389 0.000382
390 0.000375
391 0.000364
392 0.000361
393 0.000355
394 0.000359
395 0.000374
396 0.000396
397 0.000411
398 0.000427
399 0.000438
400 0.000454
401 0.000456
402 0.000450
403 0.000436
404 0.000429
405 0.000422
406 0.000410
407 0.000397
408 0.000396
409 0.000401
410 0.000400
411 0.000390
412 0.000386
413 0.000379
414 0.000371
415 0.000363
416 0.000354
417 0.000349
418 0.000337
419 0.000327
420 0.000327
421 0.000321
422 0.000313
423 0.000303
424 0.000305
425 0.000307
426 0.000304
427 0.000304
428 0.000301
429 0.000286
430 0.000281
431 0.000276
432 0.000276
433 0.000274
434 0.000284
435 0.000295
436 0.000299
437 0.000309
438 0.000323
439 0.000336
440 0.000338
441 0.000335
442 0.000332
443 0.000329
444 0.000329
445 0.000322
446 0.000309
447 0.000300
448 0.000294
449 0.000284
450 0.000271
451 0.000262
452 0.000258
453 0.000242
454 0.000232
455 0.000213
456 0.000203
457 0.000198
458 0.000187
459 0.000167
460 0.000151
461 0.000153
462 0.000155
463 0.000164
464 0.000173
465 0.000180
466 0.000190
467 0.000198
468 0.000202
469 0.000198
470 0.000194
471 0.000192
472 0.000199
473 0.000209
474 0.000214
475 0.000210
476 0.000206
477 0.000203
478 0.000204
479 0.000199
480 0.000195
481 0.000202
482 0.000202
483 0.000201
484 0.000189
485 0.000180
486 0.000182
487 0.000184
488 0.000192
489 0.000200
490 0.000210
491 0.000215
492 0.000222
493 0.000227
494 0.000226
495 0.000215
496 0.000201
497 0.000186
498 0.000173
499 0.000162
500 0.000157
501 0.000163
502 0.000168
503 0.000177
504 0.000189
505 0.000202
506 0.000208
507 0.000204
508 0.000198
509 0.000186
510 0.000167
511 0.000156
512 0.000149
513 0.000137
514 0.000128
515 0.000125
516 0.000120
517 0.000117
518 0.000123
519 0.000127
520 0.000131
521 0.000131
522 0.000125
523 0.000113
524 0.000107
525 0.000108
526 0.000125
527 0.000138
528 0.000150
529 0.000160
530 0.000172
531 0.000184
532 0.000194
533 0.000191
534 0.000183
535 0.000168
536 0.000156
537 0.000145
538 0.000143
539 0.000141
540 0.000143
541 0.000140
542 0.000133
543 0.000130
544 0.000125
545 0.000129
546 0.000130
547 0.000128
548 0.000132
549 0.000139
550 0.000134
551 0.000130
552 0.000126
553 0.000124
554 0.000120
555 0.000121
556 0.000124
557 0.000122
558 0.000118
559 0.000102
560 0.000096
561 0.000095
562 0.000094
563 0.000095
564 0.000101
565 0.000105
566 0.000116
567 0.000130
568 0.000143
569 0.000147
570 0.000146
571 0.000147
572 0.000139
573 0.000131
574 0.000128
575 0.000123
576 0.000122
577 0.000123
578 0.000131
579 0.000128
580 0.000134
581 0.000136
582 0.000147
583 0.000150
584 0.000147
585 0.000141
586 0.000133
587 0.000127
588 0.000120
589 0.000114
590 0.000111
591 0.000106
592 0.000103
593 0.000102
594 0.000101
595 0.000099
596 0.000098
597 0.000099
598 0.000099
599 0.000094
600 0.000090
601 0.000085
602 0.000084
603 0.000080
604 0.000086
605 0.000092
606 0.000095
607 0.000099
608 0.000107
609 0.000112
610 0.000111
611 0.000109
612 0.000108
613 0.000107
614 0.000103
615 0.000093
616 0.000088
617 0.000085
618 0.000088
619 0.000088
620 0.000086
621 0.000074
622 0.000066
623 0.000063
624 0.000057
625 0.000057
626 0.000053
627 0.000045
628 0.000034
629 0.000029
630 0.000027
631 0.000022
632 0.000018
633 0.000023
634 0.000027
635 0.000034
636 0.000039
637 0.000041
638 0.000045
639 0.000051
640 0.000059
641 0.000060
642 0.000064
643 0.000063
644 0.000059
645 0.000060
646 0.000063
647 0.000061
648 0.000060
649 0.000059
650 0.000056
651 0.000055
652 0.000056
653 0.000053
654 0.000049
655 0.000047
656 0.000049
657 0.000049
658 0.000057
659 0.000067
660 0.000077
661 0.000083
662 0.000095
663 0.000100
664 0.000105
665 0.000103
666 0.000099
667 0.000098
668 0.000094
669 0.000089
670 0.000090
671 0.000095
672 0.000096
673 0.000099
674 0.000101
675 0.000105
676 0.000104
677 0.000109
678 0.000110
679 0.000109
680 0.000103
681 0.000098
682 0.000092
683 0.000090
684 0.000091
685 0.000084
686 0.000078
687 0.000078
688 0.000076
689 0.000070
690 0.000062
691 0.000056
692 0.000048
693 0.000038
694 0.000033
695 0.000030
696 0.000033
697 0.000034
698 0.000034
699 0.000029
700 0.000028
701 0.000028
702 0.000030
703 0.000033
704 0.000037
705 0.000034
706 0.000036
707 0.000033
708 0.000032
709 0.000024
710 0.000020
711 0.000017
712 0.000018
713 0.000023
714 0.000027
715 0.000024
716 0.000029
717 0.000032
718 0.000035
719 0.000030
720 0.000029
721 0.000028
722 0.000025
723 0.000025
724 0.000028
725 0.000025
726 0.000021
727 0.000017
728 0.000008
729 -0.000003
730 -0.000012
731 -0.000022
732 -0.000026
733 -0.000028
734 -0.000029
735 -0.000026
736 -0.000019
737 -0.000019
738 -0.000016
739 -0.000008
740 0.000002
741 0.000005
742 0.000009
743 0.000015
744 0.000023
745 0.000032
746 0.000043
747 0.000048
748 0.000057
749 0.000066
750 0.000071
751 0.000072
752 0.000074
753 0.000075
754 0.000074
755 0.000078
756 0.000078
757 0.000075
758 0.000074
759 0.000072
760 0.000078
761 0.000085
762 0.000091
763 0.000089
764 0.000081
765 0.000080
766 0.000071
767 0.000058
768 0.000049
769 0.000048
770 0.000048
771 0.000048
772 0.000051
773 0.000053
774 0.000053
775 0.000055
776 0.000058
777 0.000061
778 0.000064
779 0.000065
780 0.000062
781 0.000060
782 0.000058
783 0.000056
784 0.000049
785 0.000046
786 0.000042
787 0.000036
788 0.000033
789 0.000026
790 0.000019
791 0.000012
792 0.000006
793 0.000002
794 -0.000001
795 -0.000000
796 -0.000003
797 -0.000002
798 0.000007
799 0.000015
800 0.000022
801 0.000026
802 0.000032
803 0.000036
804 0.000039
805 0.000048
806 0.000052
807 0.000052
808 0.000049
809 0.000047
