# i correlation
1 0.002076
2 0.001947
3 0.001859
4 0.001782
5 0.001712
6 0.001663
7 0.001609
8 0.001565
9 0.001526
10 0.001474
11 0.001431
12 0.001410
13 0.001384
14 0.001360
15 0.001338
16 0.001316
17 0.001295
18 0.001287
19 0.001292
20 0.001301
21 0.001304
22 0.001294
23 0.001284
24 0.001288
25 0.001283
26 0.001285
27 0.001274
28 0.001264
29 0.001257
30 0.001245
31 0.001222
32 0.001203
33 0.001212
34 0.001220
35 0.001207
36 0.001188
37 0.001155
38 0.001141
39 0.001121
40 0.001102
41 0.001089
42 0.001084
43 0.001078
44 0.001072
45 0.001077
46 0.001095
47 0.001104
48 0.001106
49 0.001099
50 0.001089
51 0.001097
52 0.001092
53 0.001078
54 0.001064
55 0.001047
56 0.001021
57 0.001005
58 0.001008
59 0.001018
60 0.001028
61 0.001017
62 0.001011
63 0.000990
64 0.000977
65 0.000983
66 0.000982
67 0.000990
68 0.000992
69 0.000998
70 0.000980
71 0.000965
72 0.000970
73 0.000975
74 0.000987
75 0.000982
76 0.000980
77 0.000978
78 0.000965
79 0.000956
80 0.000958
81 0.000966
82 0.000955
83 0.000937
84 0.000929
85 0.000932
86 0.000938
87 0.000940
88 0.000927
89 0.000910
90 0.000894
91 0.000872
92 0.000837
93 0.000821
94 0.000808
95 0.000805
96 0.000808
97 0.000809
98 0.000808
99 0.000816
100 0.000825
101 0.000827
102 0.000830
103 0.000828
104 0.000803
105 0.000806
106 0.000817
107 0.000826
108 0.000838
109 0.000855
110 0.000870
111 0.000883
112 0.000890
113 0.000879
114 0.000871
115 0.000866
116 0.000846
117 0.000828
118 0.000812
119 0.000782
120 0.000752
121 0.000728
122 0.000704
123 0.000688
124 0.000675
125 0.000678
126 0.000667
127 0.000675
128 0.000677
129 0.000674
130 0.000670
131 0.000689
132 0.000715
133 0.000732
134 0.000753
135 0.000760
136 0.000765
137 0.000762
138 0.000755
139 0.000752
140 0.000741
141 0.000728
142 0.000720
143 0.000718
144 0.000714
145 0.000707
146 0.000721
147 0.000729
148 0.000743
149 0.000739
150 0.000727
151 0.000724
152 0.000716
153 0.000713
154 0.000708
155 0.000708
156 0.000716
157 0.000715
158 0.000718
159 0.000726
160 0.000736
161 0.000743
162 0.000744
163 0.000755
164 0.000762
165 0.000768
166 0.000766
167 0.000769
168 0.000768
169 0.000757
170 0.000752
171 0.000749
172 0.000747
173 0.000732
174 0.000722
175 0.000705
176 0.000692
177 0.000690
178 0.000677
179 0.000674
180 0.000686
181 0.000674
182 0.000672
183 0.000678
184 0.000680
185 0.000693
186 0.000712
187 0.000726
188 0.000723
189 0.000731
190 0.000733
191 0.000727
192 0.000728
193 0.000731
194 0.000742
195 0.000748
196 0.000747
197 0.000739
198 0.000736
199 0.000739
200 0.000731
201 0.000720
202 0.000715
203 0.000702
204 0.000693
205 0.000689
206 0.000686
207 0.000676
208 0.000671
209 0.000659
210 0.000641
211 0.000627
212 0.000620
213 0.000626
214 0.000636
215 0.000644
216 0.000650
217 0.000646
218 0.000661
219 0.000668
220 0.000676
221 0.000684
222 0.000689
223 0.000704
224 0.000709
225 0.000710
226 0.000701
227 0.000683
228 0.000654
229 0.000626
230 0.000593
231 0.000564
232 0.000548
233 0.000546
234 0.000554
235 0.000551
236 0.000538
237 0.000541
238 0.000530
239 0.000524
240 0.000524
241 0.000531
242 0.000531
243 0.000532
244 0.000529
245 0.000544
246 0.000564
247 0.000572
248 0.000585
249 0.000599
250 0.000600
251 0.000606
252 0.000622
253 0.000632
254 0.000639
255 0.000638
256 0.000648
257 0.000644
258 0.000643
259 0.000644
260 0.000653
261 0.000660
262 0.000665
263 0.000669
264 0.000669
265 0.000668
266 0.000674
267 0.000681
268 0.000675
269 0.000665
270 0.000657
271 0.000652
272 0.000628
273 0.000628
274 0.000631
275 0.000626
276 0.000633
277 0.000628
278 0.000601
279 0.000586
280 0.000587
281 0.000577
282 0.000567
283 0.000565
284 0.000555
285 0.000556
286 0.000560
287 0.000555
288 0.000547
289 0.000548
290 0.000542
291 0.000532
292 0.000531
293 0.000522
294 0.000527
295 0.000539
296 0.000538
297 0.000537
298 0.000528
299 0.000531
300 0.000540
301 0.000539
302 0.000532
303 0.000532
304 0.000539
305 0.000541
306 0.000534
307 0.000520
308 0.000511
309 0.000500
310 0.000489
311 0.000492
312 0.000488
313 0.000485
314 0.000497
315 0.000498
316 0.000488
317 0.000477
318 0.000471
319 0.000468
320 0.000463
321 0.000457
322 0.000454
323 0.000454
324 0.000457
325 0.000462
326 0.000459
327 0.000457
328 0.000458
329 0.000453
330 0.000450
331 0.000447
332 0.000444
333 0.000454
334 0.000463
335 0.000485
336 0.000495
337 0.000495
338 0.000501
339 0.000502
340 0.000490
341 0.000480
342 0.000470
343 0.000463
344 0.000450
345 0.000438
346 0.000426
347 0.000419
348 0.000415
349 0.000411
350 0.000411
351 0.000419
352 0.000434
353 0.000443
354 0.000450
355 0.000455
356 0.000444
357 0.000433
358 0.000422
359 0.000413
360 0.000408
361 0.000401
362 0.000393
363 0.000385
364 0.000377
365 0.000368
366 0.000365
367 0.000352
368 0.000341
369 0.000340
370 0.000345
371 0.000355
372 0.000358
373 0.000373
374 0.000384
375 0.000380
376 0.000378
377 0.000386
378 0.000384
379 0.000386
380 0.000386
381 0.000385
382 0.000388
383 0.000393
384 0.000391
385 0.000409
386 0.000429
387 0.000434
388 0.000437
389 0.000443
390 0.000446
391 0.000452
392 0.000457
393 0.000448
394 0.000451
395 0.000458
396 0.000461
397 0.000463
398 0.000472
399 0.000480
400 0.000495
401 0.000505
402 0.000506
403 0.000496
404 0.000482
405 0.000480
406 0.000480
407 0.000480
408 0.000468
409 0.000460
410 0.000450
411 0.000451
412 0.000462
413 0.000473
414 0.000476
415 0.000480
416 0.000474
417 0.000466
418 0.000455
419 0.000457
420 0.000466
421 0.000477
422 0.000484
423 0.000485
424 0.000484
425 0.000479
426 0.000479
427 0.000479
428 0.000478
429 0.000480
430 0.000481
431 0.000479
432 0.000478
433 0.000474
434 0.000465
435 0.000453
436 0.000449
437 0.000429
438 0.000410
439 0.000399
440 0.000386
441 0.000372
442 0.000361
443 0.000358
444 0.000339
445 0.000331
446 0.000323
447 0.000321
448 0.000319
449 0.000311
450 0.000308
451 0.000314
452 0.000324
453 0.000327
454 0.000330
455 0.000328
456 0.000328
457 0.000323
458 0.000320
459 0.000316
460 0.000337
461 0.000353
462 0.000357
463 0.000353
464 0.000357
465 0.000360
466 0.000376
467 0.000395
468 0.000401
469 0.000405
470 0.000405
471 0.000395
472 0.000395
473 0.000377
474 0.000360
475 0.000349
476 0.000346
477 0.000330
478 0.000309
479 0.000299
480 0.000289
481 0.000284
482 0.000285
483 0.000273
484 0.000250
485 0.000243
486 0.000247
487 0.000255
488 0.000273
489 0.000285
490 0.000285
491 0.000287
492 0.000284
493 0.000279
494 0.000286
495 0.000285
496 0.000287
497 0.000291
498 0.000306
499 0.000314
500 0.000328
501 0.000342
502 0.000356
503 0.000371
504 0.000370
505 0.000369
506 0.000369
507 0.000360
508 0.000353
509 0.000345
510 0.000341
511 0.000337
512 0.000340
513 0.000341
514 0.000343
515 0.000341
516 0.000338
517 0.000330
518 0.000324
519 0.000317
520 0.000313
521 0.000311
522 0.000314
523 0.000318
524 0.000316
525 0.000309
526 0.000303
527 0.000304
528 0.000304
529 0.000311
530 0.000314
531 0.000304
532 0.000305
533 0.000304
534 0.000312
535 0.000308
536 0.000295
537 0.000287
538 0.000276
539 0.000261
540 0.000260
541 0.000261
542 0.000265
543 0.000258
544 0.000245
545 0.000234
546 0.000232
547 0.000227
548 0.000229
549 0.000226
550 0.000217
551 0.000213
552 0.000211
553 0.000207
554 0.000209
555 0.000204
556 0.000204
557 0.000206
558 0.000205
559 0.000198
560 0.000196
561 0.000193
562 0.000188
563 0.000191
564 0.000181
565 0.000175
566 0.000171
567 0.000165
568 0.000169
569 0.000163
570 0.000166
571 0.000163
572 0.000165
573 0.000156
574 0.000147
575 0.000147
576 0.000151
577 0.000152
578 0.000158
579 0.000166
580 0.000168
581 0.000169
582 0.000169
583 0.000159
584 0.000147
585 0.000140
586 0.000130
587 0.000125
588 0.000124
589 0.000123
590 0.000113
591 0.000107
592 0.000091
593 0.000072
594 0.000073
595 0.000071
596 0.000060
597 0.000055
598 0.000053
599 0.000067
600 0.000084
601 0.000103
602 0.000112
603 0.000124
604 0.000137
605 0.000143
606 0.000155
607 0.000168
608 0.000179
609 0.000185
610 0.000185
611 0.000186
612 0.000186
613 0.000185
614 0.000187
615 0.000195
616 0.000193
617 0.000183
618 0.000174
619 0.000172
620 0.000174
621 0.000175
622 0.000172
623 0.000164
624 0.000157
625 0.000160
626 0.000152
627 0.000146
628 0.000151
629 0.000159
630 0.000164
631 0.000161
632 0.000157
633 0.000154
634 0.000153
635 0.000156
636 0.000153
637 0.000157
638 0.000153
639 0.000151
640 0.000148
641 0.000147
642 0.000140
643 0.000123
644 0.000113
645 0.000101
646 0.000093
647 0.000097
648 0.000100
649 0.000107
650 0.000116
651 0.000118
652 0.000120
653 0.000127
654 0.000140
655 0.000152
656 0.000161
657 0.000168
658 0.000173
659 0.000188
660 0.000191
661 0.000193
662 0.000195
663 0.000206
664 0.000207
665 0.000201
666 0.000203
667 0.000205
668 0.000208
669 0.000207
670 0.000203
671 0.000202
672 0.000199
673 0.000199
674 0.000204
675 0.000211
676 0.000224
677 0.000233
678 0.000231
679 0.000228
680 0.000233
681 0.000239
682 0.000247
683 0.000259
684 0.000267
685 0.000275
686 0.000278
687 0.000279
688 0.000293
689 0.000309
690 0.000323
691 0.000335
692 0.000342
693 0.000344
694 0.000338
695 0.000329
696 0.000323
697 0.000322
698 0.000317
699 0.000309
700 0.000299
701 0.000293
702 0.000293
703 0.000289
704 0.000279
705 0.000266
706 0.000260
707 0.000251
708 0.000234
709 0.000225
710 0.000219
711 0.000208
712 0.000207
713 0.000204
714 0.000204
715 0.000204
716 0.000212
717 0.000217
718 0.000222
719 0.000229
720 0.000231
721 0.000235
722 0.000241
723 0.000243
724 0.000248
725 0.000259
726 0.000269
727 0.000277
728 0.000282
729 0.000276
730 0.000262
731 0.000250
732 0.000237
733 0.000219
734 0.000201
735 0.000191
736 0.000185
737 0.000182
738 0.000176
739 0.000163
740 0.000153
741 0.000138
742 0.000122
743 0.000116
744 0.000100
745 0.000087
746 0.000078
747 0.000076
748 0.000077
749 0.000080
750 0.000087
751 0.000087
752 0.000087
753 0.000080
754 0.000069
755 0.000061
756 0.000058
757 0.000054
758 0.000048
759 0.000038
760 0.000029
761 0.000025
762 0.000027
763 0.000023
764 0.000015
765 0.000014
766 0.000019
767 0.000025
768 0.000031
769 0.000040
770 0.000042
771 0.000057
772 0.000068
773 0.000070
774 0.000073
775 0.000077
776 0.000085
777 0.000086
778 0.000079
779 0.000073
780 0.000068
781 0.000059
782 0.000050
783 0.000047
784 0.000043
785 0.000041
786 0.000041
787 0.000037
788 0.000036
789 0.000035
790 0.000030
791 0.000026
792 0.000024
793 0.000025
794 0.000027
795 0.000036
796 0.000038
797 0.000040
798 0.000043
799 0.000045
800 0.000046
801 0.000050
802 0.000059
803 0.000064
804 0.000062
805 0.000061
806 0.000050
807 0.000045
808 0.000037
809 0.000033
