# i correlation
1 0.002133
2 0.001999
3 0.001892
4 0.001803
5 0.001736
6 0.001689
7 0.001658
8 0.001639
9 0.001609
10 0.001580
11 0.001547
12 0.001508
13 0.001473
14 0.001448
15 0.001428
16 0.001418
17 0.001413
18 0.001417
19 0.001405
20 0.001391
21 0.001375
22 0.001358
23 0.001349
24 0.001344
25 0.001342
26 0.001357
27 0.001376
28 0.001389
29 0.001403
30 0.001399
31 0.001390
32 0.001376
33 0.001366
34 0.001350
35 0.001338
36 0.001321
37 0.001304
38 0.001287
39 0.001261
40 0.001241
41 0.001231
42 0.001217
43 0.001217
44 0.001211
45 0.001196
46 0.001186
47 0.001187
48 0.001188
49 0.001193
50 0.001198
51 0.001209
52 0.001217
53 0.001220
54 0.001219
55 0.001226
56 0.001244
57 0.001246
58 0.001243
59 0.001254
60 0.001263
61 0.001257
62 0.001248
63 0.001227
64 0.001207
65 0.001184
66 0.001152
67 0.001139
68 0.001117
69 0.001107
70 0.001092
71 0.001090
72 0.001074
73 0.001049
74 0.001031
75 0.001015
76 0.001006
77 0.001007
78 0.001001
79 0.001007
80 0.000999
81 0.000995
82 0.001002
83 0.001009
84 0.001010
85 0.001016
86 0.001013
87 0.001008
88 0.001013
89 0.001018
90 0.001012
91 0.001006
92 0.001006
93 0.000994
94 0.000974
95 0.000963
96 0.000953
97 0.000935
98 0.000915
99 0.000874
100 0.000846
101 0.000831
102 0.000818
103 0.000814
104 0.000803
105 0.000803
106 0.000800
107 0.000805
108 0.000799
109 0.000791
110 0.000783
111 0.000774
112 0.000770
113 0.000772
114 0.000771
115 0.000777
116 0.000780
117 0.000775
118 0.000771
119 0.000765
120 0.000777
121 0.000786
122 0.000788
123 0.000792
124 0.000801
125 0.000801
126 0.000790
127 0.000789
128 0.000775
129 0.000754
130 0.000745
131 0.000734
132 0.000718
133 0.000710
134 0.000699
135 0.000690
136 0.000693
137 0.000677
138 0.000680
139 0.000665
140 0.000650
141 0.000633
142 0.000621
143 0.000608
144 0.000609
145 0.000608
146 0.000627
147 0.000635
148 0.000641
149 0.000637
150 0.000649
151 0.000665
152 0.000668
153 0.000662
154 0.000662
155 0.000639
156 0.000631
157 0.000623
158 0.000610
159 0.000604
160 0.000600
161 0.000594
162 0.000594
163 0.000591
164 0.000592
165 0.000589
166 0.000581
167 0.000589
168 0.000586
169 0.000587
170 0.000591
171 0.000588
172 0.000579
173 0.000574
174 0.000583
175 0.000598
176 0.000617
177 0.000634
178 0.000641
179 0.000644
180 0.000655
181 0.000652
182 0.000660
183 0.000660
184 0.000661
185 0.000661
186 0.000648
187 0.000650
188 0.000640
189 0.000629
190 0.000617
191 0.000606
192 0.000580
193 0.000539
194 0.000515
195 0.000498
196 0.000483
197 0.000473
198 0.000471
199 0.000455
200 0.000435
201 0.000415
202 0.000402
203 0.000396
204 0.000380
205 0.000362
206 0.000354
207 0.000359
208 0.000359
209 0.000370
210 0.000386
211 0.000400
212 0.000415
213 0.000426
214 0.000434
215 0.000443
216 0.000433
217 0.000433
218 0.000440
219 0.000451
220 0.000446
221 0.000439
222 0.000432
223 0.000417
224 0.000399
225 0.000391
226 0.000395
227 0.000407
228 0.000409
229 0.000416
230 0.000423
231 0.000424
232 0.000416
233 0.000410
234 0.000407
235 0.000406
236 0.000394
237 0.000375
238 0.000377
239 0.000381
240 0.000380
241 0.000381
242 0.000376
243 0.000377
244 0.000384
245 0.000398
246 0.000421
247 0.000441
248 0.000453
249 0.000462
250 0.000455
251 0.000428
252 0.000406
253 0.000387
254 0.000380
255 0.000371
256 0.000360
257 0.000355
258 0.000348
259 0.000351
260 0.000342
261 0.000324
262 0.000307
263 0.000284
264 0.000267
265 0.000262
266 0.000271
267 0.000280
268 0.000286
269 0.000285
270 0.000282
271 0.000281
272 0.000278
273 0.000266
274 0.000274
275 0.000284
276 0.000296
277 0.000298
278 0.000293
279 0.000294
280 0.000283
281 0.000265
282 0.000254
283 0.000240
284 0.000213
285 0.000200
286 0.000188
287 0.000188
288 0.000187
289 0.000186
290 0.000181
291 0.000177
292 0.000176
293 0.000160
294 0.000154
295 0.000150
296 0.000144
297 0.000151
298 0.000158
299 0.000165
300 0.000176
301 0.000197
302 0.000218
303 0.000233
304 0.000237
305 0.000248
306 0.000247
307 0.000260
308 0.000267
309 0.000276
310 0.000295
311 0.000305
312 0.000319
313 0.000330
314 0.000328
315 0.000331
316 0.000321
317 0.000309
318 0.000306
319 0.000298
320 0.000294
321 0.000298
322 0.000296
323 0.000297
324 0.000287
325 0.000267
326 0.000255
327 0.000243
328 0.000241
329 0.000231
330 0.000219
331 0.000221
332 0.000225
333 0.000215
334 0.000210
335 0.000210
336 0.000217
337 0.000224
338 0.000235
339 0.000247
340 0.000247
341 0.000251
342 0.000259
343 0.000244
344 0.000231
345 0.000228
346 0.000220
347 0.000219
348 0.000232
349 0.000241
350 0.000253
351 0.000253
352 0.000234
353 0.000225
354 0.000227
355 0.000230
356 0.000240
357 0.000255
358 0.000272
359 0.000291
360 0.000302
361 0.000310
362 0.000312
363 0.000305
364 0.000318
365 0.000343
366 0.000369
367 0.000390
368 0.000397
369 0.000396
370 0.000378
371 0.000364
372 0.000361
373 0.000364
374 0.000377
375 0.000381
376 0.000382
377 0.000384
378 0.000383
379 0.000385
380 0.000388
381 0.000380
382 0.000377
383 0.000383
384 0.000380
385 0.000372
386 0.000368
387 0.000361
388 0.000355
389 0.000349
390 0.000349
391 0.000342
392 0.000344
393 0.000340
394 0.000352
395 0.000370
396 0.000376
397 0.000392
398 0.000415
399 0.000434
400 0.000442
401 0.000453
402 0.000458
403 0.000455
404 0.000448
405 0.000449
406 0.000462
407 0.000470
408 0.000474
409 0.000474
410 0.000484
411 0.000483
412 0.000470
413 0.000460
414 0.000442
415 0.000433
416 0.000428
417 0.000436
418 0.000440
419 0.000439
420 0.000429
421 0.000421
422 0.000415
423 0.000408
424 0.000407
425 0.000421
426 0.000436
427 0.000447
428 0.000461
429 0.000475
430 0.000487
431 0.000493
432 0.000485
433 0.000494
434 0.000502
435 0.000504
436 0.000511
437 0.000524
438 0.000533
439 0.000539
440 0.000534
441 0.000523
442 0.000514
443 0.000508
444 0.000506
445 0.000512
446 0.000517
447 0.000506
448 0.000498
449 0.000497
450 0.000490
451 0.000481
452 0.000471
453 0.000467
454 0.000464
455 0.000463
456 0.000465
457 0.000474
458 0.000477
459 0.000490
460 0.000484
461 0.000488
462 0.000493
463 0.000497
464 0.000491
465 0.000487
466 0.000488
467 0.000488
468 0.000486
469 0.000493
470 0.000491
471 0.000485
472 0.000492
473 0.000486
474 0.000492
475 0.000496
476 0.000487
477 0.000486
478 0.000487
479 0.000486
480 0.000482
481 0.000476
482 0.000469
483 0.000457
484 0.000448
485 0.000446
486 0.000457
487 0.000474
488 0.000492
489 0.000514
490 0.000528
491 0.000530
492 0.000541
493 0.000554
494 0.000559
495 0.000570
496 0.000577
497 0.000569
498 0.000561
499 0.000547
500 0.000538
501 0.000535
502 0.000536
503 0.000532
504 0.000532
505 0.000530
506 0.000524
507 0.000513
508 0.000492
509 0.000472
510 0.000456
511 0.000445
512 0.000440
513 0.000441
514 0.000435
515 0.000423
516 0.000412
517 0.000403
518 0.000394
519 0.000387
520 0.000379
521 0.000378
522 0.000386
523 0.000396
524 0.000414
525 0.000420
526 0.000438
527 0.000442
528 0.000434
529 0.000429
530 0.000433
531 0.000443
532 0.000447
533 0.000450
534 0.000463
535 0.000473
536 0.000485
537 0.000489
538 0.000485
539 0.000479
540 0.000477
541 0.000480
542 0.000493
543 0.000494
544 0.000488
545 0.000489
546 0.000500
547 0.000507
548 0.000516
549 0.000522
550 0.000519
551 0.000524
552 0.000520
553 0.000519
554 0.000512
555 0.000509
556 0.000507
557 0.000514
558 0.000520
559 0.000526
560 0.000528
561 0.000528
562 0.000530
563 0.000527
564 0.000520
565 0.000507
566 0.000490
567 0.000475
568 0.000460
569 0.000449
570 0.000448
571 0.000455
572 0.000462
573 0.000466
574 0.000465
575 0.000462
576 0.000461
577 0.000464
578 0.000467
579 0.000465
580 0.000461
581 0.000457
582 0.000451
583 0.000447
584 0.000446
585 0.000445
586 0.000446
587 0.000433
588 0.000428
589 0.000426
590 0.000427
591 0.000423
592 0.000415
593 0.000411
594 0.000407
595 0.000411
596 0.000419
597 0.000420
598 0.000407
599 0.000397
600 0.000384
601 0.000367
602 0.000357
603 0.000353
604 0.000341
605 0.000340
606 0.000333
607 0.000333
608 0.000337
609 0.000347
610 0.000362
611 0.000368
612 0.000368
613 0.000375
614 0.000381
615 0.000390
616 0.000395
617 0.000396
618 0.000396
619 0.000390
620 0.000393
621 0.000393
622 0.000397
623 0.000398
624 0.000402
625 0.000410
626 0.000418
627 0.000424
628 0.000432
629 0.000441
630 0.000438
631 0.000421
632 0.000406
633 0.000401
634 0.000399
635 0.000388
636 0.000380
637 0.000377
638 0.000367
639 0.000365
640 0.000363
641 0.000357
642 0.000352
643 0.000347
644 0.000352
645 0.000354
646 0.000351
647 0.000350
648 0.000346
649 0.000344
650 0.000340
651 0.000339
652 0.000341
653 0.000341
654 0.000338
655 0.000346
656 0.000357
657 0.000366
658 0.000368
659 0.000365
660 0.000357
661 0.000340
662 0.000317
663 0.000306
664 0.000299
665 0.000288
666 0.000283
667 0.000279
668 0.000276
669 0.000271
670 0.000266
671 0.000256
672 0.000245
673 0.000235
674 0.000232
675 0.000222
676 0.000216
677 0.000216
678 0.000220
679 0.000221
680 0.000226
681 0.000227
682 0.000230
683 0.000226
684 0.000227
685 0.000227
686 0.000229
687 0.000238
688 0.000246
689 0.000249
690 0.000243
691 0.000229
692 0.000211
693 0.000202
694 0.000192
695 0.000174
696 0.000159
697 0.000143
698 0.000132
699 0.000125
700 0.000117
701 0.000119
702 0.000116
703 0.000109
704 0.000107
705 0.000101
706 0.000098
707 0.000102
708 0.000109
709 0.000120
710 0.000127
711 0.000135
712 0.000137
713 0.000140
714 0.000137
715 0.000139
716 0.000153
717 0.000160
718 0.000171
719 0.000178
720 0.000184
721 0.000186
722 0.000194
723 0.000197
724 0.000195
725 0.000193
726 0.000186
727 0.000184
728 0.000176
729 0.000162
730 0.000153
731 0.000143
732 0.000134
733 0.000129
734 0.000121
735 0.000110
736 0.000102
737 0.000094
738 0.000094
739 0.000098
740 0.000107
741 0.000113
742 0.000117
743 0.000116
744 0.000114
745 0.000110
746 0.000103
747 0.000095
748 0.000093
749 0.000098
750 0.000098
751 0.000098
752 0.000091
753 0.000086
754 0.000079
755 0.000063
756 0.000052
757 0.000044
758 0.000032
759 0.000024
760 0.000026
761 0.000032
762 0.000041
763 0.000045
764 0.000049
765 0.000050
766 0.000051
767 0.000047
768 0.000046
769 0.000042
770 0.000045
771 0.000049
772 0.000058
773 0.000064
774 0.000067
775 0.000074
776 0.000075
777 0.000072
778 0.000071
779 0.000068
780 0.000069
781 0.000066
782 0.000061
783 0.000053
784 0.000045
785 0.000037
786 0.000025
787 0.000011
788 -0.000004
789 -0.000021
790 -0.000029
791 -0.000027
792 -0.000021
793 -0.000014
794 -0.000009
795 -0.000005
796 -0.000005
797 -0.000006
798 -0.000007
799 -0.000010
800 -0.000012
801 -0.000012
802 -0.000010
803 -0.000003
804 0.000009
805 0.000024
806 0.000035
807 0.000038
808 0.000037
809 0.000034
