# i correlation
1 0.001943
2 0.001846
3 0.001754
4 0.001671
5 0.001588
6 0.001522
7 0.001457
8 0.001403
9 0.001350
10 0.001300
11 0.001257
12 0.001224
13 0.001202
14 0.001188
15 0.001170
16 0.001147
17 0.001129
18 0.001112
19 0.001088
20 0.001075
21 0.001058
22 0.001050
23 0.001031
24 0.001026
25 0.001036
26 0.001043
27 0.001050
28 0.001061
29 0.001069
30 0.001083
31 0.001100
32 0.001113
33 0.001120
34 0.001120
35 0.001113
36 0.001096
37 0.001086
38 0.001083
39 0.001090
40 0.001096
41 0.001102
42 0.001109
43 0.001118
44 0.001117
45 0.001112
46 0.001104
47 0.001089
48 0.001078
49 0.001074
50 0.001069
51 0.001065
52 0.001066
53 0.001062
54 0.001051
55 0.001046
56 0.001044
57 0.001045
58 0.001052
59 0.001057
60 0.001052
61 0.001046
62 0.001045
63 0.001027
64 0.001000
65 0.000975
66 0.000954
67 0.000922
68 0.000890
69 0.000862
70 0.000844
71 0.000825
72 0.000819
73 0.000810
74 0.000813
75 0.000819
76 0.000818
77 0.000824
78 0.000823
79 0.000829
80 0.000834
81 0.000842
82 0.000842
83 0.000848
84 0.000844
85 0.000842
86 0.000832
87 0.000823
88 0.000812
89 0.000801
90 0.000796
91 0.000796
92 0.000807
93 0.000805
94 0.000802
95 0.000804
96 0.000795
97 0.000796
98 0.000793
99 0.000805
100 0.000801
101 0.000801
102 0.000800
103 0.000804
104 0.000798
105 0.000796
106 0.000789
107 0.000777
108 0.000771
109 0.000746
110 0.000728
111 0.000680
112 0.000657
113 0.000641
114 0.000629
115 0.000613
116 0.000592
117 0.000587
118 0.000591
119 0.000595
120 0.000597
121 0.000611
122 0.000623
123 0.000643
124 0.000657
125 0.000672
126 0.000681
127 0.000686
128 0.000691
129 0.000693
130 0.000687
131 0.000678
132 0.000681
133 0.000678
134 0.000678
135 0.000670
136 0.000669
137 0.000679
138 0.000690
139 0.000711
140 0.000726
141 0.000722
142 0.000711
143 0.000698
144 0.000689
145 0.000683
146 0.000660
147 0.000640
148 0.000611
149 0.000600
150 0.000584
151 0.000573
152 0.000561
153 0.000559
154 0.000560
155 0.000559
156 0.000554
157 0.000553
158 0.000548
159 0.000546
160 0.000543
161 0.000544
162 0.000545
163 0.000540
164 0.000546
165 0.000553
166 0.000559
167 0.000566
168 0.000562
169 0.000569
170 0.000568
171 0.000570
172 0.000572
173 0.000561
174 0.000547
175 0.000535
176 0.000528
177 0.000511
178 0.000496
179 0.000490
180 0.000494
181 0.000494
182 0.000486
183 0.000494
184 0.000502
185 0.000510
186 0.000516
187 0.000533
188 0.000536
189 0.000544
190 0.000542
191 0.000538
192 0.000528
193 0.000513
194 0.000496
195 0.000495
196 0.000488
197 0.000489
198 0.000498
199 0.000501
200 0.000507
201 0.000515
202 0.000526
203 0.000529
204 0.000530
205 0.000535
206 0.000522
207 0.000514
208 0.000505
209 0.000500
210 0.000490
211 0.000487
212 0.000485
213 0.000478
214 0.000466
215 0.000457
216 0.000441
217 0.000422
218 0.000411
219 0.000409
220 0.000414
221 0.000412
222 0.000413
223 0.000414
224 0.000413
225 0.000407
226 0.000411
227 0.000414
228 0.000423
229 0.000439
230 0.000447
231 0.000450
232 0.000457
233 0.000465
234 0.000465
235 0.000457
236 0.000459
237 0.000463
238 0.000467
239 0.000464
240 0.000456
241 0.000451
242 0.000442
243 0.000435
244 0.000432
245 0.000420
246 0.000416
247 0.000413
248 0.000420
249 0.000415
250 0.000415
251 0.000410
252 0.000408
253 0.000404
254 0.000411
255 0.000407
256 0.000400
257 0.000409
258 0.000410
259 0.000411
260 0.000415
261 0.000421
262 0.000440
263 0.000460
264 0.000485
265 0.000501
266 0.000506
267 0.000514
268 0.000528
269 0.000537
270 0.000544
271 0.000555
272 0.000557
273 0.000558
274 0.000558
275 0.000550
276 0.000539
277 0.000529
278 0.000520
279 0.000525
280 0.000511
281 0.000498
282 0.000498
283 0.000490
284 0.000485
285 0.000475
286 0.000456
287 0.000439
288 0.000421
289 0.000419
290 0.000420
291 0.000423
292 0.000412
293 0.000412
294 0.000418
295 0.000431
296 0.000442
297 0.000453
298 0.000456
299 0.000456
300 0.000446
301 0.000440
302 0.000433
303 0.000441
304 0.000445
305 0.000442
306 0.000436
307 0.000431
308 0.000426
309 0.000423
310 0.000423
311 0.000429
312 0.000431
313 0.000428
314 0.000425
315 0.000426
316 0.000424
317 0.000424
318 0.000418
319 0.000409
320 0.000394
321 0.000395
322 0.000391
323 0.000394
324 0.000405
325 0.000411
326 0.000418
327 0.000414
328 0.000428
329 0.000447
330 0.000465
331 0.000467
332 0.000467
333 0.000459
334 0.000451
335 0.000442
336 0.000446
337 0.000452
338 0.000449
339 0.000441
340 0.000435
341 0.000437
342 0.000441
343 0.000449
344 0.000458
345 0.000464
346 0.000468
347 0.000468
348 0.000466
349 0.000463
350 0.000450
351 0.000438
352 0.000430
353 0.000420
354 0.000412
355 0.000397
356 0.000394
357 0.000388
358 0.000371
359 0.000361
360 0.000352
361 0.000348
362 0.000342
363 0.000338
364 0.000334
365 0.000328
366 0.000322
367 0.000319
368 0.000306
369 0.000300
370 0.000298
371 0.000298
372 0.000296
373 0.000302
374 0.000304
375 0.000298
376 0.000298
377 0.000302
378 0.000311
379 0.000317
380 0.000318
381 0.000329
382 0.000343
383 0.000361
384 0.000372
385 0.000375
386 0.000378
387 0.000385
388 0.000398
389 0.000402
390 0.000397
391 0.000382
392 0.000372
393 0.000355
394 0.000342
395 0.000329
396 0.000324
397 0.000326
398 0.000330
399 0.000335
400 0.000332
401 0.000328
402 0.000326
403 0.000331
404 0.000333
405 0.000331
406 0.000318
407 0.000306
408 0.000299
409 0.000295
410 0.000298
411 0.000310
412 0.000319
413 0.000328
414 0.000330
415 0.000327
416 0.000331
417 0.000333
418 0.000333
419 0.000334
420 0.000330
421 0.000323
422 0.000311
423 0.000308
424 0.000309
425 0.000309
426 0.000310
427 0.000321
428 0.000332
429 0.000353
430 0.000367
431 0.000385
432 0.000394
433 0.000406
434 0.000417
435 0.000424
436 0.000433
437 0.000430
438 0.000434
439 0.000427
440 0.000415
441 0.000407
442 0.000404
443 0.000402
444 0.000408
445 0.000407
446 0.000406
447 0.000398
448 0.000382
449 0.000375
450 0.000369
451 0.000365
452 0.000354
453 0.000339
454 0.000323
455 0.000307
456 0.000289
457 0.000270
458 0.000264
459 0.000258
460 0.000250
461 0.000245
462 0.000254
463 0.000261
464 0.000270
465 0.000277
466 0.000286
467 0.000299
468 0.000313
469 0.000332
470 0.000350
471 0.000367
472 0.000387
473 0.000402
474 0.000420
475 0.000435
476 0.000444
477 0.000454
478 0.000452
479 0.000445
480 0.000440
481 0.000441
482 0.000438
483 0.000441
484 0.000439
485 0.000432
486 0.000436
487 0.000440
488 0.000439
489 0.000438
490 0.000439
491 0.000441
492 0.000436
493 0.000437
494 0.000435
495 0.000435
496 0.000434
497 0.000428
498 0.000423
499 0.000402
500 0.000379
501 0.000358
502 0.000347
503 0.000343
504 0.000339
505 0.000338
506 0.000343
507 0.000348
508 0.000350
509 0.000357
510 0.000365
511 0.000376
512 0.000383
513 0.000387
514 0.000375
515 0.000368
516 0.000367
517 0.000364
518 0.000360
519 0.000352
520 0.000352
521 0.000348
522 0.000339
523 0.000337
524 0.000335
525 0.000341
526 0.000348
527 0.000352
528 0.000364
529 0.000373
530 0.000376
531 0.000374
532 0.000366
533 0.000372
534 0.000371
535 0.000369
536 0.000368
537 0.000374
538 0.000377
539 0.000379
540 0.000369
541 0.000365
542 0.000360
543 0.000363
544 0.000366
545 0.000366
546 0.000366
547 0.000362
548 0.000361
549 0.000358
550 0.000358
551 0.000358
552 0.000367
553 0.000377
554 0.000390
555 0.000400
556 0.000406
557 0.000405
558 0.000407
559 0.000409
560 0.000402
561 0.000398
562 0.000391
563 0.000384
564 0.000374
565 0.000366
566 0.000357
567 0.000349
568 0.000349
569 0.000355
570 0.000358
571 0.000362
572 0.000373
573 0.000385
574 0.000397
575 0.000410
576 0.000418
577 0.000422
578 0.000433
579 0.000437
580 0.000427
581 0.000425
582 0.000418
583 0.000415
584 0.000405
585 0.000398
586 0.000390
587 0.000386
588 0.000380
589 0.000369
590 0.000362
591 0.000355
592 0.000355
593 0.000354
594 0.000355
595 0.000356
596 0.000362
597 0.000365
598 0.000365
599 0.000371
600 0.000376
601 0.000384
602 0.000388
603 0.000395
604 0.000393
605 0.000397
606 0.000404
607 0.000408
608 0.000414
609 0.000416
610 0.000424
611 0.000428
612 0.000439
613 0.000453
614 0.000465
615 0.000475
616 0.000477
617 0.000478
618 0.000471
619 0.000462
620 0.000451
621 0.000447
622 0.000436
623 0.000421
624 0.000407
625 0.000392
626 0.000375
627 0.000372
628 0.000373
629 0.000361
630 0.000355
631 0.000352
632 0.000343
633 0.000341
634 0.000342
635 0.000348
636 0.000353
637 0.000357
638 0.000371
639 0.000378
640 0.000380
641 0.000384
642 0.000384
643 0.000373
644 0.000364
645 0.000353
646 0.000341
647 0.000342
648 0.000343
649 0.000345
650 0.000345
651 0.000344
652 0.000343
653 0.000337
654 0.000329
655 0.000332
656 0.000340
657 0.000345
658 0.000349
659 0.000351
660 0.000358
661 0.000359
662 0.000367
663 0.000363
664 0.000362
665 0.000358
666 0.000349
667 0.000344
668 0.000340
669 0.000327
670 0.000321
671 0.000311
672 0.000301
673 0.000297
674 0.000295
675 0.000289
676 0.000286
677 0.000288
678 0.000295
679 0.000301
680 0.000310
681 0.000312
682 0.000325
683 0.000332
684 0.000337
685 0.000335
686 0.000335
687 0.000334
688 0.000331
689 0.000321
690 0.000312
691 0.000306
692 0.000301
693 0.000298
694 0.000293
695 0.000290
696 0.000294
697 0.000292
698 0.000292
699 0.000289
700 0.000293
701 0.000295
702 0.000299
703 0.000299
704 0.000298
705 0.000294
706 0.000294
707 0.000292
708 0.000289
709 0.000291
710 0.000296
711 0.000295
712 0.000296
713 0.000303
714 0.000314
715 0.000325
716 0.000332
717 0.000332
718 0.000338
719 0.000334
720 0.000331
721 0.000323
722 0.000314
723 0.000302
724 0.000293
725 0.000286
726 0.000278
727 0.000272
728 0.000270
729 0.000262
730 0.000262
731 0.000264
732 0.000264
733 0.000265
734 0.000270
735 0.000278
736 0.000290
737 0.000295
738 0.000304
739 0.000315
740 0.000330
741 0.000350
742 0.000368
743 0.000380
744 0.000386
745 0.000396
746 0.000408
747 0.000414
748 0.000421
749 0.000424
750 0.000427
751 0.000421
752 0.000409
753 0.000396
754 0.000385
755 0.000371
756 0.000358
757 0.000351
758 0.000342
759 0.000337
760 0.000331
761 0.000325
762 0.000319
763 0.000315
764 0.000313
765 0.000313
766 0.000314
767 0.000317
768 0.000324
769 0.000319
770 0.000315
771 0.000304
772 0.000296
773 0.000287
774 0.000285
775 0.000286
776 0.000284
777 0.000285
778 0.000286
779 0.000285
780 0.000285
781 0.000290
782 0.000291
783 0.000294
784 0.000296
785 0.000300
786 0.000300
787 0.000302
788 0.000304
789 0.000304
790 0.000305
791 0.000305
792 0.000305
793 0.000305
794 0.000303
795 0.000299
796 0.000294
797 0.000289
798 0.000286
799 0.000282
800 0.000278
801 0.000277
802 0.000278
803 0.000272
804 0.000264
805 0.000257
806 0.000250
807 0.000244
808 0.000238
809 0.000234
