# i correlation
1 0.001747
2 0.001619
3 0.001517
4 0.001443
5 0.001387
6 0.001348
7 0.001326
8 0.001315
9 0.001285
10 0.001258
11 0.001239
12 0.001224
13 0.001209
14 0.001198
15 0.001188
16 0.001181
17 0.001177
18 0.001166
19 0.001158
20 0.001138
21 0.001120
22 0.001093
23 0.001063
24 0.001044
25 0.001045
26 0.001052
27 0.001054
28 0.001045
29 0.001039
30 0.001030
31 0.001016
32 0.001011
33 0.001011
34 0.001011
35 0.001005
36 0.000987
37 0.000962
38 0.000925
39 0.000888
40 0.000860
41 0.000843
42 0.000845
43 0.000844
44 0.000844
45 0.000841
46 0.000837
47 0.000828
48 0.000814
49 0.000807
50 0.000796
51 0.000777
52 0.000764
53 0.000766
54 0.000753
55 0.000747
56 0.000737
57 0.000729
58 0.000721
59 0.000722
60 0.000728
61 0.000740
62 0.000751
63 0.000747
64 0.000758
65 0.000759
66 0.000747
67 0.000740
68 0.000734
69 0.000737
70 0.000734
71 0.000737
72 0.000749
73 0.000760
74 0.000770
75 0.000765
76 0.000764
77 0.000751
78 0.000745
79 0.000739
80 0.000746
81 0.000751
82 0.000769
83 0.000778
84 0.000760
85 0.000748
86 0.000736
87 0.000737
88 0.000738
89 0.000728
90 0.000726
91 0.000733
92 0.000738
93 0.000737
94 0.000738
95 0.000748
96 0.000757
97 0.000761
98 0.000754
99 0.000738
100 0.000730
101 0.000737
102 0.000737
103 0.000740
104 0.000743
105 0.000747
106 0.000754
107 0.000759
108 0.000751
109 0.000755
110 0.000740
111 0.000736
112 0.000720
113 0.000704
114 0.000703
115 0.000717
116 0.000727
117 0.000738
118 0.000740
119 0.000732
120 0.000727
121 0.000710
122 0.000709
123 0.000719
124 0.000729
125 0.000733
126 0.000731
127 0.000728
128 0.000720
129 0.000716
130 0.000719
131 0.000723
132 0.000708
133 0.000694
134 0.000684
135 0.000678
136 0.000665
137 0.000667
138 0.000668
139 0.000664
140 0.000660
141 0.000670
142 0.000685
143 0.000697
144 0.000709
145 0.000715
146 0.000712
147 0.000707
148 0.000684
149 0.000677
150 0.000673
151 0.000665
152 0.000659
153 0.000649
154 0.000640
155 0.000637
156 0.000648
157 0.000651
158 0.000657
159 0.000664
160 0.000665
161 0.000671
162 0.000686
163 0.000695
164 0.000697
165 0.000686
166 0.000669
167 0.000655
168 0.000641
169 0.000631
170 0.000631
171 0.000640
172 0.000650
173 0.000665
174 0.000657
175 0.000641
176 0.000631
177 0.000621
178 0.000628
179 0.000646
180 0.000667
181 0.000680
182 0.000680
183 0.000676
184 0.000668
185 0.000652
186 0.000627
187 0.000618
188 0.000608
189 0.000612
190 0.000617
191 0.000630
192 0.000650
193 0.000658
194 0.000662
195 0.000661
196 0.000656
197 0.000652
198 0.000659
199 0.000677
200 0.000684
201 0.000677
202 0.000669
203 0.000666
204 0.000662
205 0.000661
206 0.000662
207 0.000673
208 0.000676
209 0.000673
210 0.000652
211 0.000642
212 0.000634
213 0.000633
214 0.000620
215 0.000608
216 0.000594
217 0.000590
218 0.000589
219 0.000590
220 0.000583
221 0.000568
222 0.000557
223 0.000552
224 0.000545
225 0.000548
226 0.000566
227 0.000586
228 0.000607
229 0.000615
230 0.000608
231 0.000598
232 0.000601
233 0.000603
234 0.000609
235 0.000615
236 0.000622
237 0.000622
238 0.000633
239 0.000635
240 0.000634
241 0.000627
242 0.000616
243 0.000609
244 0.000612
245 0.000613
246 0.000617
247 0.000618
248 0.000616
249 0.000609
250 0.000593
251 0.000574
252 0.000563
253 0.000565
254 0.000576
255 0.000573
256 0.000577
257 0.000569
258 0.000559
259 0.000535
260 0.000514
261 0.000514
262 0.000503
263 0.000490
264 0.000492
265 0.000509
266 0.000524
267 0.000524
268 0.000520
269 0.000516
270 0.000502
271 0.000497
272 0.000496
273 0.000497
274 0.000499
275 0.000498
276 0.000499
277 0.000501
278 0.000493
279 0.000482
280 0.000476
281 0.000464
282 0.000459
283 0.000455
284 0.000448
285 0.000442
286 0.000440
287 0.000443
288 0.000438
289 0.000428
290 0.000434
291 0.000447
292 0.000446
293 0.000437
294 0.000422
295 0.000393
296 0.000384
297 0.000372
298 0.000378
299 0.000389
300 0.000405
301 0.000408
302 0.000413
303 0.000410
304 0.000406
305 0.000404
306 0.000404
307 0.000403
308 0.000405
309 0.000411
310 0.000417
311 0.000423
312 0.000417
313 0.000418
314 0.000434
315 0.000444
316 0.000441
317 0.000438
318 0.000438
319 0.000431
320 0.000419
321 0.000413
322 0.000412
323 0.000408
324 0.000400
325 0.000396
326 0.000404
327 0.000406
328 0.000416
329 0.000427
330 0.000434
331 0.000435
332 0.000428
333 0.000422
334 0.000423
335 0.000431
336 0.000449
337 0.000454
338 0.000445
339 0.000440
340 0.000431
341 0.000422
342 0.000415
343 0.000429
344 0.000449
345 0.000459
346 0.000466
347 0.000465
348 0.000464
349 0.000471
350 0.000473
351 0.000484
352 0.000483
353 0.000472
354 0.000460
355 0.000452
356 0.000445
357 0.000434
358 0.000437
359 0.000438
360 0.000438
361 0.000442
362 0.000451
363 0.000462
364 0.000459
365 0.000454
366 0.000442
367 0.000430
368 0.000416
369 0.000402
370 0.000394
371 0.000393
372 0.000402
373 0.000402
374 0.000399
375 0.000400
376 0.000393
377 0.000379
378 0.000370
379 0.000367
380 0.000371
381 0.000376
382 0.000370
383 0.000361
384 0.000345
385 0.000340
386 0.000336
387 0.000329
388 0.000337
389 0.000350
390 0.000359
391 0.000372
392 0.000378
393 0.000379
394 0.000381
395 0.000392
396 0.000406
397 0.000423
398 0.000430
399 0.000423
400 0.000415
401 0.000411
402 0.000407
403 0.000395
404 0.000380
405 0.000371
406 0.000354
407 0.000347
408 0.000354
409 0.000363
410 0.000373
411 0.000387
412 0.000387
413 0.000382
414 0.000371
415 0.000369
416 0.000379
417 0.000385
418 0.000390
419 0.000388
420 0.000390
421 0.000379
422 0.000382
423 0.000382
424 0.000386
425 0.000385
426 0.000387
427 0.000395
428 0.000400
429 0.000409
430 0.000414
431 0.000425
432 0.000434
433 0.000432
434 0.000435
435 0.000433
436 0.000426
437 0.000429
438 0.000431
439 0.000433
440 0.000431
441 0.000440
442 0.000437
443 0.000427
444 0.000412
445 0.000404
446 0.000399
447 0.000386
448 0.000371
449 0.000361
450 0.000354
451 0.000347
452 0.000346
453 0.000342
454 0.000337
455 0.000340
456 0.000335
457 0.000333
458 0.000333
459 0.000333
460 0.000339
461 0.000342
462 0.000341
463 0.000342
464 0.000341
465 0.000338
466 0.000339
467 0.000346
468 0.000349
469 0.000352
470 0.000346
471 0.000348
472 0.000357
473 0.000372
474 0.000377
475 0.000380
476 0.000377
477 0.000373
478 0.000371
479 0.000365
480 0.000358
481 0.000350
482 0.000338
483 0.000325
484 0.000324
485 0.000329
486 0.000340
487 0.000348
488 0.000343
489 0.000339
490 0.000329
491 0.000326
492 0.000333
493 0.000345
494 0.000365
495 0.000377
496 0.000388
497 0.000387
498 0.000378
499 0.000376
500 0.000373
501 0.000366
502 0.000359
503 0.000355
504 0.000354
505 0.000368
506 0.000381
507 0.000383
508 0.000373
509 0.000360
510 0.000347
511 0.000339
512 0.000339
513 0.000347
514 0.000356
515 0.000360
516 0.000358
517 0.000352
518 0.000341
519 0.000343
520 0.000342
521 0.000346
522 0.000358
523 0.000359
524 0.000357
525 0.000347
526 0.000342
527 0.000332
528 0.000319
529 0.000307
530 0.000306
531 0.000308
532 0.000305
533 0.000300
534 0.000298
535 0.000300
536 0.000306
537 0.000295
538 0.000294
539 0.000289
540 0.000285
541 0.000285
542 0.000298
543 0.000310
544 0.000319
545 0.000321
546 0.000322
547 0.000322
548 0.000320
549 0.000317
550 0.000310
551 0.000298
552 0.000288
553 0.000279
554 0.000272
555 0.000272
556 0.000271
557 0.000271
558 0.000268
559 0.000262
560 0.000248
561 0.000241
562 0.000229
563 0.000222
564 0.000217
565 0.000206
566 0.000197
567 0.000193
568 0.000191
569 0.000200
570 0.000203
571 0.000202
572 0.000207
573 0.000208
574 0.000210
575 0.000209
576 0.000214
577 0.000222
578 0.000233
579 0.000241
580 0.000249
581 0.000250
582 0.000251
583 0.000247
584 0.000247
585 0.000244
586 0.000238
587 0.000229
588 0.000222
589 0.000220
590 0.000227
591 0.000238
592 0.000243
593 0.000247
594 0.000251
595 0.000257
596 0.000259
597 0.000262
598 0.000267
599 0.000265
600 0.000267
601 0.000271
602 0.000275
603 0.000279
604 0.000283
605 0.000285
606 0.000279
607 0.000276
608 0.000281
609 0.000290
610 0.000299
611 0.000307
612 0.000315
613 0.000310
614 0.000301
615 0.000291
616 0.000289
617 0.000290
618 0.000293
619 0.000297
620 0.000299
621 0.000294
622 0.000291
623 0.000288
624 0.000288
625 0.000283
626 0.000277
627 0.000269
628 0.000268
629 0.000276
630 0.000282
631 0.000296
632 0.000296
633 0.000301
634 0.000303
635 0.000303
636 0.000303
637 0.000312
638 0.000316
639 0.000322
640 0.000317
641 0.000310
642 0.000306
643 0.000300
644 0.000298
645 0.000301
646 0.000303
647 0.000301
648 0.000287
649 0.000280
650 0.000283
651 0.000285
652 0.000287
653 0.000279
654 0.000275
655 0.000266
656 0.000255
657 0.000245
658 0.000246
659 0.000247
660 0.000250
661 0.000249
662 0.000250
663 0.000253
664 0.000260
665 0.000266
666 0.000276
667 0.000281
668 0.000287
669 0.000298
670 0.000307
671 0.000304
672 0.000303
673 0.000304
674 0.000304
675 0.000302
676 0.000305
677 0.000311
678 0.000323
679 0.000330
680 0.000336
681 0.000342
682 0.000341
683 0.000333
684 0.000329
685 0.000331
686 0.000334
687 0.000338
688 0.000342
689 0.000337
690 0.000325
691 0.000311
692 0.000299
693 0.000293
694 0.000289
695 0.000295
696 0.000307
697 0.000313
698 0.000315
699 0.000313
700 0.000312
701 0.000311
702 0.000309
703 0.000315
704 0.000324
705 0.000326
706 0.000325
707 0.000329
708 0.000328
709 0.000327
710 0.000324
711 0.000325
712 0.000326
713 0.000328
714 0.000331
715 0.000331
716 0.000330
717 0.000324
718 0.000313
719 0.000307
720 0.000302
721 0.000293
722 0.000286
723 0.000279
724 0.000273
725 0.000273
726 0.000277
727 0.000274
728 0.000271
729 0.000270
730 0.000270
731 0.000267
732 0.000261
733 0.000255
734 0.000256
735 0.000256
736 0.000245
737 0.000235
738 0.000234
739 0.000225
740 0.000220
741 0.000219
742 0.000222
743 0.000225
744 0.000222
745 0.000217
746 0.000216
747 0.000216
748 0.000213
749 0.000208
750 0.000210
751 0.000215
752 0.000219
753 0.000226
754 0.000230
755 0.000233
756 0.000230
757 0.000224
758 0.000219
759 0.000218
760 0.000220
761 0.000219
762 0.000222
763 0.000226
764 0.000225
765 0.000217
766 0.000205
767 0.000195
768 0.000189
769 0.000184
770 0.000186
771 0.000191
772 0.000197
773 0.000197
774 0.000193
775 0.000190
776 0.000190
777 0.000194
778 0.000201
779 0.000203
780 0.000205
781 0.000207
782 0.000208
783 0.000213
784 0.000213
785 0.000213
786 0.000211
787 0.000210
788 0.000207
789 0.000208
790 0.000211
791 0.000217
792 0.000220
793 0.000221
794 0.000215
795 0.000210
796 0.000206
797 0.000206
798 0.000206
799 0.000205
800 0.000202
801 0.000201
802 0.000200
803 0.000204
804 0.000211
805 0.000216
806 0.000218
807 0.000219
808 0.000222
809 0.000220
