# i correlation
1 0.001720
2 0.001617
3 0.001537
4 0.001476
5 0.001427
6 0.001387
7 0.001355
8 0.001322
9 0.001289
10 0.001258
11 0.001229
12 0.001201
13 0.001182
14 0.001155
15 0.001131
16 0.001110
17 0.001100
18 0.001089
19 0.001074
20 0.001058
21 0.001044
22 0.001033
23 0.001002
24 0.000988
25 0.000990
26 0.000990
27 0.000982
28 0.000969
29 0.000957
30 0.000949
31 0.000937
32 0.000917
33 0.000902
34 0.000883
35 0.000871
36 0.000873
37 0.000884
38 0.000886
39 0.000891
40 0.000892
41 0.000885
42 0.000876
43 0.000871
44 0.000872
45 0.000876
46 0.000877
47 0.000880
48 0.000875
49 0.000864
50 0.000850
51 0.000849
52 0.000859
53 0.000869
54 0.000881
55 0.000886
56 0.000908
57 0.000923
58 0.000927
59 0.000926
60 0.000917
61 0.000908
62 0.000896
63 0.000888
64 0.000880
65 0.000889
66 0.000900
67 0.000900
68 0.000906
69 0.000908
70 0.000910
71 0.000900
72 0.000893
73 0.000893
74 0.000900
75 0.000897
76 0.000897
77 0.000883
78 0.000876
79 0.000861
80 0.000848
81 0.000842
82 0.000842
83 0.000834
84 0.000828
85 0.000826
86 0.000827
87 0.000828
88 0.000822
89 0.000809
90 0.000803
91 0.000809
92 0.000810
93 0.000812
94 0.000821
95 0.000828
96 0.000832
97 0.000836
98 0.000830
99 0.000823
100 0.000823
101 0.000830
102 0.000836
103 0.000836
104 0.000829
105 0.000820
106 0.000806
107 0.000792
108 0.000790
109 0.000786
110 0.000779
111 0.000783
112 0.000783
113 0.000777
114 0.000773
115 0.000772
116 0.000757
117 0.000746
118 0.000724
119 0.000709
120 0.000693
121 0.000696
122 0.000706
123 0.000713
124 0.000708
125 0.000709
126 0.000699
127 0.000693
128 0.000691
129 0.000702
130 0.000705
131 0.000699
132 0.000688
133 0.000673
134 0.000679
135 0.000669
136 0.000663
137 0.000654
138 0.000644
139 0.000631
140 0.000623
141 0.000623
142 0.000628
143 0.000624
144 0.000629
145 0.000616
146 0.000597
147 0.000598
148 0.000595
149 0.000595
150 0.000587
151 0.000581
152 0.000572
153 0.000566
154 0.000568
155 0.000571
156 0.000576
157 0.000578
158 0.000587
159 0.000597
160 0.000612
161 0.000627
162 0.000648
163 0.000655
164 0.000660
165 0.000663
166 0.000675
167 0.000688
168 0.000697
169 0.000715
170 0.000727
171 0.000746
172 0.000746
173 0.000746
174 0.000755
175 0.000755
176 0.000748
177 0.000753
178 0.000751
179 0.000747
180 0.000734
181 0.000722
182 0.000708
183 0.000700
184 0.000697
185 0.000687
186 0.000677
187 0.000673
188 0.000680
189 0.000681
190 0.000678
191 0.000681
192 0.000683
193 0.000686
194 0.000678
195 0.000686
196 0.000699
197 0.000707
198 0.000709
199 0.000719
200 0.000720
201 0.000712
202 0.000708
203 0.000703
204 0.000694
205 0.000695
206 0.000691
207 0.000679
208 0.000671
209 0.000661
210 0.000645
211 0.000623
212 0.000607
213 0.000598
214 0.000594
215 0.000592
216 0.000591
217 0.000592
218 0.000593
219 0.000591
220 0.000585
221 0.000579
222 0.000571
223 0.000565
224 0.000559
225 0.000559
226 0.000547
227 0.000535
228 0.000525
229 0.000523
230 0.000524
231 0.000527
232 0.000529
233 0.000523
234 0.000517
235 0.000515
236 0.000512
237 0.000502
238 0.000508
239 0.000515
240 0.000524
241 0.000518
242 0.000510
243 0.000497
244 0.000491
245 0.000477
246 0.000474
247 0.000466
248 0.000463
249 0.000470
250 0.000462
251 0.000467
252 0.000460
253 0.000467
254 0.000470
255 0.000468
256 0.000458
257 0.000451
258 0.000439
259 0.000434
260 0.000432
261 0.000430
262 0.000429
263 0.000421
264 0.000416
265 0.000422
266 0.000430
267 0.000433
268 0.000437
269 0.000436
270 0.000443
271 0.000460
272 0.000479
273 0.000498
274 0.000509
275 0.000510
276 0.000508
277 0.000509
278 0.000513
279 0.000517
280 0.000518
281 0.000513
282 0.000508
283 0.000507
284 0.000501
285 0.000493
286 0.000494
287 0.000499
288 0.000518
289 0.000520
290 0.000521
291 0.000526
292 0.000536
293 0.000541
294 0.000537
295 0.000527
296 0.000525
297 0.000516
298 0.000504
299 0.000494
300 0.000494
301 0.000493
302 0.000482
303 0.000466
304 0.000443
305 0.000426
306 0.000414
307 0.000404
308 0.000397
309 0.000396
310 0.000400
311 0.000398
312 0.000384
313 0.000374
314 0.000367
315 0.000350
316 0.000336
317 0.000320
318 0.000308
319 0.000306
320 0.000306
321 0.000307
322 0.000302
323 0.000282
324 0.000270
325 0.000267
326 0.000271
327 0.000276
328 0.000276
329 0.000275
330 0.000272
331 0.000275
332 0.000277
333 0.000275
334 0.000270
335 0.000272
336 0.000277
337 0.000286
338 0.000292
339 0.000293
340 0.000297
341 0.000295
342 0.000293
343 0.000286
344 0.000283
345 0.000273
346 0.000276
347 0.000287
348 0.000297
349 0.000295
350 0.000295
351 0.000286
352 0.000277
353 0.000277
354 0.000280
355 0.000279
356 0.000282
357 0.000282
358 0.000279
359 0.000284
360 0.000273
361 0.000261
362 0.000261
363 0.000269
364 0.000281
365 0.000288
366 0.000304
367 0.000321
368 0.000333
369 0.000343
370 0.000356
371 0.000354
372 0.000356
373 0.000358
374 0.000361
375 0.000363
376 0.000373
377 0.000376
378 0.000384
379 0.000394
380 0.000408
381 0.000403
382 0.000394
383 0.000392
384 0.000395
385 0.000401
386 0.000401
387 0.000403
388 0.000404
389 0.000405
390 0.000395
391 0.000383
392 0.000359
393 0.000356
394 0.000354
395 0.000358
396 0.000364
397 0.000361
398 0.000358
399 0.000349
400 0.000350
401 0.000357
402 0.000365
403 0.000375
404 0.000387
405 0.000393
406 0.000389
407 0.000379
408 0.000372
409 0.000367
410 0.000365
411 0.000367
412 0.000359
413 0.000356
414 0.000346
415 0.000350
416 0.000346
417 0.000342
418 0.000336
419 0.000319
420 0.000304
421 0.000291
422 0.000284
423 0.000280
424 0.000286
425 0.000285
426 0.000276
427 0.000269
428 0.000261
429 0.000247
430 0.000237
431 0.000233
432 0.000244
433 0.000250
434 0.000252
435 0.000260
436 0.000255
437 0.000258
438 0.000257
439 0.000257
440 0.000256
441 0.000258
442 0.000268
443 0.000272
444 0.000277
445 0.000282
446 0.000287
447 0.000284
448 0.000284
449 0.000283
450 0.000289
451 0.000295
452 0.000299
453 0.000309
454 0.000315
455 0.000321
456 0.000324
457 0.000329
458 0.000332
459 0.000340
460 0.000352
461 0.000370
462 0.000383
463 0.000393
464 0.000399
465 0.000396
466 0.000385
467 0.000380
468 0.000371
469 0.000371
470 0.000373
471 0.000380
472 0.000389
473 0.000386
474 0.000382
475 0.000377
476 0.000370
477 0.000357
478 0.000353
479 0.000351
480 0.000349
481 0.000355
482 0.000353
483 0.000345
484 0.000340
485 0.000333
486 0.000315
487 0.000298
488 0.000290
489 0.000287
490 0.000284
491 0.000286
492 0.000295
493 0.000299
494 0.000296
495 0.000293
496 0.000286
497 0.000292
498 0.000294
499 0.000284
500 0.000279
501 0.000281
502 0.000284
503 0.000293
504 0.000286
505 0.000281
506 0.000279
507 0.000270
508 0.000265
509 0.000269
510 0.000272
511 0.000272
512 0.000269
513 0.000261
514 0.000261
515 0.000263
516 0.000263
517 0.000257
518 0.000253
519 0.000253
520 0.000248
521 0.000244
522 0.000241
523 0.000237
524 0.000224
525 0.000216
526 0.000212
527 0.000210
528 0.000209
529 0.000202
530 0.000196
531 0.000188
532 0.000183
533 0.000179
534 0.000180
535 0.000181
536 0.000180
537 0.000182
538 0.000183
539 0.000179
540 0.000183
541 0.000193
542 0.000199
543 0.000202
544 0.000203
545 0.000204
546 0.000206
547 0.000216
548 0.000225
549 0.000238
550 0.000241
551 0.000246
552 0.000241
553 0.000237
554 0.000235
555 0.000232
556 0.000224
557 0.000218
558 0.000206
559 0.000205
560 0.000204
561 0.000200
562 0.000208
563 0.000217
564 0.000222
565 0.000227
566 0.000232
567 0.000234
568 0.000236
569 0.000236
570 0.000227
571 0.000221
572 0.000222
573 0.000224
574 0.000219
575 0.000221
576 0.000222
577 0.000225
578 0.000222
579 0.000224
580 0.000228
581 0.000228
582 0.000229
583 0.000222
584 0.000224
585 0.000221
586 0.000221
587 0.000218
588 0.000212
589 0.000213
590 0.000211
591 0.000207
592 0.000200
593 0.000204
594 0.000207
595 0.000206
596 0.000199
597 0.000190
598 0.000178
599 0.000165
600 0.000151
601 0.000143
602 0.000142
603 0.000146
604 0.000156
605 0.000159
606 0.000166
607 0.000167
608 0.000170
609 0.000171
610 0.000166
611 0.000154
612 0.000142
613 0.000129
614 0.000119
615 0.000108
616 0.000096
617 0.000088
618 0.000082
619 0.000075
620 0.000073
621 0.000072
622 0.000073
623 0.000075
624 0.000073
625 0.000077
626 0.000083
627 0.000088
628 0.000088
629 0.000089
630 0.000092
631 0.000098
632 0.000103
633 0.000108
634 0.000116
635 0.000126
636 0.000136
637 0.000140
638 0.000140
639 0.000136
640 0.000134
641 0.000135
642 0.000138
643 0.000138
644 0.000138
645 0.000137
646 0.000130
647 0.000131
648 0.000134
649 0.000137
650 0.000142
651 0.000147
652 0.000155
653 0.000162
654 0.000168
655 0.000169
656 0.000175
657 0.000178
658 0.000181
659 0.000185
660 0.000190
661 0.000185
662 0.000183
663 0.000188
664 0.000189
665 0.000185
666 0.000183
667 0.000182
668 0.000180
669 0.000177
670 0.000172
671 0.000169
672 0.000165
673 0.000159
674 0.000155
675 0.000159
676 0.000162
677 0.000168
678 0.000176
679 0.000178
680 0.000177
681 0.000174
682 0.000169
683 0.000168
684 0.000167
685 0.000165
686 0.000160
687 0.000155
688 0.000154
689 0.000152
690 0.000157
691 0.000162
692 0.000170
693 0.000176
694 0.000179
695 0.000177
696 0.000178
697 0.000183
698 0.000180
699 0.000183
700 0.000183
701 0.000183
702 0.000182
703 0.000179
704 0.000184
705 0.000186
706 0.000185
707 0.000183
708 0.000176
709 0.000171
710 0.000168
711 0.000164
712 0.000163
713 0.000161
714 0.000158
715 0.000160
716 0.000158
717 0.000151
718 0.000145
719 0.000136
720 0.000126
721 0.000117
722 0.000109
723 0.000105
724 0.000096
725 0.000085
726 0.000077
727 0.000063
728 0.000053
729 0.000044
730 0.000035
731 0.000026
732 0.000022
733 0.000021
734 0.000023
735 0.000026
736 0.000031
737 0.000037
738 0.000036
739 0.000032
740 0.000025
741 0.000024
742 0.000018
743 0.000017
744 0.000023
745 0.000026
746 0.000025
747 0.000020
748 0.000016
749 0.000015
750 0.000017
751 0.000023
752 0.000032
753 0.000041
754 0.000045
755 0.000043
756 0.000047
757 0.000052
758 0.000054
759 0.000059
760 0.000063
761 0.000065
762 0.000062
763 0.000063
764 0.000067
765 0.000071
766 0.000073
767 0.000073
768 0.000074
769 0.000074
770 0.000080
771 0.000084
772 0.000085
773 0.000083
774 0.000086
775 0.000087
776 0.000080
777 0.000074
778 0.000068
779 0.000058
780 0.000052
781 0.000051
782 0.000049
783 0.000048
784 0.000043
785 0.000034
786 0.000024
787 0.000008
788 -0.000004
789 -0.000007
790 -0.000014
791 -0.000015
792 -0.000015
793 -0.000016
794 -0.000017
795 -0.000021
796 -0.000026
797 -0.000028
798 -0.000031
799 -0.000035
800 -0.000040
801 -0.000045
802 -0.000050
803 -0.000053
804 -0.000053
805 -0.000055
806 -0.000058
807 -0.000065
808 -0.000071
809 -0.000079
