# i correlation
1 0.001922
2 0.001820
3 0.001726
4 0.001642
5 0.001563
6 0.001507
7 0.001450
8 0.001393
9 0.001338
10 0.001301
11 0.001275
12 0.001249
13 0.001225
14 0.001211
15 0.001205
16 0.001192
17 0.001178
18 0.001155
19 0.001137
20 0.001111
21 0.001088
22 0.001068
23 0.001043
24 0.001017
25 0.000999
26 0.000983
27 0.000969
28 0.000944
29 0.000919
30 0.000901
31 0.000880
32 0.000881
33 0.000872
34 0.000871
35 0.000859
36 0.000861
37 0.000861
38 0.000867
39 0.000872
40 0.000886
41 0.000898
42 0.000908
43 0.000899
44 0.000897
45 0.000909
46 0.000929
47 0.000949
48 0.000955
49 0.000965
50 0.000970
51 0.000964
52 0.000965
53 0.000957
54 0.000941
55 0.000928
56 0.000911
57 0.000906
58 0.000892
59 0.000880
60 0.000873
61 0.000877
62 0.000867
63 0.000860
64 0.000854
65 0.000843
66 0.000838
67 0.000826
68 0.000823
69 0.000810
70 0.000802
71 0.000794
72 0.000796
73 0.000783
74 0.000768
75 0.000748
76 0.000730
77 0.000719
78 0.000719
79 0.000722
80 0.000723
81 0.000731
82 0.000751
83 0.000765
84 0.000777
85 0.000788
86 0.000797
87 0.000807
88 0.000812
89 0.000816
90 0.000813
91 0.000812
92 0.000807
93 0.000808
94 0.000815
95 0.000820
96 0.000809
97 0.000811
98 0.000810
99 0.000815
100 0.000819
101 0.000831
102 0.000835
103 0.000829
104 0.000832
105 0.000828
106 0.000816
107 0.000814
108 0.000819
109 0.000824
110 0.000821
111 0.000820
112 0.000819
113 0.000820
114 0.000820
115 0.000819
116 0.000822
117 0.000813
118 0.000818
119 0.000819
120 0.000815
121 0.000821
122 0.000813
123 0.000799
124 0.000793
125 0.000783
126 0.000770
127 0.000755
128 0.000730
129 0.000721
130 0.000706
131 0.000703
132 0.000702
133 0.000688
134 0.000673
135 0.000664
136 0.000653
137 0.000645
138 0.000631
139 0.000631
140 0.000628
141 0.000615
142 0.000603
143 0.000609
144 0.000609
145 0.000609
146 0.000618
147 0.000622
148 0.000622
149 0.000627
150 0.000625
151 0.000626
152 0.000621
153 0.000616
154 0.000625
155 0.000623
156 0.000619
157 0.000609
158 0.000612
159 0.000612
160 0.000614
161 0.000616
162 0.000620
163 0.000621
164 0.000613
165 0.000602
166 0.000601
167 0.000589
168 0.000585
169 0.000571
170 0.000572
171 0.000576
172 0.000587
173 0.000597
174 0.000600
175 0.000600
176 0.000608
177 0.000623
178 0.000637
179 0.000649
180 0.000649
181 0.000654
182 0.000649
183 0.000636
184 0.000629
185 0.000633
186 0.000625
187 0.000617
188 0.000619
189 0.000616
190 0.000615
191 0.000611
192 0.000614
193 0.000615
194 0.000605
195 0.000604
196 0.000606
197 0.000614
198 0.000623
199 0.000627
200 0.000633
201 0.000628
202 0.000621
203 0.000613
204 0.000621
205 0.000625
206 0.000625
207 0.000623
208 0.000632
209 0.000646
210 0.000643
211 0.000645
212 0.000650
213 0.000639
214 0.000629
215 0.000632
216 0.000628
217 0.000625
218 0.000623
219 0.000616
220 0.000615
221 0.000606
222 0.000597
223 0.000586
224 0.000585
225 0.000577
226 0.000587
227 0.000596
228 0.000594
229 0.000589
230 0.000577
231 0.000579
232 0.000584
233 0.000593
234 0.000607
235 0.000616
236 0.000612
237 0.000614
238 0.000613
239 0.000603
240 0.000603
241 0.000589
242 0.000579
243 0.000576
244 0.000576
245 0.000581
246 0.000580
247 0.000579
248 0.000573
249 0.000569
250 0.000581
251 0.000597
252 0.000598
253 0.000592
254 0.000588
255 0.000564
256 0.000545
257 0.000522
258 0.000511
259 0.000499
260 0.000489
261 0.000484
262 0.000482
263 0.000483
264 0.000469
265 0.000460
266 0.000454
267 0.000459
268 0.000462
269 0.000467
270 0.000473
271 0.000467
272 0.000471
273 0.000472
274 0.000470
275 0.000471
276 0.000473
277 0.000475
278 0.000482
279 0.000497
280 0.000505
281 0.000513
282 0.000516
283 0.000515
284 0.000522
285 0.000516
286 0.000508
287 0.000505
288 0.000499
289 0.000496
290 0.000500
291 0.000495
292 0.000497
293 0.000498
294 0.000503
295 0.000501
296 0.000498
297 0.000501
298 0.000506
299 0.000518
300 0.000525
301 0.000534
302 0.000544
303 0.000561
304 0.000560
305 0.000551
306 0.000543
307 0.000517
308 0.000489
309 0.000478
310 0.000465
311 0.000454
312 0.000436
313 0.000426
314 0.000416
315 0.000402
316 0.000398
317 0.000398
318 0.000396
319 0.000398
320 0.000411
321 0.000417
322 0.000436
323 0.000438
324 0.000454
325 0.000468
326 0.000479
327 0.000476
328 0.000476
329 0.000476
330 0.000493
331 0.000506
332 0.000519
333 0.000513
334 0.000503
335 0.000500
336 0.000501
337 0.000493
338 0.000483
339 0.000479
340 0.000477
341 0.000480
342 0.000474
343 0.000474
344 0.000470
345 0.000476
346 0.000478
347 0.000485
348 0.000487
349 0.000494
350 0.000492
351 0.000500
352 0.000508
353 0.000513
354 0.000506
355 0.000488
356 0.000471
357 0.000442
358 0.000431
359 0.000413
360 0.000396
361 0.000381
362 0.000375
363 0.000383
364 0.000389
365 0.000384
366 0.000389
367 0.000387
368 0.000369
369 0.000355
370 0.000346
371 0.000341
372 0.000348
373 0.000349
374 0.000341
375 0.000334
376 0.000324
377 0.000331
378 0.000338
379 0.000348
380 0.000349
381 0.000353
382 0.000354
383 0.000362
384 0.000356
385 0.000348
386 0.000347
387 0.000346
388 0.000349
389 0.000352
390 0.000352
391 0.000349
392 0.000342
393 0.000342
394 0.000349
395 0.000343
396 0.000335
397 0.000332
398 0.000334
399 0.000329
400 0.000331
401 0.000327
402 0.000314
403 0.000302
404 0.000291
405 0.000286
406 0.000279
407 0.000265
408 0.000256
409 0.000250
410 0.000240
411 0.000239
412 0.000238
413 0.000257
414 0.000272
415 0.000286
416 0.000294
417 0.000293
418 0.000287
419 0.000277
420 0.000264
421 0.000253
422 0.000240
423 0.000226
424 0.000234
425 0.000238
426 0.000250
427 0.000254
428 0.000255
429 0.000260
430 0.000272
431 0.000284
432 0.000295
433 0.000311
434 0.000317
435 0.000335
436 0.000352
437 0.000353
438 0.000357
439 0.000354
440 0.000351
441 0.000347
442 0.000342
443 0.000344
444 0.000341
445 0.000339
446 0.000332
447 0.000324
448 0.000318
449 0.000310
450 0.000310
451 0.000318
452 0.000326
453 0.000331
454 0.000326
455 0.000321
456 0.000310
457 0.000296
458 0.000284
459 0.000270
460 0.000264
461 0.000254
462 0.000247
463 0.000237
464 0.000234
465 0.000233
466 0.000233
467 0.000237
468 0.000239
469 0.000239
470 0.000236
471 0.000239
472 0.000239
473 0.000237
474 0.000235
475 0.000235
476 0.000242
477 0.000247
478 0.000252
479 0.000262
480 0.000279
481 0.000297
482 0.000314
483 0.000325
484 0.000345
485 0.000365
486 0.000377
487 0.000389
488 0.000406
489 0.000411
490 0.000417
491 0.000421
492 0.000427
493 0.000423
494 0.000421
495 0.000422
496 0.000430
497 0.000438
498 0.000448
499 0.000463
500 0.000465
501 0.000466
502 0.000470
503 0.000480
504 0.000476
505 0.000471
506 0.000457
507 0.000445
508 0.000437
509 0.000430
510 0.000422
511 0.000409
512 0.000398
513 0.000396
514 0.000400
515 0.000404
516 0.000400
517 0.000405
518 0.000402
519 0.000391
520 0.000375
521 0.000368
522 0.000353
523 0.000336
524 0.000325
525 0.000322
526 0.000323
527 0.000317
528 0.000308
529 0.000302
530 0.000309
531 0.000318
532 0.000330
533 0.000335
534 0.000336
535 0.000337
536 0.000330
537 0.000339
538 0.000351
539 0.000355
540 0.000360
541 0.000363
542 0.000364
543 0.000367
544 0.000370
545 0.000370
546 0.000359
547 0.000348
548 0.000335
549 0.000326
550 0.000313
551 0.000308
552 0.000302
553 0.000304
554 0.000304
555 0.000305
556 0.000306
557 0.000311
558 0.000309
559 0.000301
560 0.000292
561 0.000277
562 0.000264
563 0.000254
564 0.000252
565 0.000251
566 0.000239
567 0.000230
568 0.000216
569 0.000206
570 0.000206
571 0.000209
572 0.000215
573 0.000225
574 0.000224
575 0.000226
576 0.000226
577 0.000220
578 0.000216
579 0.000214
580 0.000210
581 0.000206
582 0.000205
583 0.000198
584 0.000193
585 0.000198
586 0.000203
587 0.000210
588 0.000214
589 0.000219
590 0.000227
591 0.000236
592 0.000251
593 0.000261
594 0.000274
595 0.000284
596 0.000288
597 0.000289
598 0.000297
599 0.000308
600 0.000307
601 0.000305
602 0.000300
603 0.000302
604 0.000305
605 0.000311
606 0.000318
607 0.000324
608 0.000324
609 0.000330
610 0.000334
611 0.000333
612 0.000334
613 0.000336
614 0.000339
615 0.000346
616 0.000345
617 0.000351
618 0.000349
619 0.000348
620 0.000346
621 0.000346
622 0.000339
623 0.000343
624 0.000348
625 0.000353
626 0.000361
627 0.000361
628 0.000364
629 0.000364
630 0.000370
631 0.000366
632 0.000364
633 0.000369
634 0.000369
635 0.000374
636 0.000378
637 0.000373
638 0.000362
639 0.000353
640 0.000349
641 0.000347
642 0.000353
643 0.000352
644 0.000349
645 0.000347
646 0.000346
647 0.000341
648 0.000346
649 0.000349
650 0.000354
651 0.000356
652 0.000366
653 0.000374
654 0.000373
655 0.000368
656 0.000369
657 0.000373
658 0.000371
659 0.000367
660 0.000365
661 0.000358
662 0.000358
663 0.000349
664 0.000345
665 0.000343
666 0.000340
667 0.000340
668 0.000333
669 0.000325
670 0.000317
671 0.000305
672 0.000296
673 0.000292
674 0.000282
675 0.000272
676 0.000270
677 0.000269
678 0.000264
679 0.000259
680 0.000262
681 0.000265
682 0.000260
683 0.000254
684 0.000247
685 0.000240
686 0.000232
687 0.000223
688 0.000223
689 0.000231
690 0.000230
691 0.000226
692 0.000225
693 0.000223
694 0.000221
695 0.000221
696 0.000222
697 0.000224
698 0.000223
699 0.000221
700 0.000215
701 0.000198
702 0.000184
703 0.000179
704 0.000179
705 0.000177
706 0.000179
707 0.000181
708 0.000186
709 0.000191
710 0.000200
711 0.000213
712 0.000219
713 0.000225
714 0.000240
715 0.000250
716 0.000259
717 0.000266
718 0.000281
719 0.000292
720 0.000296
721 0.000295
722 0.000292
723 0.000290
724 0.000281
725 0.000281
726 0.000281
727 0.000281
728 0.000281
729 0.000282
730 0.000286
731 0.000294
732 0.000297
733 0.000296
734 0.000294
735 0.000298
736 0.000301
737 0.000307
738 0.000313
739 0.000316
740 0.000315
741 0.000315
742 0.000314
743 0.000308
744 0.000303
745 0.000298
746 0.000296
747 0.000286
748 0.000274
749 0.000263
750 0.000255
751 0.000245
752 0.000240
753 0.000233
754 0.000224
755 0.000213
756 0.000199
757 0.000188
758 0.000175
759 0.000160
760 0.000148
761 0.000141
762 0.000128
763 0.000117
764 0.000108
765 0.000104
766 0.000102
767 0.000108
768 0.000111
769 0.000114
770 0.000111
771 0.000113
772 0.000110
773 0.000106
774 0.000099
775 0.000100
776 0.000099
777 0.000102
778 0.000107
779 0.000112
780 0.000118
781 0.000126
782 0.000139
783 0.000147
784 0.000159
785 0.000163
786 0.000165
787 0.000166
788 0.000163
789 0.000160
790 0.000159
791 0.000158
792 0.000151
793 0.000148
794 0.000144
795 0.000133
796 0.000122
797 0.000116
798 0.000110
799 0.000106
800 0.000097
801 0.000093
802 0.000087
803 0.000081
804 0.000075
805 0.000074
806 0.000069
807 0.000066
808 0.000060
809 0.000055
