# i correlation
1 0.002193
2 0.002081
3 0.001982
4 0.001907
5 0.001837
6 0.001781
7 0.001732
8 0.001709
9 0.001695
10 0.001672
11 0.001648
12 0.001615
13 0.001586
14 0.001561
15 0.001548
16 0.001540
17 0.001556
18 0.001551
19 0.001563
20 0.001564
21 0.001565
22 0.001567
23 0.001586
24 0.001591
25 0.001596
26 0.001603
27 0.001600
28 0.001600
29 0.001587
30 0.001569
31 0.001557
32 0.001554
33 0.001552
34 0.001562
35 0.001551
36 0.001540
37 0.001529
38 0.001518
39 0.001496
40 0.001480
41 0.001450
42 0.001427
43 0.001416
44 0.001407
45 0.001407
46 0.001408
47 0.001414
48 0.001418
49 0.001434
50 0.001434
51 0.001420
52 0.001406
53 0.001390
54 0.001388
55 0.001382
56 0.001374
57 0.001379
58 0.001388
59 0.001398
60 0.001396
61 0.001399
62 0.001389
63 0.001378
64 0.001361
65 0.001346
66 0.001340
67 0.001339
68 0.001327
69 0.001321
70 0.001307
71 0.001298
72 0.001289
73 0.001285
74 0.001280
75 0.001272
76 0.001268
77 0.001249
78 0.001237
79 0.001223
80 0.001238
81 0.001242
82 0.001239
83 0.001250
84 0.001258
85 0.001257
86 0.001250
87 0.001240
88 0.001241
89 0.001242
90 0.001239
91 0.001243
92 0.001240
93 0.001246
94 0.001236
95 0.001241
96 0.001235
97 0.001229
98 0.001224
99 0.001219
100 0.001206
101 0.001200
102 0.001186
103 0.001181
104 0.001169
105 0.001167
106 0.001164
107 0.001174
108 0.001187
109 0.001183
110 0.001165
111 0.001149
112 0.001155
113 0.001158
114 0.001154
115 0.001147
116 0.001150
117 0.001150
118 0.001154
119 0.001151
120 0.001141
121 0.001140
122 0.001129
123 0.001117
124 0.001106
125 0.001098
126 0.001083
127 0.001067
128 0.001053
129 0.001042
130 0.001035
131 0.001028
132 0.001019
133 0.001011
134 0.001012
135 0.001016
136 0.001009
137 0.000996
138 0.000982
139 0.000975
140 0.000979
141 0.000988
142 0.000992
143 0.000993
144 0.000992
145 0.000986
146 0.000975
147 0.000968
148 0.000968
149 0.000963
150 0.000956
151 0.000953
152 0.000960
153 0.000964
154 0.000969
155 0.000963
156 0.000969
157 0.000972
158 0.000981
159 0.000989
160 0.001000
161 0.000997
162 0.000986
163 0.000985
164 0.000987
165 0.000984
166 0.000988
167 0.000986
168 0.000992
169 0.000988
170 0.000973
171 0.000968
172 0.000959
173 0.000946
174 0.000930
175 0.000932
176 0.000939
177 0.000948
178 0.000945
179 0.000950
180 0.000951
181 0.000958
182 0.000960
183 0.000960
184 0.000955
185 0.000952
186 0.000949
187 0.000940
188 0.000942
189 0.000943
190 0.000936
191 0.000937
192 0.000951
193 0.000960
194 0.000971
195 0.000970
196 0.000971
197 0.000958
198 0.000968
199 0.000961
200 0.000953
201 0.000955
202 0.000956
203 0.000952
204 0.000933
205 0.000920
206 0.000906
207 0.000884
208 0.000869
209 0.000851
210 0.000835
211 0.000831
212 0.000820
213 0.000803
214 0.000794
215 0.000794
216 0.000799
217 0.000812
218 0.000815
219 0.000823
220 0.000839
221 0.000859
222 0.000866
223 0.000866
224 0.000862
225 0.000861
226 0.000868
227 0.000863
228 0.000860
229 0.000869
230 0.000881
231 0.000885
232 0.000883
233 0.000871
234 0.000868
235 0.000870
236 0.000872
237 0.000864
238 0.000857
239 0.000856
240 0.000855
241 0.000852
242 0.000845
243 0.000841
244 0.000831
245 0.000824
246 0.000807
247 0.000800
248 0.000791
249 0.000791
250 0.000782
251 0.000779
252 0.000775
253 0.000779
254 0.000777
255 0.000786
256 0.000780
257 0.000782
258 0.000780
259 0.000780
260 0.000796
261 0.000803
262 0.000808
263 0.000811
264 0.000810
265 0.000795
266 0.000792
267 0.000777
268 0.000775
269 0.000787
270 0.000787
271 0.000778
272 0.000774
273 0.000767
274 0.000763
275 0.000760
276 0.000757
277 0.000753
278 0.000753
279 0.000759
280 0.000760
281 0.000767
282 0.000763
283 0.000753
284 0.000746
285 0.000752
286 0.000756
287 0.000767
288 0.000782
289 0.000795
290 0.000805
291 0.000816
292 0.000826
293 0.000828
294 0.000829
295 0.000824
296 0.000820
297 0.000816
298 0.000802
299 0.000781
300 0.000762
301 0.000751
302 0.000740
303 0.000720
304 0.000709
305 0.000702
306 0.000697
307 0.000695
308 0.000687
309 0.000680
310 0.000674
311 0.000672
312 0.000675
313 0.000674
314 0.000688
315 0.000691
316 0.000702
317 0.000706
318 0.000703
319 0.000699
320 0.000695
321 0.000684
322 0.000680
323 0.000680
324 0.000684
325 0.000690
326 0.000686
327 0.000689
328 0.000695
329 0.000706
330 0.000707
331 0.000700
332 0.000679
333 0.000674
334 0.000665
335 0.000664
336 0.000663
337 0.000654
338 0.000649
339 0.000650
340 0.000654
341 0.000651
342 0.000652
343 0.000661
344 0.000677
345 0.000678
346 0.000675
347 0.000667
348 0.000662
349 0.000640
350 0.000629
351 0.000616
352 0.000624
353 0.000632
354 0.000647
355 0.000658
356 0.000672
357 0.000674
358 0.000663
359 0.000662
360 0.000653
361 0.000659
362 0.000660
363 0.000664
364 0.000658
365 0.000647
366 0.000625
367 0.000604
368 0.000577
369 0.000555
370 0.000542
371 0.000540
372 0.000544
373 0.000553
374 0.000561
375 0.000561
376 0.000566
377 0.000581
378 0.000592
379 0.000593
380 0.000596
381 0.000601
382 0.000614
383 0.000622
384 0.000630
385 0.000629
386 0.000618
387 0.000618
388 0.000627
389 0.000642
390 0.000660
391 0.000667
392 0.000663
393 0.000661
394 0.000653
395 0.000649
396 0.000647
397 0.000656
398 0.000658
399 0.000662
400 0.000669
401 0.000676
402 0.000676
403 0.000677
404 0.000677
405 0.000676
406 0.000679
407 0.000682
408 0.000676
409 0.000663
410 0.000667
411 0.000669
412 0.000673
413 0.000678
414 0.000677
415 0.000681
416 0.000683
417 0.000680
418 0.000678
419 0.000674
420 0.000677
421 0.000680
422 0.000687
423 0.000696
424 0.000719
425 0.000721
426 0.000729
427 0.000740
428 0.000748
429 0.000754
430 0.000751
431 0.000743
432 0.000741
433 0.000745
434 0.000735
435 0.000723
436 0.000725
437 0.000726
438 0.000719
439 0.000711
440 0.000707
441 0.000708
442 0.000695
443 0.000680
444 0.000665
445 0.000651
446 0.000643
447 0.000642
448 0.000638
449 0.000640
450 0.000648
451 0.000662
452 0.000673
453 0.000680
454 0.000680
455 0.000682
456 0.000692
457 0.000701
458 0.000706
459 0.000708
460 0.000710
461 0.000715
462 0.000719
463 0.000707
464 0.000702
465 0.000699
466 0.000691
467 0.000677
468 0.000668
469 0.000661
470 0.000658
471 0.000654
472 0.000640
473 0.000638
474 0.000639
475 0.000641
476 0.000639
477 0.000641
478 0.000647
479 0.000653
480 0.000668
481 0.000680
482 0.000677
483 0.000676
484 0.000672
485 0.000666
486 0.000659
487 0.000652
488 0.000649
489 0.000647
490 0.000660
491 0.000668
492 0.000656
493 0.000650
494 0.000635
495 0.000627
496 0.000628
497 0.000624
498 0.000625
499 0.000627
500 0.000634
501 0.000628
502 0.000621
503 0.000610
504 0.000609
505 0.000613
506 0.000611
507 0.000613
508 0.000625
509 0.000635
510 0.000646
511 0.000654
512 0.000660
513 0.000670
514 0.000677
515 0.000673
516 0.000674
517 0.000676
518 0.000680
519 0.000685
520 0.000689
521 0.000688
522 0.000682
523 0.000673
524 0.000673
525 0.000681
526 0.000675
527 0.000670
528 0.000660
529 0.000656
530 0.000644
531 0.000643
532 0.000637
533 0.000630
534 0.000619
535 0.000614
536 0.000607
537 0.000601
538 0.000601
539 0.000598
540 0.000597
541 0.000599
542 0.000606
543 0.000602
544 0.000595
545 0.000596
546 0.000591
547 0.000579
548 0.000580
549 0.000591
550 0.000597
551 0.000594
552 0.000588
553 0.000576
554 0.000572
555 0.000563
556 0.000550
557 0.000543
558 0.000535
559 0.000536
560 0.000533
561 0.000529
562 0.000520
563 0.000512
564 0.000505
565 0.000502
566 0.000501
567 0.000494
568 0.000484
569 0.000483
570 0.000473
571 0.000477
572 0.000475
573 0.000474
574 0.000480
575 0.000485
576 0.000496
577 0.000499
578 0.000509
579 0.000508
580 0.000514
581 0.000508
582 0.000505
583 0.000508
584 0.000510
585 0.000508
586 0.000503
587 0.000489
588 0.000479
589 0.000472
590 0.000457
591 0.000442
592 0.000424
593 0.000414
594 0.000406
595 0.000400
596 0.000390
597 0.000379
598 0.000364
599 0.000360
600 0.000352
601 0.000347
602 0.000344
603 0.000341
604 0.000344
605 0.000352
606 0.000356
607 0.000353
608 0.000360
609 0.000367
610 0.000367
611 0.000363
612 0.000365
613 0.000362
614 0.000362
615 0.000357
616 0.000357
617 0.000351
618 0.000358
619 0.000360
620 0.000350
621 0.000348
622 0.000340
623 0.000332
624 0.000324
625 0.000330
626 0.000336
627 0.000343
628 0.000346
629 0.000351
630 0.000362
631 0.000363
632 0.000367
633 0.000367
634 0.000371
635 0.000374
636 0.000370
637 0.000364
638 0.000358
639 0.000350
640 0.000339
641 0.000322
642 0.000309
643 0.000301
644 0.000298
645 0.000291
646 0.000280
647 0.000272
648 0.000259
649 0.000246
650 0.000239
651 0.000239
652 0.000242
653 0.000244
654 0.000249
655 0.000247
656 0.000248
657 0.000252
658 0.000257
659 0.000258
660 0.000256
661 0.000254
662 0.000252
663 0.000254
664 0.000255
665 0.000250
666 0.000245
667 0.000248
668 0.000252
669 0.000261
670 0.000268
671 0.000268
672 0.000259
673 0.000256
674 0.000248
675 0.000239
676 0.000232
677 0.000227
678 0.000224
679 0.000227
680 0.000222
681 0.000217
682 0.000215
683 0.000203
684 0.000197
685 0.000196
686 0.000195
687 0.000194
688 0.000195
689 0.000201
690 0.000213
691 0.000225
692 0.000240
693 0.000250
694 0.000249
695 0.000241
696 0.000236
697 0.000234
698 0.000231
699 0.000231
700 0.000228
701 0.000239
702 0.000251
703 0.000257
704 0.000255
705 0.000249
706 0.000239
707 0.000231
708 0.000222
709 0.000212
710 0.000204
711 0.000192
712 0.000187
713 0.000187
714 0.000183
715 0.000176
716 0.000170
717 0.000174
718 0.000182
719 0.000191
720 0.000201
721 0.000211
722 0.000217
723 0.000213
724 0.000209
725 0.000208
726 0.000206
727 0.000208
728 0.000207
729 0.000204
730 0.000202
731 0.000197
732 0.000191
733 0.000181
734 0.000174
735 0.000171
736 0.000161
737 0.000156
738 0.000155
739 0.000152
740 0.000147
741 0.000142
742 0.000136
743 0.000135
744 0.000137
745 0.000136
746 0.000137
747 0.000144
748 0.000147
749 0.000147
750 0.000148
751 0.000150
752 0.000151
753 0.000153
754 0.000151
755 0.000150
756 0.000146
757 0.000136
758 0.000129
759 0.000121
760 0.000113
761 0.000102
762 0.000097
763 0.000082
764 0.000066
765 0.000053
766 0.000048
767 0.000043
768 0.000039
769 0.000039
770 0.000039
771 0.000042
772 0.000044
773 0.000041
774 0.000045
775 0.000047
776 0.000047
777 0.000049
778 0.000051
779 0.000053
780 0.000054
781 0.000059
782 0.000060
783 0.000054
784 0.000048
785 0.000043
786 0.000037
787 0.000037
788 0.000035
789 0.000031
790 0.000023
791 0.000016
792 0.000003
793 -0.000003
794 -0.000005
795 -0.000006
796 -0.000006
797 -0.000002
798 0.000002
799 -0.000001
800 -0.000004
801 -0.000006
802 -0.000014
803 -0.000021
804 -0.000023
805 -0.000022
806 -0.000022
807 -0.000025
808 -0.000026
809 -0.000027
