# i correlation
1 0.002542
2 0.002438
3 0.002365
4 0.002310
5 0.002266
6 0.002226
7 0.002194
8 0.002173
9 0.002145
10 0.002116
11 0.002083
12 0.002062
13 0.002042
14 0.002021
15 0.002014
16 0.002003
17 0.001988
18 0.001975
19 0.001962
20 0.001956
21 0.001953
22 0.001951
23 0.001940
24 0.001932
25 0.001918
26 0.001899
27 0.001888
28 0.001887
29 0.001890
30 0.001887
31 0.001895
32 0.001910
33 0.001910
34 0.001892
35 0.001865
36 0.001845
37 0.001835
38 0.001824
39 0.001816
40 0.001814
41 0.001804
42 0.001803
43 0.001806
44 0.001808
45 0.001809
46 0.001802
47 0.001776
48 0.001754
49 0.001736
50 0.001723
51 0.001713
52 0.001695
53 0.001693
54 0.001697
55 0.001698
56 0.001695
57 0.001681
58 0.001667
59 0.001661
60 0.001656
61 0.001656
62 0.001655
63 0.001654
64 0.001654
65 0.001646
66 0.001626
67 0.001594
68 0.001569
69 0.001552
70 0.001535
71 0.001521
72 0.001524
73 0.001537
74 0.001549
75 0.001551
76 0.001561
77 0.001567
78 0.001577
79 0.001574
80 0.001568
81 0.001558
82 0.001546
83 0.001535
84 0.001520
85 0.001508
86 0.001502
87 0.001491
88 0.001483
89 0.001471
90 0.001461
91 0.001456
92 0.001440
93 0.001431
94 0.001432
95 0.001435
96 0.001437
97 0.001429
98 0.001437
99 0.001427
100 0.001416
101 0.001412
102 0.001411
103 0.001397
104 0.001388
105 0.001385
106 0.001381
107 0.001365
108 0.001341
109 0.001333
110 0.001331
111 0.001308
112 0.001294
113 0.001269
114 0.001239
115 0.001218
116 0.001208
117 0.001206
118 0.001210
119 0.001213
120 0.001217
121 0.001208
122 0.001198
123 0.001206
124 0.001207
125 0.001205
126 0.001206
127 0.001208
128 0.001202
129 0.001198
130 0.001192
131 0.001182
132 0.001168
133 0.001167
134 0.001170
135 0.001160
136 0.001151
137 0.001141
138 0.001132
139 0.001143
140 0.001143
141 0.001135
142 0.001129
143 0.001114
144 0.001085
145 0.001065
146 0.001054
147 0.001038
148 0.001038
149 0.001044
150 0.001037
151 0.001034
152 0.001032
153 0.001019
154 0.001011
155 0.001007
156 0.001009
157 0.001003
158 0.001001
159 0.000990
160 0.000990
161 0.000990
162 0.000983
163 0.000997
164 0.001008
165 0.001006
166 0.001005
167 0.001016
168 0.001023
169 0.001022
170 0.001012
171 0.001007
172 0.001001
173 0.001000
174 0.001005
175 0.000998
176 0.000995
177 0.000988
178 0.000976
179 0.000958
180 0.000941
181 0.000932
182 0.000936
183 0.000951
184 0.000958
185 0.000956
186 0.000951
187 0.000934
188 0.000923
189 0.000919
190 0.000914
191 0.000899
192 0.000894
193 0.000889
194 0.000874
195 0.000859
196 0.000848
197 0.000845
198 0.000834
199 0.000834
200 0.000838
201 0.000843
202 0.000844
203 0.000845
204 0.000846
205 0.000850
206 0.000858
207 0.000859
208 0.000862
209 0.000863
210 0.000852
211 0.000849
212 0.000844
213 0.000833
214 0.000840
215 0.000845
216 0.000842
217 0.000833
218 0.000819
219 0.000810
220 0.000789
221 0.000792
222 0.000793
223 0.000793
224 0.000781
225 0.000766
226 0.000758
227 0.000757
228 0.000752
229 0.000762
230 0.000764
231 0.000757
232 0.000749
233 0.000747
234 0.000738
235 0.000728
236 0.000719
237 0.000719
238 0.000714
239 0.000704
240 0.000690
241 0.000681
242 0.000665
243 0.000654
244 0.000643
245 0.000637
246 0.000630
247 0.000629
248 0.000629
249 0.000626
250 0.000629
251 0.000629
252 0.000633
253 0.000627
254 0.000622
255 0.000619
256 0.000616
257 0.000606
258 0.000599
259 0.000595
260 0.000593
261 0.000596
262 0.000607
263 0.000611
264 0.000604
265 0.000609
266 0.000613
267 0.000610
268 0.000604
269 0.000612
270 0.000618
271 0.000606
272 0.000601
273 0.000598
274 0.000592
275 0.000593
276 0.000586
277 0.000570
278 0.000566
279 0.000557
280 0.000543
281 0.000521
282 0.000513
283 0.000521
284 0.000529
285 0.000521
286 0.000514
287 0.000514
288 0.000515
289 0.000503
290 0.000500
291 0.000509
292 0.000518
293 0.000516
294 0.000519
295 0.000526
296 0.000522
297 0.000518
298 0.000516
299 0.000510
300 0.000511
301 0.000518
302 0.000521
303 0.000527
304 0.000528
305 0.000515
306 0.000514
307 0.000518
308 0.000515
309 0.000521
310 0.000519
311 0.000512
312 0.000509
313 0.000512
314 0.000505
315 0.000505
316 0.000504
317 0.000506
318 0.000499
319 0.000491
320 0.000474
321 0.000464
322 0.000456
323 0.000448
324 0.000453
325 0.000455
326 0.000465
327 0.000465
328 0.000466
329 0.000460
330 0.000441
331 0.000440
332 0.000447
333 0.000453
334 0.000459
335 0.000455
336 0.000443
337 0.000434
338 0.000429
339 0.000439
340 0.000449
341 0.000462
342 0.000465
343 0.000461
344 0.000450
345 0.000435
346 0.000438
347 0.000435
348 0.000437
349 0.000435
350 0.000435
351 0.000438
352 0.000438
353 0.000436
354 0.000435
355 0.000442
356 0.000450
357 0.000462
358 0.000467
359 0.000457
360 0.000465
361 0.000466
362 0.000458
363 0.000452
364 0.000451
365 0.000450
366 0.000455
367 0.000454
368 0.000461
369 0.000458
370 0.000461
371 0.000468
372 0.000472
373 0.000465
374 0.000457
375 0.000455
376 0.000450
377 0.000438
378 0.000430
379 0.000425
380 0.000419
381 0.000413
382 0.000416
383 0.000418
384 0.000413
385 0.000420
386 0.000429
387 0.000432
388 0.000435
389 0.000444
390 0.000453
391 0.000453
392 0.000461
393 0.000473
394 0.000471
395 0.000472
396 0.000477
397 0.000478
398 0.000486
399 0.000483
400 0.000481
401 0.000479
402 0.000479
403 0.000476
404 0.000476
405 0.000481
406 0.000483
407 0.000481
408 0.000474
409 0.000466
410 0.000450
411 0.000440
412 0.000439
413 0.000439
414 0.000442
415 0.000445
416 0.000450
417 0.000457
418 0.000462
419 0.000475
420 0.000490
421 0.000499
422 0.000510
423 0.000506
424 0.000503
425 0.000498
426 0.000496
427 0.000497
428 0.000499
429 0.000504
430 0.000507
431 0.000509
432 0.000511
433 0.000513
434 0.000515
435 0.000515
436 0.000517
437 0.000518
438 0.000529
439 0.000534
440 0.000529
441 0.000529
442 0.000523
443 0.000518
444 0.000526
445 0.000527
446 0.000526
447 0.000523
448 0.000516
449 0.000510
450 0.000501
451 0.000503
452 0.000518
453 0.000526
454 0.000522
455 0.000521
456 0.000518
457 0.000509
458 0.000509
459 0.000499
460 0.000504
461 0.000507
462 0.000523
463 0.000527
464 0.000530
465 0.000540
466 0.000547
467 0.000556
468 0.000565
469 0.000565
470 0.000566
471 0.000566
472 0.000560
473 0.000565
474 0.000567
475 0.000565
476 0.000566
477 0.000572
478 0.000576
479 0.000566
480 0.000566
481 0.000575
482 0.000571
483 0.000566
484 0.000572
485 0.000576
486 0.000576
487 0.000573
488 0.000564
489 0.000559
490 0.000548
491 0.000546
492 0.000548
493 0.000546
494 0.000550
495 0.000557
496 0.000570
497 0.000580
498 0.000591
499 0.000597
500 0.000599
501 0.000600
502 0.000607
503 0.000607
504 0.000594
505 0.000582
506 0.000573
507 0.000569
508 0.000577
509 0.000582
510 0.000584
511 0.000584
512 0.000575
513 0.000568
514 0.000563
515 0.000562
516 0.000571
517 0.000580
518 0.000593
519 0.000601
520 0.000599
521 0.000595
522 0.000594
523 0.000594
524 0.000605
525 0.000610
526 0.000608
527 0.000610
528 0.000607
529 0.000606
530 0.000605
531 0.000601
532 0.000606
533 0.000600
534 0.000599
535 0.000598
536 0.000594
537 0.000581
538 0.000565
539 0.000558
540 0.000555
541 0.000557
542 0.000551
543 0.000540
544 0.000528
545 0.000516
546 0.000508
547 0.000506
548 0.000508
549 0.000509
550 0.000511
551 0.000509
552 0.000501
553 0.000495
554 0.000499
555 0.000491
556 0.000496
557 0.000497
558 0.000501
559 0.000497
560 0.000496
561 0.000498
562 0.000510
563 0.000513
564 0.000513
565 0.000508
566 0.000500
567 0.000501
568 0.000494
569 0.000495
570 0.000496
571 0.000499
572 0.000506
573 0.000504
574 0.000498
575 0.000499
576 0.000498
577 0.000491
578 0.000488
579 0.000490
580 0.000484
581 0.000473
582 0.000462
583 0.000451
584 0.000438
585 0.000430
586 0.000412
587 0.000409
588 0.000394
589 0.000382
590 0.000370
591 0.000368
592 0.000365
593 0.000366
594 0.000371
595 0.000375
596 0.000370
597 0.000375
598 0.000378
599 0.000381
600 0.000381
601 0.000391
602 0.000406
603 0.000412
604 0.000425
605 0.000434
606 0.000440
607 0.000448
608 0.000448
609 0.000449
610 0.000446
611 0.000442
612 0.000442
613 0.000439
614 0.000434
615 0.000429
616 0.000428
617 0.000429
618 0.000425
619 0.000416
620 0.000409
621 0.000406
622 0.000409
623 0.000407
624 0.000406
625 0.000407
626 0.000409
627 0.000409
628 0.000407
629 0.000403
630 0.000402
631 0.000404
632 0.000402
633 0.000396
634 0.000394
635 0.000400
636 0.000407
637 0.000409
638 0.000406
639 0.000400
640 0.000399
641 0.000397
642 0.000388
643 0.000376
644 0.000372
645 0.000371
646 0.000360
647 0.000348
648 0.000342
649 0.000334
650 0.000338
651 0.000335
652 0.000329
653 0.000320
654 0.000305
655 0.000300
656 0.000297
657 0.000293
658 0.000300
659 0.000309
660 0.000316
661 0.000315
662 0.000306
663 0.000300
664 0.000290
665 0.000283
666 0.000280
667 0.000279
668 0.000283
669 0.000287
670 0.000283
671 0.000280
672 0.000277
673 0.000269
674 0.000261
675 0.000254
676 0.000249
677 0.000245
678 0.000237
679 0.000226
680 0.000213
681 0.000210
682 0.000208
683 0.000205
684 0.000205
685 0.000208
686 0.000202
687 0.000201
688 0.000198
689 0.000200
690 0.000200
691 0.000205
692 0.000211
693 0.000213
694 0.000205
695 0.000206
696 0.000208
697 0.000214
698 0.000212
699 0.000210
700 0.000213
701 0.000219
702 0.000221
703 0.000224
704 0.000229
705 0.000238
706 0.000241
707 0.000244
708 0.000245
709 0.000243
710 0.000245
711 0.000244
712 0.000243
713 0.000242
714 0.000246
715 0.000250
716 0.000244
717 0.000245
718 0.000255
719 0.000258
720 0.000252
721 0.000251
722 0.000250
723 0.000251
724 0.000256
725 0.000261
726 0.000267
727 0.000271
728 0.000271
729 0.000269
730 0.000267
731 0.000268
732 0.000267
733 0.000267
734 0.000266
735 0.000268
736 0.000273
737 0.000277
738 0.000275
739 0.000272
740 0.000274
741 0.000278
742 0.000280
743 0.000280
744 0.000274
745 0.000266
746 0.000266
747 0.000270
748 0.000271
749 0.000264
750 0.000261
751 0.000263
752 0.000257
753 0.000252
754 0.000243
755 0.000232
756 0.000226
757 0.000227
758 0.000221
759 0.000214
760 0.000210
761 0.000211
762 0.000207
763 0.000204
764 0.000204
765 0.000205
766 0.000199
767 0.000191
768 0.000188
769 0.000186
770 0.000189
771 0.000195
772 0.000199
773 0.000206
774 0.000206
775 0.000208
776 0.000201
777 0.000200
778 0.000201
779 0.000209
780 0.000215
781 0.000221
782 0.000222
783 0.000223
784 0.000228
785 0.000233
786 0.000236
787 0.000236
788 0.000242
789 0.000250
790 0.000255
791 0.000259
792 0.000264
793 0.000270
794 0.000275
795 0.000276
796 0.000273
797 0.000273
798 0.000273
799 0.000271
800 0.000263
801 0.000259
802 0.000261
803 0.000258
804 0.000258
805 0.000258
806 0.000260
807 0.000255
808 0.000255
809 0.000253
