# i correlation
1 0.002604
2 0.002480
3 0.002378
4 0.002292
5 0.002229
6 0.002173
7 0.002129
8 0.002076
9 0.002026
10 0.001976
11 0.001922
12 0.001868
13 0.001826
14 0.001803
15 0.001790
16 0.001777
17 0.001751
18 0.001732
19 0.001723
20 0.001719
21 0.001709
22 0.001687
23 0.001674
24 0.001675
25 0.001671
26 0.001665
27 0.001648
28 0.001636
29 0.001615
30 0.001598
31 0.001590
32 0.001579
33 0.001562
34 0.001553
35 0.001552
36 0.001558
37 0.001569
38 0.001579
39 0.001590
40 0.001600
41 0.001613
42 0.001619
43 0.001630
44 0.001637
45 0.001635
46 0.001633
47 0.001628
48 0.001617
49 0.001614
50 0.001609
51 0.001604
52 0.001596
53 0.001592
54 0.001583
55 0.001564
56 0.001547
57 0.001536
58 0.001525
59 0.001506
60 0.001497
61 0.001486
62 0.001479
63 0.001470
64 0.001465
65 0.001461
66 0.001450
67 0.001444
68 0.001433
69 0.001420
70 0.001406
71 0.001387
72 0.001378
73 0.001371
74 0.001376
75 0.001370
76 0.001357
77 0.001341
78 0.001332
79 0.001326
80 0.001330
81 0.001323
82 0.001316
83 0.001308
84 0.001305
85 0.001296
86 0.001278
87 0.001264
88 0.001254
89 0.001243
90 0.001234
91 0.001212
92 0.001191
93 0.001183
94 0.001175
95 0.001164
96 0.001142
97 0.001125
98 0.001107
99 0.001097
100 0.001098
101 0.001100
102 0.001113
103 0.001118
104 0.001117
105 0.001125
106 0.001123
107 0.001124
108 0.001131
109 0.001134
110 0.001137
111 0.001135
112 0.001134
113 0.001130
114 0.001122
115 0.001125
116 0.001136
117 0.001154
118 0.001177
119 0.001194
120 0.001195
121 0.001199
122 0.001196
123 0.001193
124 0.001183
125 0.001191
126 0.001195
127 0.001201
128 0.001202
129 0.001202
130 0.001188
131 0.001177
132 0.001160
133 0.001137
134 0.001126
135 0.001119
136 0.001115
137 0.001127
138 0.001135
139 0.001126
140 0.001118
141 0.001110
142 0.001098
143 0.001089
144 0.001088
145 0.001092
146 0.001093
147 0.001097
148 0.001100
149 0.001101
150 0.001102
151 0.001109
152 0.001109
153 0.001094
154 0.001076
155 0.001061
156 0.001044
157 0.001032
158 0.001039
159 0.001053
160 0.001069
161 0.001084
162 0.001092
163 0.001089
164 0.001073
165 0.001061
166 0.001049
167 0.001047
168 0.001053
169 0.001063
170 0.001076
171 0.001072
172 0.001070
173 0.001062
174 0.001053
175 0.001050
176 0.001033
177 0.001022
178 0.001020
179 0.001017
180 0.001006
181 0.000997
182 0.000997
183 0.001006
184 0.001015
185 0.001021
186 0.001031
187 0.001039
188 0.001050
189 0.001054
190 0.001051
191 0.001037
192 0.001027
193 0.001015
194 0.001003
195 0.000997
196 0.000989
197 0.000973
198 0.000954
199 0.000929
200 0.000899
201 0.000883
202 0.000878
203 0.000881
204 0.000889
205 0.000895
206 0.000891
207 0.000894
208 0.000888
209 0.000880
210 0.000881
211 0.000880
212 0.000884
213 0.000891
214 0.000898
215 0.000890
216 0.000879
217 0.000865
218 0.000847
219 0.000838
220 0.000840
221 0.000842
222 0.000843
223 0.000846
224 0.000843
225 0.000835
226 0.000833
227 0.000821
228 0.000813
229 0.000814
230 0.000814
231 0.000809
232 0.000815
233 0.000824
234 0.000829
235 0.000854
236 0.000872
237 0.000887
238 0.000886
239 0.000881
240 0.000889
241 0.000909
242 0.000925
243 0.000916
244 0.000890
245 0.000863
246 0.000830
247 0.000809
248 0.000784
249 0.000753
250 0.000722
251 0.000699
252 0.000682
253 0.000663
254 0.000647
255 0.000628
256 0.000622
257 0.000627
258 0.000629
259 0.000623
260 0.000617
261 0.000613
262 0.000621
263 0.000636
264 0.000651
265 0.000662
266 0.000681
267 0.000704
268 0.000719
269 0.000726
270 0.000729
271 0.000727
272 0.000729
273 0.000735
274 0.000733
275 0.000726
276 0.000714
277 0.000714
278 0.000723
279 0.000727
280 0.000728
281 0.000732
282 0.000734
283 0.000728
284 0.000722
285 0.000715
286 0.000715
287 0.000710
288 0.000710
289 0.000705
290 0.000699
291 0.000703
292 0.000702
293 0.000697
294 0.000695
295 0.000689
296 0.000690
297 0.000689
298 0.000698
299 0.000697
300 0.000698
301 0.000697
302 0.000695
303 0.000675
304 0.000654
305 0.000634
306 0.000614
307 0.000604
308 0.000593
309 0.000594
310 0.000590
311 0.000591
312 0.000598
313 0.000601
314 0.000602
315 0.000609
316 0.000617
317 0.000619
318 0.000611
319 0.000603
320 0.000612
321 0.000615
322 0.000633
323 0.000650
324 0.000661
325 0.000672
326 0.000666
327 0.000657
328 0.000647
329 0.000638
330 0.000632
331 0.000630
332 0.000638
333 0.000636
334 0.000620
335 0.000599
336 0.000582
337 0.000576
338 0.000567
339 0.000563
340 0.000564
341 0.000570
342 0.000590
343 0.000604
344 0.000619
345 0.000633
346 0.000644
347 0.000664
348 0.000688
349 0.000714
350 0.000728
351 0.000741
352 0.000752
353 0.000753
354 0.000748
355 0.000738
356 0.000730
357 0.000722
358 0.000716
359 0.000711
360 0.000709
361 0.000703
362 0.000699
363 0.000685
364 0.000673
365 0.000658
366 0.000652
367 0.000653
368 0.000649
369 0.000645
370 0.000632
371 0.000616
372 0.000607
373 0.000603
374 0.000607
375 0.000610
376 0.000616
377 0.000610
378 0.000611
379 0.000610
380 0.000606
381 0.000604
382 0.000606
383 0.000613
384 0.000621
385 0.000633
386 0.000648
387 0.000656
388 0.000675
389 0.000688
390 0.000695
391 0.000702
392 0.000709
393 0.000723
394 0.000734
395 0.000739
396 0.000734
397 0.000723
398 0.000710
399 0.000710
400 0.000715
401 0.000714
402 0.000714
403 0.000723
404 0.000737
405 0.000742
406 0.000738
407 0.000738
408 0.000729
409 0.000728
410 0.000729
411 0.000723
412 0.000718
413 0.000711
414 0.000708
415 0.000702
416 0.000695
417 0.000696
418 0.000696
419 0.000702
420 0.000698
421 0.000690
422 0.000673
423 0.000661
424 0.000659
425 0.000664
426 0.000663
427 0.000662
428 0.000655
429 0.000651
430 0.000657
431 0.000662
432 0.000669
433 0.000678
434 0.000681
435 0.000670
436 0.000657
437 0.000644
438 0.000623
439 0.000611
440 0.000609
441 0.000607
442 0.000604
443 0.000593
444 0.000585
445 0.000581
446 0.000570
447 0.000558
448 0.000550
449 0.000556
450 0.000570
451 0.000576
452 0.000580
453 0.000580
454 0.000571
455 0.000561
456 0.000555
457 0.000554
458 0.000545
459 0.000533
460 0.000525
461 0.000525
462 0.000517
463 0.000509
464 0.000503
465 0.000496
466 0.000487
467 0.000473
468 0.000468
469 0.000460
470 0.000461
471 0.000476
472 0.000487
473 0.000495
474 0.000504
475 0.000510
476 0.000519
477 0.000529
478 0.000541
479 0.000550
480 0.000555
481 0.000558
482 0.000558
483 0.000565
484 0.000575
485 0.000579
486 0.000576
487 0.000573
488 0.000571
489 0.000570
490 0.000577
491 0.000574
492 0.000566
493 0.000560
494 0.000557
495 0.000556
496 0.000544
497 0.000534
498 0.000533
499 0.000544
500 0.000551
501 0.000550
502 0.000543
503 0.000539
504 0.000543
505 0.000544
506 0.000539
507 0.000544
508 0.000545
509 0.000545
510 0.000544
511 0.000548
512 0.000552
513 0.000550
514 0.000554
515 0.000559
516 0.000554
517 0.000542
518 0.000531
519 0.000532
520 0.000540
521 0.000557
522 0.000570
523 0.000569
524 0.000565
525 0.000563
526 0.000564
527 0.000571
528 0.000569
529 0.000573
530 0.000579
531 0.000585
532 0.000588
533 0.000588
534 0.000586
535 0.000594
536 0.000604
537 0.000619
538 0.000632
539 0.000651
540 0.000665
541 0.000674
542 0.000679
543 0.000676
544 0.000677
545 0.000688
546 0.000695
547 0.000700
548 0.000697
549 0.000687
550 0.000683
551 0.000676
552 0.000676
553 0.000677
554 0.000678
555 0.000681
556 0.000677
557 0.000672
558 0.000666
559 0.000662
560 0.000661
561 0.000663
562 0.000671
563 0.000682
564 0.000688
565 0.000696
566 0.000699
567 0.000701
568 0.000709
569 0.000716
570 0.000719
571 0.000718
572 0.000711
573 0.000704
574 0.000704
575 0.000706
576 0.000698
577 0.000683
578 0.000670
579 0.000664
580 0.000655
581 0.000643
582 0.000633
583 0.000628
584 0.000628
585 0.000619
586 0.000613
587 0.000610
588 0.000615
589 0.000628
590 0.000635
591 0.000643
592 0.000648
593 0.000657
594 0.000665
595 0.000668
596 0.000668
597 0.000663
598 0.000654
599 0.000649
600 0.000641
601 0.000636
602 0.000633
603 0.000626
604 0.000618
605 0.000607
606 0.000589
607 0.000575
608 0.000566
609 0.000569
610 0.000572
611 0.000580
612 0.000583
613 0.000587
614 0.000595
615 0.000608
616 0.000616
617 0.000622
618 0.000625
619 0.000627
620 0.000635
621 0.000637
622 0.000631
623 0.000630
624 0.000627
625 0.000629
626 0.000631
627 0.000627
628 0.000627
629 0.000626
630 0.000630
631 0.000629
632 0.000621
633 0.000611
634 0.000598
635 0.000590
636 0.000583
637 0.000575
638 0.000564
639 0.000554
640 0.000546
641 0.000535
642 0.000530
643 0.000514
644 0.000502
645 0.000492
646 0.000483
647 0.000471
648 0.000458
649 0.000447
650 0.000437
651 0.000431
652 0.000421
653 0.000409
654 0.000399
655 0.000386
656 0.000383
657 0.000376
658 0.000375
659 0.000383
660 0.000395
661 0.000400
662 0.000410
663 0.000419
664 0.000431
665 0.000438
666 0.000448
667 0.000459
668 0.000472
669 0.000481
670 0.000491
671 0.000496
672 0.000500
673 0.000508
674 0.000524
675 0.000536
676 0.000546
677 0.000562
678 0.000570
679 0.000570
680 0.000570
681 0.000567
682 0.000570
683 0.000569
684 0.000567
685 0.000571
686 0.000571
687 0.000573
688 0.000575
689 0.000576
690 0.000572
691 0.000571
692 0.000572
693 0.000572
694 0.000578
695 0.000579
696 0.000572
697 0.000567
698 0.000566
699 0.000563
700 0.000565
701 0.000567
702 0.000567
703 0.000567
704 0.000562
705 0.000560
706 0.000561
707 0.000560
708 0.000564
709 0.000566
710 0.000565
711 0.000568
712 0.000567
713 0.000572
714 0.000576
715 0.000583
716 0.000590
717 0.000594
718 0.000597
719 0.000598
720 0.000598
721 0.000595
722 0.000590
723 0.000587
724 0.000580
725 0.000574
726 0.000575
727 0.000569
728 0.000567
729 0.000562
730 0.000555
731 0.000553
732 0.000555
733 0.000556
734 0.000551
735 0.000549
736 0.000551
737 0.000552
738 0.000550
739 0.000546
740 0.000545
741 0.000544
742 0.000546
743 0.000551
744 0.000559
745 0.000553
746 0.000544
747 0.000543
748 0.000542
749 0.000545
750 0.000547
751 0.000546
752 0.000547
753 0.000545
754 0.000545
755 0.000546
756 0.000545
757 0.000549
758 0.000554
759 0.000560
760 0.000558
761 0.000557
762 0.000559
763 0.000561
764 0.000567
765 0.000566
766 0.000559
767 0.000556
768 0.000559
769 0.000560
770 0.000552
771 0.000543
772 0.000532
773 0.000524
774 0.000522
775 0.000519
776 0.000514
777 0.000508
778 0.000503
779 0.000502
780 0.000500
781 0.000497
782 0.000499
783 0.000502
784 0.000495
785 0.000489
786 0.000482
787 0.000470
788 0.000461
789 0.000453
790 0.000443
791 0.000433
792 0.000414
793 0.000406
794 0.000399
795 0.000392
796 0.000386
797 0.000380
798 0.000377
799 0.000370
800 0.000369
801 0.000366
802 0.000364
803 0.000362
804 0.000363
805 0.000368
806 0.000369
807 0.000370
808 0.000367
809 0.000362
