# i correlation
1 0.002159
2 0.002044
3 0.001963
4 0.001900
5 0.001841
6 0.001773
7 0.001710
8 0.001675
9 0.001636
10 0.001600
11 0.001560
12 0.001540
13 0.001529
14 0.001521
15 0.001503
16 0.001482
17 0.001470
18 0.001458
19 0.001445
20 0.001447
21 0.001444
22 0.001444
23 0.001434
24 0.001409
25 0.001390
26 0.001376
27 0.001357
28 0.001337
29 0.001313
30 0.001282
31 0.001262
32 0.001239
33 0.001211
34 0.001193
35 0.001189
36 0.001193
37 0.001184
38 0.001179
39 0.001179
40 0.001194
41 0.001207
42 0.001211
43 0.001212
44 0.001213
45 0.001222
46 0.001213
47 0.001197
48 0.001189
49 0.001191
50 0.001198
51 0.001201
52 0.001201
53 0.001193
54 0.001200
55 0.001204
56 0.001199
57 0.001194
58 0.001183
59 0.001174
60 0.001167
61 0.001161
62 0.001141
63 0.001121
64 0.001103
65 0.001098
66 0.001097
67 0.001087
68 0.001062
69 0.001046
70 0.001047
71 0.001054
72 0.001047
73 0.001042
74 0.001038
75 0.001036
76 0.001040
77 0.001047
78 0.001038
79 0.001033
80 0.001029
81 0.001036
82 0.001035
83 0.001024
84 0.000993
85 0.000967
86 0.000940
87 0.000919
88 0.000890
89 0.000868
90 0.000850
91 0.000844
92 0.000836
93 0.000828
94 0.000829
95 0.000842
96 0.000859
97 0.000866
98 0.000874
99 0.000876
100 0.000876
101 0.000875
102 0.000874
103 0.000873
104 0.000868
105 0.000863
106 0.000862
107 0.000847
108 0.000835
109 0.000835
110 0.000829
111 0.000828
112 0.000821
113 0.000796
114 0.000783
115 0.000779
116 0.000773
117 0.000768
118 0.000766
119 0.000766
120 0.000766
121 0.000756
122 0.000750
123 0.000742
124 0.000735
125 0.000718
126 0.000703
127 0.000695
128 0.000696
129 0.000688
130 0.000669
131 0.000652
132 0.000644
133 0.000629
134 0.000623
135 0.000614
136 0.000607
137 0.000616
138 0.000630
139 0.000623
140 0.000618
141 0.000613
142 0.000606
143 0.000605
144 0.000600
145 0.000581
146 0.000569
147 0.000558
148 0.000558
149 0.000561
150 0.000556
151 0.000558
152 0.000564
153 0.000564
154 0.000557
155 0.000561
156 0.000571
157 0.000568
158 0.000565
159 0.000544
160 0.000539
161 0.000545
162 0.000545
163 0.000545
164 0.000551
165 0.000542
166 0.000545
167 0.000537
168 0.000529
169 0.000528
170 0.000536
171 0.000546
172 0.000565
173 0.000579
174 0.000591
175 0.000598
176 0.000595
177 0.000591
178 0.000586
179 0.000580
180 0.000572
181 0.000561
182 0.000550
183 0.000550
184 0.000552
185 0.000547
186 0.000541
187 0.000539
188 0.000536
189 0.000534
190 0.000524
191 0.000513
192 0.000508
193 0.000498
194 0.000489
195 0.000487
196 0.000486
197 0.000480
198 0.000481
199 0.000486
200 0.000494
201 0.000504
202 0.000505
203 0.000501
204 0.000490
205 0.000488
206 0.000478
207 0.000471
208 0.000462
209 0.000457
210 0.000462
211 0.000470
212 0.000472
213 0.000472
214 0.000482
215 0.000511
216 0.000534
217 0.000540
218 0.000561
219 0.000573
220 0.000587
221 0.000598
222 0.000605
223 0.000610
224 0.000607
225 0.000594
226 0.000584
227 0.000582
228 0.000580
229 0.000574
230 0.000567
231 0.000565
232 0.000565
233 0.000560
234 0.000556
235 0.000552
236 0.000540
237 0.000532
238 0.000526
239 0.000519
240 0.000512
241 0.000511
242 0.000502
243 0.000508
244 0.000508
245 0.000498
246 0.000496
247 0.000496
248 0.000488
249 0.000485
250 0.000480
251 0.000477
252 0.000479
253 0.000481
254 0.000486
255 0.000486
256 0.000494
257 0.000496
258 0.000495
259 0.000494
260 0.000494
261 0.000496
262 0.000496
263 0.000491
264 0.000483
265 0.000474
266 0.000474
267 0.000483
268 0.000488
269 0.000498
270 0.000513
271 0.000518
272 0.000533
273 0.000545
274 0.000541
275 0.000543
276 0.000549
277 0.000552
278 0.000549
279 0.000546
280 0.000544
281 0.000546
282 0.000543
283 0.000546
284 0.000550
285 0.000546
286 0.000541
287 0.000532
288 0.000515
289 0.000501
290 0.000485
291 0.000464
292 0.000458
293 0.000457
294 0.000459
295 0.000461
296 0.000460
297 0.000468
298 0.000484
299 0.000498
300 0.000505
301 0.000514
302 0.000508
303 0.000497
304 0.000493
305 0.000494
306 0.000494
307 0.000490
308 0.000481
309 0.000470
310 0.000466
311 0.000465
312 0.000460
313 0.000460
314 0.000470
315 0.000477
316 0.000483
317 0.000484
318 0.000488
319 0.000496
320 0.000509
321 0.000519
322 0.000534
323 0.000540
324 0.000552
325 0.000561
326 0.000577
327 0.000591
328 0.000602
329 0.000602
330 0.000613
331 0.000614
332 0.000599
333 0.000595
334 0.000590
335 0.000580
336 0.000577
337 0.000571
338 0.000572
339 0.000584
340 0.000580
341 0.000565
342 0.000555
343 0.000555
344 0.000554
345 0.000550
346 0.000545
347 0.000546
348 0.000547
349 0.000542
350 0.000535
351 0.000526
352 0.000518
353 0.000516
354 0.000511
355 0.000498
356 0.000491
357 0.000474
358 0.000458
359 0.000441
360 0.000422
361 0.000402
362 0.000385
363 0.000368
364 0.000354
365 0.000349
366 0.000351
367 0.000349
368 0.000347
369 0.000339
370 0.000327
371 0.000329
372 0.000332
373 0.000334
374 0.000335
375 0.000347
376 0.000359
377 0.000361
378 0.000366
379 0.000374
380 0.000371
381 0.000376
382 0.000370
383 0.000357
384 0.000343
385 0.000336
386 0.000327
387 0.000324
388 0.000323
389 0.000329
390 0.000342
391 0.000352
392 0.000361
393 0.000375
394 0.000380
395 0.000391
396 0.000399
397 0.000399
398 0.000410
399 0.000424
400 0.000429
401 0.000438
402 0.000438
403 0.000436
404 0.000440
405 0.000439
406 0.000426
407 0.000421
408 0.000417
409 0.000410
410 0.000406
411 0.000403
412 0.000394
413 0.000389
414 0.000376
415 0.000364
416 0.000360
417 0.000355
418 0.000357
419 0.000355
420 0.000358
421 0.000361
422 0.000365
423 0.000359
424 0.000358
425 0.000356
426 0.000351
427 0.000350
428 0.000345
429 0.000336
430 0.000336
431 0.000345
432 0.000342
433 0.000336
434 0.000330
435 0.000332
436 0.000342
437 0.000340
438 0.000335
439 0.000337
440 0.000335
441 0.000328
442 0.000328
443 0.000322
444 0.000325
445 0.000329
446 0.000324
447 0.000317
448 0.000318
449 0.000320
450 0.000329
451 0.000336
452 0.000349
453 0.000366
454 0.000388
455 0.000400
456 0.000413
457 0.000424
458 0.000436
459 0.000446
460 0.000449
461 0.000450
462 0.000460
463 0.000462
464 0.000465
465 0.000467
466 0.000459
467 0.000455
468 0.000447
469 0.000437
470 0.000439
471 0.000440
472 0.000454
473 0.000458
474 0.000459
475 0.000469
476 0.000486
477 0.000504
478 0.000515
479 0.000518
480 0.000523
481 0.000523
482 0.000526
483 0.000530
484 0.000532
485 0.000534
486 0.000535
487 0.000531
488 0.000529
489 0.000525
490 0.000528
491 0.000535
492 0.000536
493 0.000531
494 0.000526
495 0.000524
496 0.000517
497 0.000514
498 0.000510
499 0.000506
500 0.000503
501 0.000502
502 0.000504
503 0.000513
504 0.000515
505 0.000520
506 0.000529
507 0.000536
508 0.000529
509 0.000515
510 0.000505
511 0.000506
512 0.000507
513 0.000505
514 0.000499
515 0.000494
516 0.000494
517 0.000494
518 0.000490
519 0.000484
520 0.000479
521 0.000471
522 0.000462
523 0.000450
524 0.000438
525 0.000418
526 0.000401
527 0.000394
528 0.000390
529 0.000396
530 0.000399
531 0.000401
532 0.000395
533 0.000400
534 0.000404
535 0.000399
536 0.000394
537 0.000388
538 0.000385
539 0.000392
540 0.000390
541 0.000388
542 0.000394
543 0.000401
544 0.000402
545 0.000399
546 0.000397
547 0.000402
548 0.000407
549 0.000405
550 0.000397
551 0.000400
552 0.000400
553 0.000402
554 0.000406
555 0.000406
556 0.000405
557 0.000406
558 0.000403
559 0.000405
560 0.000412
561 0.000420
562 0.000429
563 0.000431
564 0.000435
565 0.000441
566 0.000448
567 0.000451
568 0.000458
569 0.000466
570 0.000469
571 0.000468
572 0.000459
573 0.000461
574 0.000475
575 0.000474
576 0.000468
577 0.000466
578 0.000461
579 0.000447
580 0.000433
581 0.000420
582 0.000414
583 0.000404
584 0.000401
585 0.000390
586 0.000377
587 0.000367
588 0.000363
589 0.000357
590 0.000351
591 0.000345
592 0.000334
593 0.000329
594 0.000331
595 0.000338
596 0.000344
597 0.000350
598 0.000351
599 0.000352
600 0.000354
601 0.000352
602 0.000342
603 0.000338
604 0.000336
605 0.000342
606 0.000345
607 0.000336
608 0.000328
609 0.000327
610 0.000330
611 0.000330
612 0.000330
613 0.000330
614 0.000331
615 0.000334
616 0.000337
617 0.000333
618 0.000329
619 0.000326
620 0.000324
621 0.000318
622 0.000309
623 0.000300
624 0.000289
625 0.000280
626 0.000277
627 0.000273
628 0.000269
629 0.000268
630 0.000261
631 0.000255
632 0.000251
633 0.000242
634 0.000241
635 0.000238
636 0.000240
637 0.000229
638 0.000217
639 0.000203
640 0.000195
641 0.000189
642 0.000184
643 0.000177
644 0.000174
645 0.000173
646 0.000173
647 0.000176
648 0.000178
649 0.000181
650 0.000184
651 0.000191
652 0.000198
653 0.000197
654 0.000197
655 0.000200
656 0.000194
657 0.000195
658 0.000194
659 0.000193
660 0.000188
661 0.000184
662 0.000181
663 0.000173
664 0.000163
665 0.000154
666 0.000149
667 0.000148
668 0.000140
669 0.000138
670 0.000136
671 0.000142
672 0.000156
673 0.000166
674 0.000174
675 0.000181
676 0.000192
677 0.000207
678 0.000218
679 0.000225
680 0.000234
681 0.000237
682 0.000240
683 0.000232
684 0.000221
685 0.000212
686 0.000210
687 0.000208
688 0.000201
689 0.000186
690 0.000179
691 0.000175
692 0.000171
693 0.000168
694 0.000164
695 0.000164
696 0.000161
697 0.000160
698 0.000152
699 0.000144
700 0.000140
701 0.000136
702 0.000134
703 0.000134
704 0.000132
705 0.000137
706 0.000135
707 0.000135
708 0.000130
709 0.000121
710 0.000102
711 0.000085
712 0.000072
713 0.000061
714 0.000052
715 0.000048
716 0.000041
717 0.000041
718 0.000048
719 0.000049
720 0.000039
721 0.000031
722 0.000035
723 0.000040
724 0.000035
725 0.000033
726 0.000036
727 0.000043
728 0.000049
729 0.000058
730 0.000068
731 0.000068
732 0.000070
733 0.000070
734 0.000071
735 0.000077
736 0.000078
737 0.000079
738 0.000085
739 0.000086
740 0.000086
741 0.000078
742 0.000076
743 0.000073
744 0.000073
745 0.000071
746 0.000068
747 0.000071
748 0.000072
749 0.000076
750 0.000078
751 0.000074
752 0.000074
753 0.000074
754 0.000075
755 0.000073
756 0.000066
757 0.000064
758 0.000066
759 0.000068
760 0.000063
761 0.000060
762 0.000061
763 0.000056
764 0.000052
765 0.000045
766 0.000037
767 0.000034
768 0.000026
769 0.000016
770 0.000014
771 0.000012
772 0.000009
773 0.000002
774 -0.000003
775 -0.000006
776 -0.000010
777 -0.000015
778 -0.000015
779 -0.000015
780 -0.000010
781 -0.000008
782 -0.000007
783 -0.000007
784 0.000002
785 0.000014
786 0.000020
787 0.000023
788 0.000029
789 0.000044
790 0.000056
791 0.000061
792 0.000068
793 0.000072
794 0.000072
795 0.000068
796 0.000066
797 0.000064
798 0.000065
799 0.000067
800 0.000069
801 0.000072
802 0.000073
803 0.000075
804 0.000077
805 0.000076
806 0.000083
807 0.000086
808 0.000085
809 0.000086
