# i correlation
1 0.002455
2 0.002335
3 0.002218
4 0.002118
5 0.002032
6 0.001960
7 0.001883
8 0.001825
9 0.001781
10 0.001743
11 0.001706
12 0.001676
13 0.001657
14 0.001645
15 0.001630
16 0.001616
17 0.001578
18 0.001536
19 0.001488
20 0.001452
21 0.001431
22 0.001405
23 0.001382
24 0.001360
25 0.001351
26 0.001348
27 0.001344
28 0.001367
29 0.001383
30 0.001403
31 0.001425
32 0.001441
33 0.001446
34 0.001449
35 0.001453
36 0.001455
37 0.001469
38 0.001464
39 0.001448
40 0.001445
41 0.001447
42 0.001458
43 0.001478
44 0.001503
45 0.001537
46 0.001579
47 0.001613
48 0.001622
49 0.001623
50 0.001617
51 0.001607
52 0.001593
53 0.001560
54 0.001533
55 0.001494
56 0.001469
57 0.001436
58 0.001403
59 0.001384
60 0.001377
61 0.001363
62 0.001357
63 0.001364
64 0.001356
65 0.001345
66 0.001328
67 0.001308
68 0.001300
69 0.001283
70 0.001253
71 0.001227
72 0.001206
73 0.001195
74 0.001186
75 0.001174
76 0.001170
77 0.001176
78 0.001168
79 0.001166
80 0.001160
81 0.001151
82 0.001149
83 0.001154
84 0.001168
85 0.001173
86 0.001166
87 0.001154
88 0.001150
89 0.001157
90 0.001162
91 0.001184
92 0.001212
93 0.001238
94 0.001264
95 0.001274
96 0.001285
97 0.001300
98 0.001321
99 0.001345
100 0.001374
101 0.001373
102 0.001367
103 0.001330
104 0.001286
105 0.001251
106 0.001233
107 0.001201
108 0.001170
109 0.001138
110 0.001117
111 0.001092
112 0.001070
113 0.001040
114 0.001013
115 0.000982
116 0.000955
117 0.000925
118 0.000888
119 0.000851
120 0.000829
121 0.000809
122 0.000803
123 0.000801
124 0.000797
125 0.000798
126 0.000807
127 0.000811
128 0.000818
129 0.000825
130 0.000831
131 0.000839
132 0.000851
133 0.000844
134 0.000834
135 0.000828
136 0.000842
137 0.000861
138 0.000868
139 0.000867
140 0.000872
141 0.000886
142 0.000895
143 0.000916
144 0.000921
145 0.000933
146 0.000951
147 0.000974
148 0.000995
149 0.000999
150 0.001005
151 0.000989
152 0.000969
153 0.000950
154 0.000930
155 0.000908
156 0.000886
157 0.000864
158 0.000844
159 0.000827
160 0.000819
161 0.000814
162 0.000805
163 0.000799
164 0.000793
165 0.000782
166 0.000776
167 0.000765
168 0.000750
169 0.000731
170 0.000706
171 0.000684
172 0.000672
173 0.000671
174 0.000682
175 0.000673
176 0.000673
177 0.000674
178 0.000679
179 0.000675
180 0.000673
181 0.000654
182 0.000647
183 0.000635
184 0.000628
185 0.000611
186 0.000586
187 0.000567
188 0.000551
189 0.000536
190 0.000522
191 0.000515
192 0.000513
193 0.000529
194 0.000539
195 0.000559
196 0.000579
197 0.000599
198 0.000614
199 0.000634
200 0.000652
201 0.000668
202 0.000682
203 0.000686
204 0.000691
205 0.000686
206 0.000688
207 0.000673
208 0.000667
209 0.000655
210 0.000647
211 0.000640
212 0.000636
213 0.000634
214 0.000632
215 0.000634
216 0.000621
217 0.000611
218 0.000591
219 0.000583
220 0.000570
221 0.000556
222 0.000551
223 0.000547
224 0.000540
225 0.000542
226 0.000548
227 0.000544
228 0.000543
229 0.000546
230 0.000551
231 0.000549
232 0.000541
233 0.000531
234 0.000525
235 0.000511
236 0.000509
237 0.000501
238 0.000507
239 0.000514
240 0.000521
241 0.000522
242 0.000526
243 0.000542
244 0.000554
245 0.000569
246 0.000575
247 0.000580
248 0.000584
249 0.000591
250 0.000598
251 0.000595
252 0.000592
253 0.000590
254 0.000584
255 0.000584
256 0.000572
257 0.000568
258 0.000573
259 0.000562
260 0.000563
261 0.000558
262 0.000551
263 0.000537
264 0.000529
265 0.000523
266 0.000511
267 0.000502
268 0.000494
269 0.000489
270 0.000477
271 0.000475
272 0.000472
273 0.000477
274 0.000474
275 0.000461
276 0.000458
277 0.000450
278 0.000450
279 0.000453
280 0.000458
281 0.000449
282 0.000447
283 0.000451
284 0.000442
285 0.000436
286 0.000433
287 0.000423
288 0.000416
289 0.000421
290 0.000432
291 0.000435
292 0.000425
293 0.000425
294 0.000422
295 0.000426
296 0.000437
297 0.000444
298 0.000451
299 0.000469
300 0.000485
301 0.000495
302 0.000509
303 0.000521
304 0.000542
305 0.000555
306 0.000567
307 0.000570
308 0.000571
309 0.000569
310 0.000570
311 0.000581
312 0.000593
313 0.000599
314 0.000607
315 0.000616
316 0.000613
317 0.000599
318 0.000586
319 0.000571
320 0.000563
321 0.000568
322 0.000568
323 0.000567
324 0.000568
325 0.000564
326 0.000553
327 0.000553
328 0.000557
329 0.000558
330 0.000553
331 0.000543
332 0.000538
333 0.000530
334 0.000527
335 0.000518
336 0.000515
337 0.000521
338 0.000516
339 0.000506
340 0.000488
341 0.000473
342 0.000466
343 0.000460
344 0.000453
345 0.000452
346 0.000464
347 0.000467
348 0.000469
349 0.000472
350 0.000472
351 0.000479
352 0.000493
353 0.000502
354 0.000507
355 0.000509
356 0.000515
357 0.000515
358 0.000517
359 0.000521
360 0.000532
361 0.000527
362 0.000536
363 0.000535
364 0.000529
365 0.000535
366 0.000529
367 0.000530
368 0.000526
369 0.000519
370 0.000511
371 0.000511
372 0.000508
373 0.000518
374 0.000526
375 0.000539
376 0.000540
377 0.000530
378 0.000520
379 0.000515
380 0.000508
381 0.000513
382 0.000515
383 0.000524
384 0.000532
385 0.000530
386 0.000519
387 0.000496
388 0.000482
389 0.000474
390 0.000465
391 0.000457
392 0.000451
393 0.000451
394 0.000448
395 0.000445
396 0.000451
397 0.000463
398 0.000462
399 0.000469
400 0.000469
401 0.000460
402 0.000452
403 0.000450
404 0.000442
405 0.000447
406 0.000452
407 0.000453
408 0.000454
409 0.000450
410 0.000456
411 0.000457
412 0.000463
413 0.000462
414 0.000465
415 0.000465
416 0.000453
417 0.000437
418 0.000416
419 0.000392
420 0.000369
421 0.000363
422 0.000362
423 0.000363
424 0.000354
425 0.000348
426 0.000360
427 0.000374
428 0.000387
429 0.000394
430 0.000394
431 0.000388
432 0.000380
433 0.000373
434 0.000371
435 0.000360
436 0.000355
437 0.000347
438 0.000341
439 0.000338
440 0.000334
441 0.000321
442 0.000317
443 0.000317
444 0.000315
445 0.000316
446 0.000318
447 0.000319
448 0.000325
449 0.000329
450 0.000335
451 0.000338
452 0.000347
453 0.000353
454 0.000358
455 0.000359
456 0.000361
457 0.000361
458 0.000369
459 0.000375
460 0.000377
461 0.000383
462 0.000396
463 0.000403
464 0.000411
465 0.000420
466 0.000416
467 0.000415
468 0.000419
469 0.000419
470 0.000416
471 0.000412
472 0.000397
473 0.000400
474 0.000406
475 0.000417
476 0.000416
477 0.000412
478 0.000406
479 0.000397
480 0.000386
481 0.000368
482 0.000356
483 0.000358
484 0.000357
485 0.000355
486 0.000358
487 0.000348
488 0.000343
489 0.000339
490 0.000320
491 0.000307
492 0.000290
493 0.000269
494 0.000259
495 0.000260
496 0.000259
497 0.000264
498 0.000275
499 0.000292
500 0.000291
501 0.000290
502 0.000293
503 0.000295
504 0.000290
505 0.000292
506 0.000292
507 0.000295
508 0.000303
509 0.000305
510 0.000308
511 0.000323
512 0.000341
513 0.000345
514 0.000345
515 0.000344
516 0.000343
517 0.000340
518 0.000335
519 0.000326
520 0.000323
521 0.000323
522 0.000326
523 0.000330
524 0.000327
525 0.000321
526 0.000322
527 0.000328
528 0.000337
529 0.000354
530 0.000366
531 0.000374
532 0.000377
533 0.000385
534 0.000390
535 0.000396
536 0.000401
537 0.000390
538 0.000379
539 0.000374
540 0.000371
541 0.000368
542 0.000359
543 0.000361
544 0.000359
545 0.000356
546 0.000354
547 0.000356
548 0.000358
549 0.000357
550 0.000350
551 0.000344
552 0.000332
553 0.000324
554 0.000315
555 0.000309
556 0.000301
557 0.000294
558 0.000294
559 0.000298
560 0.000303
561 0.000306
562 0.000323
563 0.000337
564 0.000348
565 0.000353
566 0.000356
567 0.000345
568 0.000344
569 0.000337
570 0.000325
571 0.000318
572 0.000310
573 0.000310
574 0.000312
575 0.000321
576 0.000335
577 0.000351
578 0.000362
579 0.000381
580 0.000393
581 0.000408
582 0.000412
583 0.000411
584 0.000402
585 0.000395
586 0.000384
587 0.000366
588 0.000348
589 0.000328
590 0.000317
591 0.000308
592 0.000302
593 0.000300
594 0.000299
595 0.000306
596 0.000317
597 0.000328
598 0.000324
599 0.000321
600 0.000320
601 0.000321
602 0.000316
603 0.000313
604 0.000309
605 0.000306
606 0.000307
607 0.000309
608 0.000304
609 0.000304
610 0.000310
611 0.000332
612 0.000354
613 0.000370
614 0.000380
615 0.000384
616 0.000382
617 0.000373
618 0.000367
619 0.000350
620 0.000338
621 0.000316
622 0.000307
623 0.000296
624 0.000283
625 0.000277
626 0.000277
627 0.000288
628 0.000305
629 0.000327
630 0.000347
631 0.000362
632 0.000378
633 0.000387
634 0.000381
635 0.000379
636 0.000379
637 0.000368
638 0.000356
639 0.000346
640 0.000335
641 0.000328
642 0.000328
643 0.000330
644 0.000331
645 0.000333
646 0.000333
647 0.000334
648 0.000334
649 0.000337
650 0.000340
651 0.000329
652 0.000314
653 0.000302
654 0.000283
655 0.000270
656 0.000252
657 0.000236
658 0.000235
659 0.000241
660 0.000248
661 0.000252
662 0.000260
663 0.000262
664 0.000269
665 0.000272
666 0.000272
667 0.000269
668 0.000269
669 0.000270
670 0.000266
671 0.000261
672 0.000262
673 0.000266
674 0.000262
675 0.000265
676 0.000280
677 0.000298
678 0.000316
679 0.000340
680 0.000359
681 0.000381
682 0.000397
683 0.000406
684 0.000420
685 0.000426
686 0.000426
687 0.000424
688 0.000425
689 0.000416
690 0.000410
691 0.000401
692 0.000391
693 0.000377
694 0.000363
695 0.000357
696 0.000355
697 0.000363
698 0.000365
699 0.000363
700 0.000351
701 0.000340
702 0.000325
703 0.000312
704 0.000301
705 0.000288
706 0.000283
707 0.000283
708 0.000278
709 0.000280
710 0.000277
711 0.000282
712 0.000288
713 0.000307
714 0.000322
715 0.000333
716 0.000337
717 0.000336
718 0.000336
719 0.000335
720 0.000330
721 0.000323
722 0.000321
723 0.000320
724 0.000325
725 0.000329
726 0.000327
727 0.000329
728 0.000339
729 0.000358
730 0.000371
731 0.000376
732 0.000374
733 0.000370
734 0.000362
735 0.000348
736 0.000339
737 0.000324
738 0.000315
739 0.000305
740 0.000292
741 0.000286
742 0.000285
743 0.000281
744 0.000285
745 0.000282
746 0.000277
747 0.000276
748 0.000274
749 0.000270
750 0.000262
751 0.000245
752 0.000232
753 0.000218
754 0.000208
755 0.000199
756 0.000192
757 0.000185
758 0.000180
759 0.000182
760 0.000182
761 0.000186
762 0.000191
763 0.000193
764 0.000195
765 0.000195
766 0.000194
767 0.000193
768 0.000189
769 0.000184
770 0.000188
771 0.000186
772 0.000189
773 0.000194
774 0.000202
775 0.000215
776 0.000229
777 0.000244
778 0.000257
779 0.000270
780 0.000280
781 0.000286
782 0.000289
783 0.000284
784 0.000281
785 0.000271
786 0.000260
787 0.000249
788 0.000250
789 0.000245
790 0.000245
791 0.000245
792 0.000240
793 0.000234
794 0.000233
795 0.000219
796 0.000211
797 0.000198
798 0.000193
799 0.000181
800 0.000169
801 0.000154
802 0.000142
803 0.000123
804 0.000110
805 0.000103
806 0.000094
807 0.000093
808 0.000089
809 0.000091
