# i correlation
1 0.002069
2 0.001951
3 0.001849
4 0.001763
5 0.001688
6 0.001634
7 0.001590
8 0.001547
9 0.001523
10 0.001481
11 0.001446
12 0.001429
13 0.001410
14 0.001390
15 0.001367
16 0.001355
17 0.001332
18 0.001327
19 0.001323
20 0.001314
21 0.001315
22 0.001314
23 0.001298
24 0.001275
25 0.001244
26 0.001210
27 0.001179
28 0.001151
29 0.001138
30 0.001130
31 0.001122
32 0.001115
33 0.001105
34 0.001100
35 0.001105
36 0.001112
37 0.001109
38 0.001118
39 0.001123
40 0.001106
41 0.001099
42 0.001102
43 0.001100
44 0.001103
45 0.001092
46 0.001073
47 0.001059
48 0.001074
49 0.001084
50 0.001108
51 0.001121
52 0.001127
53 0.001122
54 0.001116
55 0.001106
56 0.001088
57 0.001081
58 0.001069
59 0.001052
60 0.001043
61 0.001032
62 0.001026
63 0.001018
64 0.001008
65 0.000988
66 0.000977
67 0.000955
68 0.000950
69 0.000952
70 0.000954
71 0.000958
72 0.000966
73 0.000978
74 0.000963
75 0.000955
76 0.000936
77 0.000922
78 0.000897
79 0.000861
80 0.000832
81 0.000812
82 0.000808
83 0.000794
84 0.000800
85 0.000804
86 0.000808
87 0.000823
88 0.000840
89 0.000865
90 0.000878
91 0.000885
92 0.000888
93 0.000900
94 0.000912
95 0.000903
96 0.000894
97 0.000883
98 0.000867
99 0.000847
100 0.000831
101 0.000821
102 0.000808
103 0.000797
104 0.000790
105 0.000789
106 0.000791
107 0.000798
108 0.000808
109 0.000809
110 0.000810
111 0.000808
112 0.000816
113 0.000823
114 0.000835
115 0.000833
116 0.000824
117 0.000809
118 0.000784
119 0.000758
120 0.000734
121 0.000721
122 0.000702
123 0.000703
124 0.000702
125 0.000707
126 0.000706
127 0.000704
128 0.000701
129 0.000684
130 0.000666
131 0.000633
132 0.000604
133 0.000587
134 0.000571
135 0.000564
136 0.000551
137 0.000533
138 0.000521
139 0.000522
140 0.000514
141 0.000518
142 0.000523
143 0.000538
144 0.000551
145 0.000565
146 0.000572
147 0.000581
148 0.000598
149 0.000604
150 0.000617
151 0.000630
152 0.000637
153 0.000632
154 0.000621
155 0.000618
156 0.000609
157 0.000607
158 0.000601
159 0.000595
160 0.000597
161 0.000587
162 0.000586
163 0.000583
164 0.000592
165 0.000605
166 0.000624
167 0.000628
168 0.000615
169 0.000611
170 0.000589
171 0.000588
172 0.000577
173 0.000558
174 0.000547
175 0.000531
176 0.000511
177 0.000508
178 0.000518
179 0.000517
180 0.000514
181 0.000504
182 0.000479
183 0.000461
184 0.000440
185 0.000424
186 0.000420
187 0.000433
188 0.000434
189 0.000444
190 0.000451
191 0.000444
192 0.000425
193 0.000426
194 0.000421
195 0.000419
196 0.000435
197 0.000443
198 0.000450
199 0.000457
200 0.000474
201 0.000484
202 0.000496
203 0.000503
204 0.000507
205 0.000506
206 0.000490
207 0.000490
208 0.000492
209 0.000493
210 0.000498
211 0.000495
212 0.000491
213 0.000492
214 0.000497
215 0.000498
216 0.000515
217 0.000526
218 0.000528
219 0.000528
220 0.000530
221 0.000525
222 0.000514
223 0.000505
224 0.000493
225 0.000477
226 0.000465
227 0.000444
228 0.000433
229 0.000424
230 0.000413
231 0.000410
232 0.000421
233 0.000425
234 0.000420
235 0.000426
236 0.000423
237 0.000428
238 0.000443
239 0.000454
240 0.000462
241 0.000466
242 0.000467
243 0.000461
244 0.000473
245 0.000477
246 0.000466
247 0.000446
248 0.000428
249 0.000411
250 0.000400
251 0.000409
252 0.000416
253 0.000431
254 0.000445
255 0.000454
256 0.000469
257 0.000479
258 0.000491
259 0.000499
260 0.000504
261 0.000509
262 0.000522
263 0.000532
264 0.000539
265 0.000541
266 0.000543
267 0.000543
268 0.000536
269 0.000516
270 0.000503
271 0.000490
272 0.000481
273 0.000470
274 0.000458
275 0.000446
276 0.000433
277 0.000419
278 0.000407
279 0.000393
280 0.000396
281 0.000392
282 0.000386
283 0.000389
284 0.000389
285 0.000386
286 0.000380
287 0.000378
288 0.000385
289 0.000389
290 0.000394
291 0.000396
292 0.000395
293 0.000380
294 0.000373
295 0.000365
296 0.000360
297 0.000366
298 0.000366
299 0.000362
300 0.000354
301 0.000357
302 0.000363
303 0.000363
304 0.000373
305 0.000393
306 0.000421
307 0.000446
308 0.000468
309 0.000478
310 0.000492
311 0.000492
312 0.000491
313 0.000506
314 0.000518
315 0.000511
316 0.000509
317 0.000506
318 0.000508
319 0.000508
320 0.000503
321 0.000499
322 0.000496
323 0.000500
324 0.000490
325 0.000481
326 0.000480
327 0.000476
328 0.000479
329 0.000486
330 0.000497
331 0.000501
332 0.000510
333 0.000507
334 0.000498
335 0.000493
336 0.000481
337 0.000468
338 0.000454
339 0.000442
340 0.000442
341 0.000444
342 0.000442
343 0.000437
344 0.000434
345 0.000430
346 0.000423
347 0.000416
348 0.000408
349 0.000402
350 0.000403
351 0.000402
352 0.000415
353 0.000422
354 0.000424
355 0.000433
356 0.000443
357 0.000447
358 0.000449
359 0.000451
360 0.000453
361 0.000467
362 0.000486
363 0.000483
364 0.000477
365 0.000470
366 0.000460
367 0.000465
368 0.000478
369 0.000487
370 0.000495
371 0.000503
372 0.000500
373 0.000498
374 0.000503
375 0.000492
376 0.000481
377 0.000472
378 0.000466
379 0.000456
380 0.000456
381 0.000462
382 0.000465
383 0.000460
384 0.000446
385 0.000422
386 0.000398
387 0.000385
388 0.000364
389 0.000352
390 0.000339
391 0.000332
392 0.000326
393 0.000315
394 0.000308
395 0.000311
396 0.000318
397 0.000321
398 0.000324
399 0.000308
400 0.000299
401 0.000281
402 0.000262
403 0.000259
404 0.000260
405 0.000278
406 0.000297
407 0.000322
408 0.000325
409 0.000322
410 0.000321
411 0.000327
412 0.000331
413 0.000341
414 0.000349
415 0.000354
416 0.000358
417 0.000367
418 0.000379
419 0.000401
420 0.000412
421 0.000420
422 0.000424
423 0.000421
424 0.000417
425 0.000423
426 0.000429
427 0.000427
428 0.000431
429 0.000433
430 0.000432
431 0.000435
432 0.000442
433 0.000453
434 0.000460
435 0.000467
436 0.000465
437 0.000469
438 0.000462
439 0.000455
440 0.000443
441 0.000434
442 0.000431
443 0.000418
444 0.000408
445 0.000399
446 0.000399
447 0.000390
448 0.000373
449 0.000365
450 0.000356
451 0.000351
452 0.000347
453 0.000340
454 0.000327
455 0.000335
456 0.000349
457 0.000351
458 0.000358
459 0.000365
460 0.000363
461 0.000362
462 0.000363
463 0.000361
464 0.000360
465 0.000359
466 0.000355
467 0.000352
468 0.000359
469 0.000372
470 0.000381
471 0.000393
472 0.000387
473 0.000382
474 0.000377
475 0.000378
476 0.000374
477 0.000375
478 0.000381
479 0.000379
480 0.000388
481 0.000393
482 0.000393
483 0.000402
484 0.000414
485 0.000433
486 0.000433
487 0.000439
488 0.000445
489 0.000443
490 0.000441
491 0.000439
492 0.000435
493 0.000420
494 0.000410
495 0.000399
496 0.000391
497 0.000386
498 0.000372
499 0.000358
500 0.000346
501 0.000340
502 0.000330
503 0.000322
504 0.000315
505 0.000305
506 0.000306
507 0.000314
508 0.000324
509 0.000323
510 0.000331
511 0.000331
512 0.000332
513 0.000331
514 0.000322
515 0.000317
516 0.000306
517 0.000294
518 0.000280
519 0.000284
520 0.000275
521 0.000276
522 0.000277
523 0.000289
524 0.000298
525 0.000295
526 0.000291
527 0.000287
528 0.000293
529 0.000291
530 0.000292
531 0.000297
532 0.000303
533 0.000315
534 0.000322
535 0.000316
536 0.000302
537 0.000284
538 0.000258
539 0.000245
540 0.000249
541 0.000259
542 0.000267
543 0.000275
544 0.000275
545 0.000279
546 0.000293
547 0.000300
548 0.000292
549 0.000282
550 0.000274
551 0.000265
552 0.000252
553 0.000243
554 0.000232
555 0.000224
556 0.000212
557 0.000197
558 0.000191
559 0.000177
560 0.000168
561 0.000159
562 0.000147
563 0.000141
564 0.000143
565 0.000148
566 0.000150
567 0.000151
568 0.000143
569 0.000147
570 0.000149
571 0.000153
572 0.000162
573 0.000167
574 0.000171
575 0.000167
576 0.000167
577 0.000170
578 0.000170
579 0.000163
580 0.000159
581 0.000156
582 0.000149
583 0.000143
584 0.000140
585 0.000156
586 0.000166
587 0.000167
588 0.000167
589 0.000165
590 0.000164
591 0.000156
592 0.000150
593 0.000145
594 0.000155
595 0.000159
596 0.000164
597 0.000164
598 0.000165
599 0.000168
600 0.000167
601 0.000163
602 0.000156
603 0.000156
604 0.000158
605 0.000156
606 0.000155
607 0.000150
608 0.000155
609 0.000149
610 0.000146
611 0.000137
612 0.000131
613 0.000133
614 0.000126
615 0.000126
616 0.000131
617 0.000129
618 0.000131
619 0.000129
620 0.000121
621 0.000108
622 0.000103
623 0.000096
624 0.000092
625 0.000095
626 0.000095
627 0.000099
628 0.000104
629 0.000108
630 0.000096
631 0.000088
632 0.000074
633 0.000065
634 0.000055
635 0.000062
636 0.000069
637 0.000071
638 0.000074
639 0.000071
640 0.000073
641 0.000069
642 0.000072
643 0.000070
644 0.000062
645 0.000052
646 0.000040
647 0.000031
648 0.000019
649 0.000019
650 0.000013
651 0.000005
652 -0.000004
653 -0.000015
654 -0.000023
655 -0.000031
656 -0.000041
657 -0.000049
658 -0.000040
659 -0.000028
660 -0.000014
661 -0.000005
662 0.000001
663 0.000012
664 0.000022
665 0.000031
666 0.000039
667 0.000048
668 0.000059
669 0.000067
670 0.000077
671 0.000086
672 0.000097
673 0.000103
674 0.000105
675 0.000107
676 0.000098
677 0.000089
678 0.000080
679 0.000083
680 0.000081
681 0.000087
682 0.000090
683 0.000089
684 0.000090
685 0.000092
686 0.000092
687 0.000096
688 0.000101
689 0.000105
690 0.000111
691 0.000122
692 0.000123
693 0.000126
694 0.000127
695 0.000130
696 0.000128
697 0.000136
698 0.000140
699 0.000141
700 0.000143
701 0.000148
702 0.000159
703 0.000166
704 0.000173
705 0.000176
706 0.000174
707 0.000164
708 0.000157
709 0.000146
710 0.000140
711 0.000136
712 0.000129
713 0.000132
714 0.000132
715 0.000127
716 0.000118
717 0.000106
718 0.000096
719 0.000088
720 0.000090
721 0.000093
722 0.000091
723 0.000092
724 0.000094
725 0.000095
726 0.000096
727 0.000094
728 0.000084
729 0.000086
730 0.000084
731 0.000083
732 0.000086
733 0.000093
734 0.000095
735 0.000094
736 0.000091
737 0.000086
738 0.000078
739 0.000073
740 0.000068
741 0.000072
742 0.000076
743 0.000084
744 0.000095
745 0.000104
746 0.000103
747 0.000109
748 0.000111
749 0.000109
750 0.000108
751 0.000113
752 0.000122
753 0.000131
754 0.000144
755 0.000152
756 0.000160
757 0.000166
758 0.000169
759 0.000172
760 0.000171
761 0.000171
762 0.000169
763 0.000174
764 0.000174
765 0.000176
766 0.000180
767 0.000175
768 0.000173
769 0.000168
770 0.000164
771 0.000159
772 0.000154
773 0.000149
774 0.000146
775 0.000148
776 0.000150
777 0.000159
778 0.000166
779 0.000182
780 0.000194
781 0.000201
782 0.000207
783 0.000210
784 0.000213
785 0.000222
786 0.000230
787 0.000243
788 0.000251
789 0.000257
790 0.000260
791 0.000263
792 0.000264
793 0.000271
794 0.000278
795 0.000283
796 0.000287
797 0.000290
798 0.000293
799 0.000298
800 0.000297
801 0.000291
802 0.000287
803 0.000289
804 0.000294
805 0.000295
806 0.000292
807 0.000287
808 0.000282
809 0.000276
