# i correlation
1 0.001911
2 0.001801
3 0.001715
4 0.001641
5 0.001582
6 0.001528
7 0.001486
8 0.001449
9 0.001415
10 0.001390
11 0.001362
12 0.001341
13 0.001336
14 0.001332
15 0.001320
16 0.001311
17 0.001309
18 0.001296
19 0.001286
20 0.001278
21 0.001268
22 0.001255
23 0.001246
24 0.001240
25 0.001252
26 0.001267
27 0.001268
28 0.001249
29 0.001253
30 0.001256
31 0.001249
32 0.001231
33 0.001224
34 0.001218
35 0.001215
36 0.001187
37 0.001170
38 0.001161
39 0.001155
40 0.001157
41 0.001155
42 0.001153
43 0.001150
44 0.001156
45 0.001152
46 0.001163
47 0.001174
48 0.001188
49 0.001193
50 0.001199
51 0.001197
52 0.001187
53 0.001187
54 0.001189
55 0.001198
56 0.001203
57 0.001214
58 0.001205
59 0.001187
60 0.001176
61 0.001168
62 0.001156
63 0.001142
64 0.001136
65 0.001130
66 0.001125
67 0.001103
68 0.001091
69 0.001089
70 0.001087
71 0.001078
72 0.001062
73 0.001054
74 0.001043
75 0.001053
76 0.001074
77 0.001084
78 0.001092
79 0.001108
80 0.001111
81 0.001118
82 0.001122
83 0.001129
84 0.001144
85 0.001146
86 0.001137
87 0.001128
88 0.001120
89 0.001118
90 0.001113
91 0.001111
92 0.001103
93 0.001081
94 0.001073
95 0.001073
96 0.001066
97 0.001056
98 0.001046
99 0.001033
100 0.001007
101 0.000993
102 0.000972
103 0.000967
104 0.000962
105 0.000968
106 0.000974
107 0.000966
108 0.000967
109 0.000969
110 0.000980
111 0.000981
112 0.000990
113 0.000992
114 0.000997
115 0.000998
116 0.001000
117 0.000998
118 0.000999
119 0.000992
120 0.000971
121 0.000959
122 0.000952
123 0.000944
124 0.000941
125 0.000939
126 0.000939
127 0.000934
128 0.000926
129 0.000916
130 0.000905
131 0.000906
132 0.000912
133 0.000911
134 0.000915
135 0.000929
136 0.000938
137 0.000942
138 0.000959
139 0.000982
140 0.001004
141 0.001031
142 0.001051
143 0.001062
144 0.001055
145 0.001050
146 0.001033
147 0.001015
148 0.001003
149 0.000996
150 0.000974
151 0.000962
152 0.000964
153 0.000971
154 0.000977
155 0.000978
156 0.000980
157 0.000979
158 0.000983
159 0.000991
160 0.001004
161 0.001013
162 0.001022
163 0.001011
164 0.000998
165 0.001000
166 0.001002
167 0.001007
168 0.001007
169 0.000997
170 0.000996
171 0.000987
172 0.000990
173 0.000988
174 0.000995
175 0.001000
176 0.001004
177 0.000997
178 0.000980
179 0.000965
180 0.000957
181 0.000941
182 0.000937
183 0.000932
184 0.000934
185 0.000929
186 0.000925
187 0.000920
188 0.000912
189 0.000910
190 0.000908
191 0.000914
192 0.000912
193 0.000903
194 0.000896
195 0.000888
196 0.000882
197 0.000890
198 0.000890
199 0.000894
200 0.000885
201 0.000879
202 0.000870
203 0.000871
204 0.000872
205 0.000863
206 0.000860
207 0.000861
208 0.000864
209 0.000867
210 0.000869
211 0.000864
212 0.000858
213 0.000856
214 0.000841
215 0.000839
216 0.000838
217 0.000826
218 0.000812
219 0.000804
220 0.000807
221 0.000810
222 0.000813
223 0.000816
224 0.000820
225 0.000826
226 0.000825
227 0.000816
228 0.000820
229 0.000824
230 0.000834
231 0.000840
232 0.000841
233 0.000837
234 0.000826
235 0.000809
236 0.000792
237 0.000789
238 0.000803
239 0.000810
240 0.000808
241 0.000804
242 0.000793
243 0.000786
244 0.000772
245 0.000767
246 0.000765
247 0.000765
248 0.000773
249 0.000774
250 0.000781
251 0.000791
252 0.000789
253 0.000785
254 0.000798
255 0.000805
256 0.000814
257 0.000818
258 0.000816
259 0.000812
260 0.000807
261 0.000807
262 0.000800
263 0.000794
264 0.000794
265 0.000799
266 0.000795
267 0.000787
268 0.000784
269 0.000784
270 0.000790
271 0.000787
272 0.000782
273 0.000775
274 0.000769
275 0.000769
276 0.000771
277 0.000774
278 0.000769
279 0.000749
280 0.000739
281 0.000731
282 0.000724
283 0.000733
284 0.000727
285 0.000732
286 0.000734
287 0.000722
288 0.000726
289 0.000726
290 0.000721
291 0.000720
292 0.000722
293 0.000715
294 0.000713
295 0.000721
296 0.000722
297 0.000720
298 0.000717
299 0.000705
300 0.000696
301 0.000685
302 0.000670
303 0.000660
304 0.000658
305 0.000657
306 0.000646
307 0.000643
308 0.000638
309 0.000638
310 0.000641
311 0.000650
312 0.000656
313 0.000650
314 0.000658
315 0.000673
316 0.000683
317 0.000687
318 0.000686
319 0.000681
320 0.000674
321 0.000674
322 0.000675
323 0.000673
324 0.000673
325 0.000680
326 0.000689
327 0.000707
328 0.000709
329 0.000710
330 0.000702
331 0.000696
332 0.000697
333 0.000694
334 0.000693
335 0.000694
336 0.000687
337 0.000669
338 0.000661
339 0.000655
340 0.000657
341 0.000663
342 0.000673
343 0.000679
344 0.000683
345 0.000687
346 0.000701
347 0.000714
348 0.000720
349 0.000731
350 0.000726
351 0.000720
352 0.000733
353 0.000739
354 0.000743
355 0.000736
356 0.000734
357 0.000731
358 0.000720
359 0.000711
360 0.000695
361 0.000684
362 0.000675
363 0.000656
364 0.000650
365 0.000642
366 0.000641
367 0.000645
368 0.000630
369 0.000627
370 0.000613
371 0.000595
372 0.000576
373 0.000577
374 0.000582
375 0.000595
376 0.000602
377 0.000595
378 0.000581
379 0.000569
380 0.000566
381 0.000568
382 0.000570
383 0.000587
384 0.000595
385 0.000592
386 0.000591
387 0.000598
388 0.000595
389 0.000590
390 0.000588
391 0.000587
392 0.000587
393 0.000585
394 0.000578
395 0.000568
396 0.000562
397 0.000551
398 0.000536
399 0.000541
400 0.000553
401 0.000557
402 0.000565
403 0.000561
404 0.000559
405 0.000556
406 0.000563
407 0.000567
408 0.000573
409 0.000574
410 0.000582
411 0.000597
412 0.000602
413 0.000620
414 0.000633
415 0.000631
416 0.000633
417 0.000641
418 0.000640
419 0.000635
420 0.000622
421 0.000610
422 0.000594
423 0.000580
424 0.000572
425 0.000560
426 0.000550
427 0.000539
428 0.000523
429 0.000517
430 0.000525
431 0.000541
432 0.000556
433 0.000568
434 0.000579
435 0.000580
436 0.000577
437 0.000581
438 0.000590
439 0.000594
440 0.000600
441 0.000607
442 0.000610
443 0.000606
444 0.000604
445 0.000597
446 0.000592
447 0.000578
448 0.000572
449 0.000559
450 0.000548
451 0.000535
452 0.000524
453 0.000522
454 0.000514
455 0.000503
456 0.000495
457 0.000491
458 0.000492
459 0.000499
460 0.000510
461 0.000516
462 0.000525
463 0.000529
464 0.000538
465 0.000550
466 0.000554
467 0.000551
468 0.000551
469 0.000548
470 0.000551
471 0.000556
472 0.000558
473 0.000552
474 0.000550
475 0.000551
476 0.000546
477 0.000528
478 0.000510
479 0.000508
480 0.000498
481 0.000495
482 0.000488
483 0.000481
484 0.000474
485 0.000467
486 0.000462
487 0.000459
488 0.000469
489 0.000480
490 0.000486
491 0.000486
492 0.000491
493 0.000492
494 0.000489
495 0.000492
496 0.000496
497 0.000497
498 0.000499
499 0.000509
500 0.000515
501 0.000526
502 0.000532
503 0.000529
504 0.000525
505 0.000533
506 0.000540
507 0.000532
508 0.000534
509 0.000538
510 0.000529
511 0.000521
512 0.000511
513 0.000490
514 0.000483
515 0.000479
516 0.000480
517 0.000481
518 0.000486
519 0.000495
520 0.000498
521 0.000505
522 0.000507
523 0.000513
524 0.000515
525 0.000517
526 0.000524
527 0.000525
528 0.000524
529 0.000528
530 0.000525
531 0.000530
532 0.000534
533 0.000521
534 0.000507
535 0.000495
536 0.000487
537 0.000479
538 0.000468
539 0.000455
540 0.000448
541 0.000445
542 0.000435
543 0.000428
544 0.000417
545 0.000416
546 0.000410
547 0.000401
548 0.000392
549 0.000389
550 0.000387
551 0.000386
552 0.000388
553 0.000388
554 0.000390
555 0.000401
556 0.000408
557 0.000407
558 0.000408
559 0.000412
560 0.000414
561 0.000417
562 0.000423
563 0.000422
564 0.000412
565 0.000410
566 0.000416
567 0.000415
568 0.000406
569 0.000399
570 0.000394
571 0.000386
572 0.000382
573 0.000383
574 0.000386
575 0.000389
576 0.000386
577 0.000381
578 0.000375
579 0.000370
580 0.000374
581 0.000377
582 0.000378
583 0.000370
584 0.000365
585 0.000362
586 0.000358
587 0.000358
588 0.000356
589 0.000357
590 0.000354
591 0.000359
592 0.000364
593 0.000361
594 0.000350
595 0.000339
596 0.000330
597 0.000330
598 0.000331
599 0.000331
600 0.000333
601 0.000330
602 0.000332
603 0.000334
604 0.000333
605 0.000342
606 0.000352
607 0.000365
608 0.000383
609 0.000393
610 0.000402
611 0.000407
612 0.000411
613 0.000408
614 0.000405
615 0.000400
616 0.000400
617 0.000397
618 0.000398
619 0.000392
620 0.000382
621 0.000380
622 0.000381
623 0.000381
624 0.000391
625 0.000385
626 0.000380
627 0.000371
628 0.000359
629 0.000346
630 0.000340
631 0.000340
632 0.000343
633 0.000344
634 0.000337
635 0.000334
636 0.000320
637 0.000317
638 0.000315
639 0.000316
640 0.000315
641 0.000320
642 0.000324
643 0.000329
644 0.000330
645 0.000327
646 0.000324
647 0.000322
648 0.000311
649 0.000302
650 0.000301
651 0.000304
652 0.000305
653 0.000303
654 0.000293
655 0.000280
656 0.000274
657 0.000274
658 0.000276
659 0.000277
660 0.000282
661 0.000287
662 0.000290
663 0.000293
664 0.000299
665 0.000305
666 0.000307
667 0.000308
668 0.000312
669 0.000314
670 0.000316
671 0.000323
672 0.000331
673 0.000337
674 0.000343
675 0.000338
676 0.000331
677 0.000324
678 0.000315
679 0.000306
680 0.000295
681 0.000296
682 0.000299
683 0.000301
684 0.000300
685 0.000305
686 0.000309
687 0.000313
688 0.000318
689 0.000313
690 0.000311
691 0.000318
692 0.000326
693 0.000324
694 0.000326
695 0.000322
696 0.000317
697 0.000312
698 0.000304
699 0.000298
700 0.000295
701 0.000293
702 0.000294
703 0.000295
704 0.000294
705 0.000292
706 0.000288
707 0.000279
708 0.000278
709 0.000274
710 0.000256
711 0.000241
712 0.000230
713 0.000219
714 0.000210
715 0.000199
716 0.000201
717 0.000209
718 0.000216
719 0.000218
720 0.000217
721 0.000214
722 0.000216
723 0.000213
724 0.000202
725 0.000189
726 0.000175
727 0.000165
728 0.000157
729 0.000156
730 0.000156
731 0.000157
732 0.000154
733 0.000150
734 0.000148
735 0.000149
736 0.000152
737 0.000151
738 0.000152
739 0.000151
740 0.000148
741 0.000144
742 0.000144
743 0.000144
744 0.000138
745 0.000127
746 0.000117
747 0.000116
748 0.000113
749 0.000115
750 0.000119
751 0.000130
752 0.000139
753 0.000149
754 0.000156
755 0.000158
756 0.000158
757 0.000166
758 0.000170
759 0.000168
760 0.000164
761 0.000162
762 0.000155
763 0.000146
764 0.000140
765 0.000139
766 0.000141
767 0.000142
768 0.000140
769 0.000138
770 0.000138
771 0.000136
772 0.000131
773 0.000130
774 0.000128
775 0.000125
776 0.000121
777 0.000118
778 0.000114
779 0.000107
780 0.000101
781 0.000090
782 0.000084
783 0.000083
784 0.000087
785 0.000092
786 0.000105
787 0.000113
788 0.000120
789 0.000123
790 0.000121
791 0.000120
792 0.000121
793 0.000120
794 0.000117
795 0.000112
796 0.000108
797 0.000107
798 0.000104
799 0.000104
800 0.000115
801 0.000128
802 0.000136
803 0.000139
804 0.000139
805 0.000139
806 0.000137
807 0.000137
808 0.000134
809 0.000129
