# i correlation
1 0.002591
2 0.002475
3 0.002382
4 0.002299
5 0.002241
6 0.002190
7 0.002142
8 0.002085
9 0.002042
10 0.002007
11 0.001976
12 0.001947
13 0.001913
14 0.001889
15 0.001869
16 0.001863
17 0.001833
18 0.001814
19 0.001802
20 0.001791
21 0.001766
22 0.001740
23 0.001725
24 0.001706
25 0.001694
26 0.001678
27 0.001667
28 0.001657
29 0.001651
30 0.001637
31 0.001605
32 0.001580
33 0.001555
34 0.001548
35 0.001553
36 0.001554
37 0.001556
38 0.001553
39 0.001554
40 0.001555
41 0.001553
42 0.001538
43 0.001537
44 0.001545
45 0.001546
46 0.001548
47 0.001552
48 0.001549
49 0.001558
50 0.001563
51 0.001567
52 0.001570
53 0.001563
54 0.001545
55 0.001520
56 0.001501
57 0.001483
58 0.001465
59 0.001461
60 0.001446
61 0.001427
62 0.001398
63 0.001368
64 0.001355
65 0.001352
66 0.001344
67 0.001337
68 0.001330
69 0.001324
70 0.001306
71 0.001304
72 0.001297
73 0.001286
74 0.001259
75 0.001255
76 0.001268
77 0.001274
78 0.001264
79 0.001245
80 0.001225
81 0.001208
82 0.001185
83 0.001166
84 0.001147
85 0.001151
86 0.001140
87 0.001142
88 0.001144
89 0.001135
90 0.001126
91 0.001131
92 0.001138
93 0.001145
94 0.001158
95 0.001186
96 0.001204
97 0.001210
98 0.001204
99 0.001205
100 0.001207
101 0.001221
102 0.001212
103 0.001217
104 0.001230
105 0.001238
106 0.001265
107 0.001283
108 0.001288
109 0.001287
110 0.001293
111 0.001285
112 0.001284
113 0.001282
114 0.001251
115 0.001236
116 0.001232
117 0.001233
118 0.001229
119 0.001224
120 0.001229
121 0.001222
122 0.001211
123 0.001204
124 0.001199
125 0.001196
126 0.001210
127 0.001219
128 0.001229
129 0.001236
130 0.001228
131 0.001226
132 0.001231
133 0.001235
134 0.001229
135 0.001222
136 0.001228
137 0.001235
138 0.001243
139 0.001233
140 0.001223
141 0.001210
142 0.001204
143 0.001189
144 0.001193
145 0.001197
146 0.001208
147 0.001224
148 0.001245
149 0.001273
150 0.001276
151 0.001275
152 0.001282
153 0.001286
154 0.001293
155 0.001305
156 0.001315
157 0.001318
158 0.001314
159 0.001298
160 0.001283
161 0.001254
162 0.001236
163 0.001221
164 0.001209
165 0.001193
166 0.001188
167 0.001186
168 0.001184
169 0.001176
170 0.001158
171 0.001143
172 0.001142
173 0.001146
174 0.001148
175 0.001143
176 0.001127
177 0.001107
178 0.001094
179 0.001097
180 0.001091
181 0.001075
182 0.001077
183 0.001083
184 0.001095
185 0.001100
186 0.001097
187 0.001090
188 0.001082
189 0.001089
190 0.001081
191 0.001087
192 0.001089
193 0.001087
194 0.001082
195 0.001073
196 0.001068
197 0.001051
198 0.001049
199 0.001050
200 0.001063
201 0.001069
202 0.001076
203 0.001088
204 0.001093
205 0.001108
206 0.001102
207 0.001101
208 0.001096
209 0.001103
210 0.001096
211 0.001077
212 0.001057
213 0.001055
214 0.001057
215 0.001036
216 0.001024
217 0.001006
218 0.000987
219 0.000975
220 0.000972
221 0.000982
222 0.000979
223 0.000979
224 0.000979
225 0.000985
226 0.000988
227 0.000991
228 0.000995
229 0.000986
230 0.000979
231 0.000966
232 0.000957
233 0.000975
234 0.000990
235 0.000996
236 0.000988
237 0.000985
238 0.000980
239 0.000992
240 0.001006
241 0.001022
242 0.001033
243 0.001046
244 0.001075
245 0.001101
246 0.001114
247 0.001118
248 0.001122
249 0.001123
250 0.001126
251 0.001143
252 0.001147
253 0.001144
254 0.001143
255 0.001135
256 0.001138
257 0.001137
258 0.001136
259 0.001137
260 0.001139
261 0.001134
262 0.001132
263 0.001118
264 0.001111
265 0.001095
266 0.001072
267 0.001063
268 0.001045
269 0.001032
270 0.001033
271 0.001032
272 0.001025
273 0.001009
274 0.000999
275 0.000993
276 0.000993
277 0.000996
278 0.001007
279 0.001013
280 0.001014
281 0.001011
282 0.001008
283 0.000992
284 0.000979
285 0.000972
286 0.000981
287 0.000985
288 0.000988
289 0.000980
290 0.000965
291 0.000948
292 0.000937
293 0.000925
294 0.000922
295 0.000930
296 0.000937
297 0.000938
298 0.000937
299 0.000937
300 0.000936
301 0.000945
302 0.000954
303 0.000952
304 0.000968
305 0.000986
306 0.000997
307 0.000989
308 0.000991
309 0.000974
310 0.000961
311 0.000948
312 0.000937
313 0.000923
314 0.000888
315 0.000858
316 0.000841
317 0.000822
318 0.000807
319 0.000781
320 0.000767
321 0.000752
322 0.000745
323 0.000737
324 0.000739
325 0.000741
326 0.000737
327 0.000730
328 0.000728
329 0.000729
330 0.000729
331 0.000744
332 0.000741
333 0.000732
334 0.000722
335 0.000700
336 0.000690
337 0.000674
338 0.000665
339 0.000657
340 0.000661
341 0.000668
342 0.000665
343 0.000668
344 0.000657
345 0.000649
346 0.000640
347 0.000649
348 0.000651
349 0.000662
350 0.000658
351 0.000672
352 0.000693
353 0.000703
354 0.000735
355 0.000763
356 0.000773
357 0.000789
358 0.000805
359 0.000805
360 0.000808
361 0.000795
362 0.000781
363 0.000777
364 0.000762
365 0.000749
366 0.000740
367 0.000733
368 0.000729
369 0.000720
370 0.000722
371 0.000722
372 0.000717
373 0.000718
374 0.000720
375 0.000722
376 0.000717
377 0.000726
378 0.000730
379 0.000732
380 0.000730
381 0.000726
382 0.000719
383 0.000728
384 0.000731
385 0.000724
386 0.000702
387 0.000687
388 0.000674
389 0.000671
390 0.000668
391 0.000664
392 0.000652
393 0.000656
394 0.000652
395 0.000661
396 0.000670
397 0.000678
398 0.000685
399 0.000692
400 0.000696
401 0.000706
402 0.000705
403 0.000703
404 0.000705
405 0.000710
406 0.000715
407 0.000728
408 0.000744
409 0.000757
410 0.000757
411 0.000753
412 0.000742
413 0.000732
414 0.000734
415 0.000726
416 0.000728
417 0.000725
418 0.000710
419 0.000705
420 0.000695
421 0.000680
422 0.000659
423 0.000647
424 0.000639
425 0.000624
426 0.000620
427 0.000615
428 0.000617
429 0.000611
430 0.000599
431 0.000591
432 0.000576
433 0.000563
434 0.000557
435 0.000557
436 0.000564
437 0.000569
438 0.000565
439 0.000556
440 0.000545
441 0.000527
442 0.000506
443 0.000496
444 0.000494
445 0.000481
446 0.000478
447 0.000476
448 0.000475
449 0.000474
450 0.000476
451 0.000475
452 0.000465
453 0.000464
454 0.000468
455 0.000476
456 0.000487
457 0.000484
458 0.000480
459 0.000477
460 0.000482
461 0.000493
462 0.000506
463 0.000508
464 0.000521
465 0.000525
466 0.000530
467 0.000542
468 0.000545
469 0.000544
470 0.000538
471 0.000520
472 0.000508
473 0.000495
474 0.000486
475 0.000471
476 0.000456
477 0.000443
478 0.000439
479 0.000424
480 0.000431
481 0.000424
482 0.000407
483 0.000398
484 0.000398
485 0.000403
486 0.000398
487 0.000402
488 0.000402
489 0.000404
490 0.000404
491 0.000404
492 0.000398
493 0.000395
494 0.000384
495 0.000376
496 0.000382
497 0.000382
498 0.000369
499 0.000353
500 0.000344
501 0.000336
502 0.000329
503 0.000326
504 0.000331
505 0.000345
506 0.000350
507 0.000363
508 0.000375
509 0.000396
510 0.000412
511 0.000426
512 0.000447
513 0.000460
514 0.000470
515 0.000480
516 0.000485
517 0.000488
518 0.000484
519 0.000480
520 0.000470
521 0.000472
522 0.000479
523 0.000490
524 0.000495
525 0.000501
526 0.000510
527 0.000517
528 0.000518
529 0.000524
530 0.000523
531 0.000516
532 0.000519
533 0.000527
534 0.000535
535 0.000533
536 0.000534
537 0.000532
538 0.000524
539 0.000522
540 0.000523
541 0.000518
542 0.000512
543 0.000503
544 0.000494
545 0.000493
546 0.000491
547 0.000487
548 0.000480
549 0.000481
550 0.000483
551 0.000482
552 0.000481
553 0.000475
554 0.000466
555 0.000457
556 0.000457
557 0.000458
558 0.000451
559 0.000439
560 0.000424
561 0.000420
562 0.000416
563 0.000414
564 0.000414
565 0.000422
566 0.000430
567 0.000428
568 0.000431
569 0.000432
570 0.000425
571 0.000415
572 0.000398
573 0.000388
574 0.000380
575 0.000374
576 0.000370
577 0.000364
578 0.000352
579 0.000342
580 0.000345
581 0.000341
582 0.000343
583 0.000348
584 0.000357
585 0.000373
586 0.000385
587 0.000386
588 0.000390
589 0.000384
590 0.000392
591 0.000399
592 0.000398
593 0.000402
594 0.000399
595 0.000398
596 0.000394
597 0.000385
598 0.000377
599 0.000363
600 0.000358
601 0.000361
602 0.000364
603 0.000368
604 0.000374
605 0.000379
606 0.000384
607 0.000375
608 0.000363
609 0.000352
610 0.000344
611 0.000333
612 0.000324
613 0.000320
614 0.000320
615 0.000319
616 0.000315
617 0.000320
618 0.000329
619 0.000336
620 0.000343
621 0.000344
622 0.000346
623 0.000341
624 0.000334
625 0.000334
626 0.000321
627 0.000306
628 0.000296
629 0.000298
630 0.000299
631 0.000304
632 0.000307
633 0.000313
634 0.000316
635 0.000322
636 0.000325
637 0.000332
638 0.000338
639 0.000336
640 0.000335
641 0.000338
642 0.000347
643 0.000348
644 0.000351
645 0.000352
646 0.000350
647 0.000353
648 0.000350
649 0.000360
650 0.000370
651 0.000373
652 0.000376
653 0.000379
654 0.000382
655 0.000380
656 0.000381
657 0.000386
658 0.000388
659 0.000386
660 0.000393
661 0.000399
662 0.000409
663 0.000419
664 0.000420
665 0.000422
666 0.000416
667 0.000409
668 0.000403
669 0.000397
670 0.000396
671 0.000389
672 0.000389
673 0.000386
674 0.000386
675 0.000382
676 0.000380
677 0.000379
678 0.000376
679 0.000374
680 0.000377
681 0.000378
682 0.000376
683 0.000377
684 0.000373
685 0.000373
686 0.000372
687 0.000371
688 0.000369
689 0.000365
690 0.000362
691 0.000353
692 0.000344
693 0.000332
694 0.000322
695 0.000319
696 0.000322
697 0.000320
698 0.000314
699 0.000309
700 0.000299
701 0.000297
702 0.000296
703 0.000295
704 0.000283
705 0.000270
706 0.000261
707 0.000251
708 0.000236
709 0.000227
710 0.000223
711 0.000220
712 0.000218
713 0.000219
714 0.000225
715 0.000228
716 0.000225
717 0.000219
718 0.000213
719 0.000209
720 0.000197
721 0.000185
722 0.000176
723 0.000167
724 0.000161
725 0.000160
726 0.000163
727 0.000164
728 0.000162
729 0.000159
730 0.000149
731 0.000134
732 0.000126
733 0.000114
734 0.000107
735 0.000099
736 0.000093
737 0.000083
738 0.000075
739 0.000074
740 0.000070
741 0.000068
742 0.000069
743 0.000061
744 0.000045
745 0.000029
746 0.000010
747 -0.000007
748 -0.000013
749 -0.000018
750 -0.000018
751 -0.000023
752 -0.000038
753 -0.000044
754 -0.000047
755 -0.000047
756 -0.000045
757 -0.000049
758 -0.000052
759 -0.000055
760 -0.000058
761 -0.000058
762 -0.000057
763 -0.000053
764 -0.000048
765 -0.000040
766 -0.000035
767 -0.000035
768 -0.000037
769 -0.000039
770 -0.000033
771 -0.000026
772 -0.000022
773 -0.000018
774 -0.000008
775 0.000003
776 0.000006
777 0.000013
778 0.000014
779 0.000020
780 0.000026
781 0.000026
782 0.000019
783 0.000006
784 -0.000003
785 -0.000008
786 -0.000008
787 -0.000010
788 -0.000014
789 -0.000021
790 -0.000024
791 -0.000019
792 -0.000011
793 0.000001
794 0.000010
795 0.000018
796 0.000023
797 0.000027
798 0.000032
799 0.000032
800 0.000036
801 0.000037
802 0.000040
803 0.000042
804 0.000047
805 0.000054
806 0.000058
807 0.000061
808 0.000060
809 0.000066
