# i correlation
1 0.002212
2 0.002103
3 0.002003
4 0.001923
5 0.001857
6 0.001806
7 0.001758
8 0.001715
9 0.001682
10 0.001659
11 0.001644
12 0.001632
13 0.001625
14 0.001617
15 0.001604
16 0.001584
17 0.001551
18 0.001529
19 0.001518
20 0.001497
21 0.001474
22 0.001465
23 0.001446
24 0.001428
25 0.001423
26 0.001435
27 0.001442
28 0.001449
29 0.001453
30 0.001454
31 0.001451
32 0.001443
33 0.001420
34 0.001409
35 0.001390
36 0.001369
37 0.001362
38 0.001358
39 0.001350
40 0.001329
41 0.001322
42 0.001309
43 0.001289
44 0.001277
45 0.001275
46 0.001255
47 0.001236
48 0.001202
49 0.001178
50 0.001154
51 0.001133
52 0.001126
53 0.001123
54 0.001117
55 0.001111
56 0.001101
57 0.001105
58 0.001106
59 0.001113
60 0.001119
61 0.001132
62 0.001122
63 0.001112
64 0.001100
65 0.001092
66 0.001100
67 0.001111
68 0.001103
69 0.001095
70 0.001067
71 0.001059
72 0.001060
73 0.001070
74 0.001071
75 0.001067
76 0.001060
77 0.001043
78 0.001043
79 0.001053
80 0.001067
81 0.001082
82 0.001083
83 0.001084
84 0.001069
85 0.001055
86 0.001035
87 0.001021
88 0.001010
89 0.001005
90 0.000992
91 0.000984
92 0.000982
93 0.000977
94 0.000981
95 0.001000
96 0.001005
97 0.001013
98 0.001022
99 0.001020
100 0.001031
101 0.001047
102 0.001059
103 0.001063
104 0.001059
105 0.001051
106 0.001049
107 0.001046
108 0.001049
109 0.001045
110 0.001047
111 0.001047
112 0.001054
113 0.001062
114 0.001070
115 0.001064
116 0.001060
117 0.001059
118 0.001050
119 0.001054
120 0.001054
121 0.001051
122 0.001039
123 0.001024
124 0.001015
125 0.001010
126 0.001013
127 0.001014
128 0.001020
129 0.001013
130 0.001012
131 0.001020
132 0.001028
133 0.001044
134 0.001058
135 0.001073
136 0.001057
137 0.001029
138 0.000987
139 0.000958
140 0.000941
141 0.000924
142 0.000924
143 0.000935
144 0.000937
145 0.000936
146 0.000933
147 0.000937
148 0.000945
149 0.000952
150 0.000950
151 0.000935
152 0.000920
153 0.000900
154 0.000899
155 0.000899
156 0.000917
157 0.000925
158 0.000928
159 0.000930
160 0.000918
161 0.000916
162 0.000919
163 0.000923
164 0.000930
165 0.000939
166 0.000924
167 0.000907
168 0.000890
169 0.000885
170 0.000881
171 0.000871
172 0.000860
173 0.000850
174 0.000845
175 0.000836
176 0.000827
177 0.000814
178 0.000807
179 0.000799
180 0.000792
181 0.000787
182 0.000773
183 0.000752
184 0.000748
185 0.000739
186 0.000737
187 0.000736
188 0.000737
189 0.000732
190 0.000713
191 0.000696
192 0.000689
193 0.000675
194 0.000672
195 0.000674
196 0.000672
197 0.000671
198 0.000670
199 0.000669
200 0.000663
201 0.000665
202 0.000671
203 0.000671
204 0.000678
205 0.000666
206 0.000667
207 0.000669
208 0.000671
209 0.000678
210 0.000685
211 0.000688
212 0.000680
213 0.000660
214 0.000656
215 0.000659
216 0.000663
217 0.000672
218 0.000677
219 0.000675
220 0.000674
221 0.000673
222 0.000674
223 0.000682
224 0.000675
225 0.000680
226 0.000686
227 0.000679
228 0.000678
229 0.000687
230 0.000706
231 0.000721
232 0.000723
233 0.000715
234 0.000706
235 0.000700
236 0.000699
237 0.000710
238 0.000716
239 0.000715
240 0.000718
241 0.000718
242 0.000710
243 0.000712
244 0.000717
245 0.000734
246 0.000746
247 0.000751
248 0.000749
249 0.000751
250 0.000740
251 0.000731
252 0.000724
253 0.000731
254 0.000734
255 0.000726
256 0.000733
257 0.000730
258 0.000714
259 0.000703
260 0.000697
261 0.000690
262 0.000688
263 0.000696
264 0.000702
265 0.000705
266 0.000710
267 0.000721
268 0.000728
269 0.000735
270 0.000742
271 0.000748
272 0.000744
273 0.000737
274 0.000715
275 0.000710
276 0.000713
277 0.000711
278 0.000719
279 0.000726
280 0.000730
281 0.000726
282 0.000728
283 0.000735
284 0.000739
285 0.000742
286 0.000736
287 0.000723
288 0.000706
289 0.000695
290 0.000703
291 0.000708
292 0.000717
293 0.000724
294 0.000724
295 0.000720
296 0.000711
297 0.000696
298 0.000700
299 0.000712
300 0.000714
301 0.000711
302 0.000706
303 0.000688
304 0.000680
305 0.000681
306 0.000691
307 0.000692
308 0.000696
309 0.000692
310 0.000692
311 0.000690
312 0.000700
313 0.000714
314 0.000717
315 0.000714
316 0.000708
317 0.000696
318 0.000685
319 0.000666
320 0.000655
321 0.000650
322 0.000648
323 0.000643
324 0.000639
325 0.000637
326 0.000632
327 0.000631
328 0.000626
329 0.000627
330 0.000633
331 0.000635
332 0.000636
333 0.000639
334 0.000633
335 0.000628
336 0.000630
337 0.000637
338 0.000647
339 0.000652
340 0.000657
341 0.000651
342 0.000647
343 0.000643
344 0.000641
345 0.000641
346 0.000635
347 0.000634
348 0.000624
349 0.000614
350 0.000592
351 0.000593
352 0.000585
353 0.000574
354 0.000580
355 0.000590
356 0.000602
357 0.000607
358 0.000618
359 0.000631
360 0.000642
361 0.000641
362 0.000636
363 0.000634
364 0.000624
365 0.000627
366 0.000630
367 0.000630
368 0.000624
369 0.000628
370 0.000631
371 0.000634
372 0.000636
373 0.000652
374 0.000673
375 0.000690
376 0.000689
377 0.000686
378 0.000673
379 0.000675
380 0.000682
381 0.000685
382 0.000692
383 0.000689
384 0.000688
385 0.000696
386 0.000709
387 0.000713
388 0.000728
389 0.000736
390 0.000738
391 0.000733
392 0.000719
393 0.000710
394 0.000699
395 0.000685
396 0.000676
397 0.000667
398 0.000650
399 0.000632
400 0.000619
401 0.000615
402 0.000618
403 0.000621
404 0.000622
405 0.000628
406 0.000630
407 0.000616
408 0.000597
409 0.000574
410 0.000568
411 0.000566
412 0.000566
413 0.000564
414 0.000562
415 0.000559
416 0.000557
417 0.000545
418 0.000547
419 0.000551
420 0.000553
421 0.000564
422 0.000561
423 0.000549
424 0.000541
425 0.000535
426 0.000533
427 0.000537
428 0.000535
429 0.000533
430 0.000531
431 0.000525
432 0.000528
433 0.000526
434 0.000527
435 0.000522
436 0.000511
437 0.000493
438 0.000477
439 0.000457
440 0.000451
441 0.000465
442 0.000478
443 0.000485
444 0.000481
445 0.000468
446 0.000455
447 0.000443
448 0.000438
449 0.000429
450 0.000426
451 0.000426
452 0.000431
453 0.000431
454 0.000427
455 0.000430
456 0.000434
457 0.000445
458 0.000458
459 0.000457
460 0.000458
461 0.000460
462 0.000462
463 0.000466
464 0.000476
465 0.000478
466 0.000469
467 0.000464
468 0.000465
469 0.000464
470 0.000471
471 0.000476
472 0.000477
473 0.000480
474 0.000482
475 0.000480
476 0.000472
477 0.000471
478 0.000461
479 0.000457
480 0.000449
481 0.000441
482 0.000440
483 0.000438
484 0.000430
485 0.000426
486 0.000432
487 0.000445
488 0.000454
489 0.000461
490 0.000467
491 0.000469
492 0.000476
493 0.000487
494 0.000503
495 0.000513
496 0.000513
497 0.000507
498 0.000501
499 0.000493
500 0.000485
501 0.000483
502 0.000487
503 0.000496
504 0.000487
505 0.000481
506 0.000468
507 0.000456
508 0.000449
509 0.000446
510 0.000451
511 0.000444
512 0.000437
513 0.000434
514 0.000433
515 0.000427
516 0.000427
517 0.000426
518 0.000412
519 0.000410
520 0.000408
521 0.000410
522 0.000414
523 0.000411
524 0.000414
525 0.000419
526 0.000414
527 0.000409
528 0.000402
529 0.000394
530 0.000384
531 0.000376
532 0.000370
533 0.000361
534 0.000347
535 0.000342
536 0.000345
537 0.000348
538 0.000355
539 0.000359
540 0.000364
541 0.000359
542 0.000356
543 0.000349
544 0.000348
545 0.000340
546 0.000335
547 0.000331
548 0.000324
549 0.000318
550 0.000310
551 0.000303
552 0.000292
553 0.000284
554 0.000283
555 0.000286
556 0.000289
557 0.000285
558 0.000284
559 0.000281
560 0.000266
561 0.000255
562 0.000248
563 0.000230
564 0.000206
565 0.000180
566 0.000163
567 0.000146
568 0.000128
569 0.000122
570 0.000117
571 0.000110
572 0.000111
573 0.000101
574 0.000099
575 0.000097
576 0.000102
577 0.000114
578 0.000129
579 0.000126
580 0.000118
581 0.000110
582 0.000099
583 0.000086
584 0.000078
585 0.000083
586 0.000090
587 0.000089
588 0.000085
589 0.000089
590 0.000095
591 0.000108
592 0.000108
593 0.000109
594 0.000106
595 0.000103
596 0.000104
597 0.000103
598 0.000100
599 0.000096
600 0.000105
601 0.000116
602 0.000120
603 0.000119
604 0.000120
605 0.000127
606 0.000133
607 0.000132
608 0.000134
609 0.000128
610 0.000123
611 0.000121
612 0.000124
613 0.000131
614 0.000132
615 0.000134
616 0.000139
617 0.000146
618 0.000152
619 0.000156
620 0.000163
621 0.000160
622 0.000167
623 0.000176
624 0.000180
625 0.000182
626 0.000177
627 0.000182
628 0.000192
629 0.000203
630 0.000213
631 0.000215
632 0.000210
633 0.000209
634 0.000201
635 0.000194
636 0.000189
637 0.000183
638 0.000189
639 0.000194
640 0.000191
641 0.000181
642 0.000180
643 0.000172
644 0.000170
645 0.000164
646 0.000154
647 0.000146
648 0.000131
649 0.000116
650 0.000107
651 0.000101
652 0.000103
653 0.000100
654 0.000100
655 0.000103
656 0.000113
657 0.000126
658 0.000138
659 0.000161
660 0.000177
661 0.000185
662 0.000186
663 0.000189
664 0.000192
665 0.000184
666 0.000173
667 0.000172
668 0.000166
669 0.000167
670 0.000170
671 0.000178
672 0.000191
673 0.000204
674 0.000211
675 0.000211
676 0.000207
677 0.000196
678 0.000186
679 0.000174
680 0.000158
681 0.000148
682 0.000144
683 0.000141
684 0.000132
685 0.000129
686 0.000130
687 0.000128
688 0.000126
689 0.000127
690 0.000127
691 0.000129
692 0.000125
693 0.000115
694 0.000104
695 0.000093
696 0.000096
697 0.000093
698 0.000103
699 0.000113
700 0.000116
701 0.000126
702 0.000140
703 0.000145
704 0.000152
705 0.000162
706 0.000162
707 0.000158
708 0.000150
709 0.000141
710 0.000131
711 0.000130
712 0.000127
713 0.000125
714 0.000125
715 0.000120
716 0.000115
717 0.000114
718 0.000114
719 0.000108
720 0.000106
721 0.000109
722 0.000104
723 0.000100
724 0.000095
725 0.000090
726 0.000084
727 0.000079
728 0.000080
729 0.000068
730 0.000065
731 0.000064
732 0.000062
733 0.000067
734 0.000072
735 0.000076
736 0.000083
737 0.000094
738 0.000092
739 0.000094
740 0.000100
741 0.000102
742 0.000095
743 0.000097
744 0.000095
745 0.000093
746 0.000092
747 0.000084
748 0.000078
749 0.000072
750 0.000069
751 0.000066
752 0.000065
753 0.000057
754 0.000044
755 0.000032
756 0.000024
757 0.000019
758 0.000015
759 0.000016
760 0.000013
761 0.000011
762 0.000012
763 0.000018
764 0.000023
765 0.000036
766 0.000051
767 0.000060
768 0.000068
769 0.000072
770 0.000073
771 0.000077
772 0.000085
773 0.000087
774 0.000085
775 0.000088
776 0.000084
777 0.000085
778 0.000087
779 0.000093
780 0.000092
781 0.000095
782 0.000094
783 0.000089
784 0.000088
785 0.000085
786 0.000075
787 0.000065
788 0.000056
789 0.000044
790 0.000039
791 0.000036
792 0.000035
793 0.000026
794 0.000028
795 0.000029
796 0.000027
797 0.000024
798 0.000025
799 0.000023
800 0.000024
801 0.000024
802 0.000022
803 0.000025
804 0.000031
805 0.000032
806 0.000037
807 0.000047
808 0.000050
809 0.000054
