# i correlation
1 0.001669
2 0.001560
3 0.001468
4 0.001405
5 0.001352
6 0.001310
7 0.001276
8 0.001248
9 0.001216
10 0.001194
11 0.001169
12 0.001159
13 0.001151
14 0.001139
15 0.001131
16 0.001131
17 0.001119
18 0.001092
19 0.001050
20 0.001013
21 0.000986
22 0.000955
23 0.000934
24 0.000931
25 0.000932
26 0.000921
27 0.000913
28 0.000913
29 0.000910
30 0.000904
31 0.000906
32 0.000919
33 0.000925
34 0.000922
35 0.000921
36 0.000925
37 0.000917
38 0.000899
39 0.000884
40 0.000870
41 0.000862
42 0.000856
43 0.000851
44 0.000844
45 0.000841
46 0.000835
47 0.000822
48 0.000812
49 0.000819
50 0.000819
51 0.000804
52 0.000807
53 0.000815
54 0.000811
55 0.000793
56 0.000776
57 0.000771
58 0.000768
59 0.000758
60 0.000746
61 0.000742
62 0.000738
63 0.000740
64 0.000740
65 0.000752
66 0.000764
67 0.000774
68 0.000778
69 0.000784
70 0.000786
71 0.000773
72 0.000754
73 0.000750
74 0.000731
75 0.000720
76 0.000703
77 0.000695
78 0.000688
79 0.000683
80 0.000675
81 0.000684
82 0.000697
83 0.000702
84 0.000701
85 0.000702
86 0.000699
87 0.000695
88 0.000680
89 0.000680
90 0.000679
91 0.000686
92 0.000678
93 0.000682
94 0.000691
95 0.000689
96 0.000687
97 0.000680
98 0.000675
99 0.000681
100 0.000684
101 0.000687
102 0.000690
103 0.000706
104 0.000714
105 0.000717
106 0.000721
107 0.000715
108 0.000707
109 0.000693
110 0.000679
111 0.000670
112 0.000666
113 0.000663
114 0.000661
115 0.000657
116 0.000645
117 0.000628
118 0.000607
119 0.000600
120 0.000605
121 0.000609
122 0.000621
123 0.000622
124 0.000618
125 0.000603
126 0.000588
127 0.000572
128 0.000569
129 0.000552
130 0.000539
131 0.000528
132 0.000522
133 0.000521
134 0.000516
135 0.000533
136 0.000556
137 0.000568
138 0.000581
139 0.000591
140 0.000608
141 0.000617
142 0.000617
143 0.000600
144 0.000578
145 0.000562
146 0.000552
147 0.000544
148 0.000530
149 0.000519
150 0.000504
151 0.000491
152 0.000491
153 0.000494
154 0.000493
155 0.000482
156 0.000476
157 0.000470
158 0.000465
159 0.000458
160 0.000455
161 0.000444
162 0.000432
163 0.000424
164 0.000413
165 0.000403
166 0.000395
167 0.000394
168 0.000390
169 0.000385
170 0.000384
171 0.000381
172 0.000385
173 0.000402
174 0.000425
175 0.000438
176 0.000441
177 0.000432
178 0.000435
179 0.000427
180 0.000426
181 0.000435
182 0.000449
183 0.000454
184 0.000449
185 0.000450
186 0.000453
187 0.000461
188 0.000468
189 0.000469
190 0.000479
191 0.000484
192 0.000486
193 0.000493
194 0.000502
195 0.000518
196 0.000517
197 0.000516
198 0.000513
199 0.000529
200 0.000541
201 0.000544
202 0.000542
203 0.000547
204 0.000545
205 0.000548
206 0.000557
207 0.000584
208 0.000594
209 0.000588
210 0.000580
211 0.000578
212 0.000567
213 0.000558
214 0.000537
215 0.000521
216 0.000513
217 0.000517
218 0.000510
219 0.000505
220 0.000498
221 0.000493
222 0.000487
223 0.000486
224 0.000477
225 0.000455
226 0.000433
227 0.000417
228 0.000406
229 0.000402
230 0.000397
231 0.000399
232 0.000393
233 0.000383
234 0.000371
235 0.000360
236 0.000366
237 0.000367
238 0.000364
239 0.000359
240 0.000358
241 0.000357
242 0.000351
243 0.000353
244 0.000358
245 0.000357
246 0.000354
247 0.000362
248 0.000381
249 0.000392
250 0.000390
251 0.000383
252 0.000377
253 0.000376
254 0.000370
255 0.000358
256 0.000349
257 0.000344
258 0.000330
259 0.000315
260 0.000310
261 0.000311
262 0.000306
263 0.000303
264 0.000309
265 0.000315
266 0.000326
267 0.000325
268 0.000327
269 0.000332
270 0.000327
271 0.000310
272 0.000302
273 0.000300
274 0.000300
275 0.000295
276 0.000297
277 0.000303
278 0.000301
279 0.000297
280 0.000304
281 0.000317
282 0.000326
283 0.000323
284 0.000328
285 0.000330
286 0.000333
287 0.000327
288 0.000322
289 0.000328
290 0.000330
291 0.000319
292 0.000296
293 0.000282
294 0.000272
295 0.000260
296 0.000251
297 0.000251
298 0.000260
299 0.000252
300 0.000236
301 0.000226
302 0.000232
303 0.000226
304 0.000217
305 0.000214
306 0.000224
307 0.000230
308 0.000226
309 0.000214
310 0.000212
311 0.000216
312 0.000218
313 0.000226
314 0.000229
315 0.000239
316 0.000246
317 0.000242
318 0.000240
319 0.000241
320 0.000241
321 0.000242
322 0.000243
323 0.000249
324 0.000252
325 0.000249
326 0.000242
327 0.000234
328 0.000217
329 0.000205
330 0.000201
331 0.000193
332 0.000188
333 0.000187
334 0.000194
335 0.000207
336 0.000211
337 0.000208
338 0.000204
339 0.000208
340 0.000206
341 0.000196
342 0.000182
343 0.000177
344 0.000161
345 0.000137
346 0.000116
347 0.000115
348 0.000116
349 0.000120
350 0.000124
351 0.000130
352 0.000132
353 0.000127
354 0.000135
355 0.000142
356 0.000155
357 0.000167
358 0.000164
359 0.000161
360 0.000166
361 0.000168
362 0.000167
363 0.000167
364 0.000168
365 0.000167
366 0.000161
367 0.000157
368 0.000148
369 0.000149
370 0.000147
371 0.000154
372 0.000154
373 0.000156
374 0.000153
375 0.000164
376 0.000171
377 0.000174
378 0.000172
379 0.000174
380 0.000174
381 0.000177
382 0.000168
383 0.000168
384 0.000170
385 0.000174
386 0.000171
387 0.000163
388 0.000163
389 0.000180
390 0.000196
391 0.000205
392 0.000217
393 0.000225
394 0.000224
395 0.000213
396 0.000208
397 0.000204
398 0.000198
399 0.000193
400 0.000184
401 0.000178
402 0.000167
403 0.000160
404 0.000156
405 0.000157
406 0.000160
407 0.000159
408 0.000155
409 0.000154
410 0.000158
411 0.000160
412 0.000164
413 0.000165
414 0.000170
415 0.000161
416 0.000152
417 0.000151
418 0.000148
419 0.000145
420 0.000139
421 0.000135
422 0.000131
423 0.000134
424 0.000140
425 0.000146
426 0.000158
427 0.000162
428 0.000168
429 0.000175
430 0.000185
431 0.000191
432 0.000186
433 0.000182
434 0.000171
435 0.000153
436 0.000133
437 0.000109
438 0.000102
439 0.000093
440 0.000085
441 0.000077
442 0.000076
443 0.000077
444 0.000089
445 0.000087
446 0.000082
447 0.000077
448 0.000087
449 0.000095
450 0.000097
451 0.000092
452 0.000079
453 0.000058
454 0.000046
455 0.000040
456 0.000044
457 0.000051
458 0.000058
459 0.000066
460 0.000081
461 0.000088
462 0.000106
463 0.000114
464 0.000117
465 0.000120
466 0.000116
467 0.000109
468 0.000098
469 0.000095
470 0.000088
471 0.000086
472 0.000086
473 0.000084
474 0.000076
475 0.000075
476 0.000084
477 0.000094
478 0.000099
479 0.000104
480 0.000114
481 0.000120
482 0.000121
483 0.000119
484 0.000113
485 0.000105
486 0.000097
487 0.000094
488 0.000092
489 0.000092
490 0.000092
491 0.000090
492 0.000094
493 0.000098
494 0.000098
495 0.000098
496 0.000101
497 0.000107
498 0.000107
499 0.000104
500 0.000091
501 0.000089
502 0.000092
503 0.000099
504 0.000092
505 0.000092
506 0.000087
507 0.000085
508 0.000079
509 0.000075
510 0.000065
511 0.000058
512 0.000055
513 0.000056
514 0.000062
515 0.000068
516 0.000067
517 0.000070
518 0.000073
519 0.000071
520 0.000068
521 0.000067
522 0.000065
523 0.000057
524 0.000054
525 0.000056
526 0.000056
527 0.000060
528 0.000059
529 0.000069
530 0.000078
531 0.000093
532 0.000099
533 0.000107
534 0.000116
535 0.000118
536 0.000112
537 0.000107
538 0.000111
539 0.000113
540 0.000104
541 0.000091
542 0.000086
543 0.000088
544 0.000084
545 0.000077
546 0.000080
547 0.000082
548 0.000085
549 0.000082
550 0.000076
551 0.000066
552 0.000058
553 0.000049
554 0.000045
555 0.000046
556 0.000046
557 0.000040
558 0.000031
559 0.000028
560 0.000022
561 0.000015
562 0.000016
563 0.000019
564 0.000030
565 0.000037
566 0.000052
567 0.000068
568 0.000081
569 0.000082
570 0.000085
571 0.000094
572 0.000107
573 0.000116
574 0.000125
575 0.000127
576 0.000125
577 0.000123
578 0.000125
579 0.000131
580 0.000139
581 0.000140
582 0.000137
583 0.000139
584 0.000150
585 0.000160
586 0.000170
587 0.000182
588 0.000194
589 0.000189
590 0.000181
591 0.000173
592 0.000171
593 0.000169
594 0.000158
595 0.000148
596 0.000149
597 0.000152
598 0.000160
599 0.000167
600 0.000180
601 0.000198
602 0.000216
603 0.000225
604 0.000237
605 0.000248
606 0.000253
607 0.000246
608 0.000240
609 0.000244
610 0.000235
611 0.000226
612 0.000222
613 0.000221
614 0.000220
615 0.000216
616 0.000219
617 0.000221
618 0.000231
619 0.000233
620 0.000229
621 0.000227
622 0.000221
623 0.000219
624 0.000219
625 0.000219
626 0.000215
627 0.000206
628 0.000200
629 0.000189
630 0.000189
631 0.000192
632 0.000191
633 0.000192
634 0.000193
635 0.000184
636 0.000171
637 0.000168
638 0.000173
639 0.000172
640 0.000171
641 0.000172
642 0.000170
643 0.000165
644 0.000164
645 0.000164
646 0.000162
647 0.000158
648 0.000153
649 0.000156
650 0.000160
651 0.000160
652 0.000160
653 0.000154
654 0.000143
655 0.000142
656 0.000136
657 0.000128
658 0.000117
659 0.000104
660 0.000095
661 0.000083
662 0.000078
663 0.000073
664 0.000058
665 0.000049
666 0.000046
667 0.000051
668 0.000056
669 0.000061
670 0.000070
671 0.000075
672 0.000079
673 0.000086
674 0.000086
675 0.000082
676 0.000077
677 0.000080
678 0.000084
679 0.000091
680 0.000093
681 0.000094
682 0.000101
683 0.000117
684 0.000129
685 0.000131
686 0.000129
687 0.000132
688 0.000140
689 0.000145
690 0.000149
691 0.000155
692 0.000163
693 0.000162
694 0.000165
695 0.000168
696 0.000173
697 0.000172
698 0.000175
699 0.000181
700 0.000188
701 0.000191
702 0.000193
703 0.000190
704 0.000183
705 0.000180
706 0.000179
707 0.000178
708 0.000178
709 0.000181
710 0.000187
711 0.000189
712 0.000192
713 0.000196
714 0.000199
715 0.000199
716 0.000199
717 0.000196
718 0.000191
719 0.000191
720 0.000190
721 0.000181
722 0.000175
723 0.000169
724 0.000171
725 0.000176
726 0.000184
727 0.000190
728 0.000197
729 0.000199
730 0.000200
731 0.000202
732 0.000194
733 0.000187
734 0.000179
735 0.000175
736 0.000171
737 0.000169
738 0.000175
739 0.000175
740 0.000176
741 0.000180
742 0.000182
743 0.000178
744 0.000173
745 0.000169
746 0.000175
747 0.000180
748 0.000179
749 0.000176
750 0.000169
751 0.000166
752 0.000162
753 0.000161
754 0.000166
755 0.000171
756 0.000181
757 0.000182
758 0.000170
759 0.000159
760 0.000148
761 0.000141
762 0.000137
763 0.000138
764 0.000136
765 0.000134
766 0.000132
767 0.000127
768 0.000119
769 0.000118
770 0.000109
771 0.000104
772 0.000103
773 0.000105
774 0.000105
775 0.000103
776 0.000093
777 0.000085
778 0.000077
779 0.000070
780 0.000072
781 0.000075
782 0.000074
783 0.000071
784 0.000071
785 0.000075
786 0.000075
787 0.000080
788 0.000085
789 0.000088
790 0.000091
791 0.000099
792 0.000106
793 0.000110
794 0.000109
795 0.000105
796 0.000099
797 0.000094
798 0.000091
799 0.000089
800 0.000088
801 0.000087
802 0.000081
803 0.000081
804 0.000083
805 0.000091
806 0.000096
807 0.000096
808 0.000099
809 0.000110
