# i correlation
1 0.002241
2 0.002127
3 0.002034
4 0.001956
5 0.001883
6 0.001829
7 0.001779
8 0.001720
9 0.001667
10 0.001614
11 0.001570
12 0.001525
13 0.001490
14 0.001470
15 0.001456
16 0.001446
17 0.001425
18 0.001414
19 0.001407
20 0.001397
21 0.001370
22 0.001345
23 0.001324
24 0.001302
25 0.001286
26 0.001283
27 0.001276
28 0.001263
29 0.001252
30 0.001245
31 0.001249
32 0.001250
33 0.001253
34 0.001271
35 0.001278
36 0.001288
37 0.001291
38 0.001306
39 0.001329
40 0.001346
41 0.001362
42 0.001374
43 0.001375
44 0.001370
45 0.001366
46 0.001359
47 0.001350
48 0.001335
49 0.001319
50 0.001304
51 0.001286
52 0.001265
53 0.001262
54 0.001258
55 0.001252
56 0.001247
57 0.001246
58 0.001240
59 0.001230
60 0.001232
61 0.001228
62 0.001225
63 0.001213
64 0.001204
65 0.001200
66 0.001205
67 0.001202
68 0.001196
69 0.001182
70 0.001163
71 0.001159
72 0.001152
73 0.001154
74 0.001160
75 0.001147
76 0.001140
77 0.001149
78 0.001152
79 0.001151
80 0.001156
81 0.001155
82 0.001160
83 0.001162
84 0.001155
85 0.001138
86 0.001119
87 0.001110
88 0.001104
89 0.001103
90 0.001111
91 0.001122
92 0.001123
93 0.001127
94 0.001129
95 0.001126
96 0.001134
97 0.001128
98 0.001125
99 0.001121
100 0.001134
101 0.001141
102 0.001156
103 0.001149
104 0.001135
105 0.001127
106 0.001105
107 0.001101
108 0.001106
109 0.001116
110 0.001117
111 0.001114
112 0.001107
113 0.001096
114 0.001081
115 0.001069
116 0.001058
117 0.001039
118 0.001011
119 0.000993
120 0.000969
121 0.000945
122 0.000928
123 0.000913
124 0.000896
125 0.000893
126 0.000873
127 0.000863
128 0.000864
129 0.000866
130 0.000859
131 0.000860
132 0.000862
133 0.000850
134 0.000854
135 0.000858
136 0.000858
137 0.000851
138 0.000846
139 0.000839
140 0.000830
141 0.000827
142 0.000820
143 0.000831
144 0.000836
145 0.000855
146 0.000870
147 0.000881
148 0.000895
149 0.000902
150 0.000916
151 0.000934
152 0.000955
153 0.000977
154 0.001004
155 0.001017
156 0.001025
157 0.001031
158 0.001035
159 0.001022
160 0.001005
161 0.000999
162 0.000991
163 0.000979
164 0.000963
165 0.000957
166 0.000946
167 0.000936
168 0.000925
169 0.000933
170 0.000932
171 0.000922
172 0.000914
173 0.000917
174 0.000923
175 0.000930
176 0.000939
177 0.000938
178 0.000920
179 0.000898
180 0.000872
181 0.000858
182 0.000842
183 0.000822
184 0.000812
185 0.000813
186 0.000801
187 0.000798
188 0.000794
189 0.000785
190 0.000776
191 0.000781
192 0.000794
193 0.000809
194 0.000821
195 0.000836
196 0.000864
197 0.000874
198 0.000877
199 0.000888
200 0.000903
201 0.000918
202 0.000928
203 0.000937
204 0.000944
205 0.000953
206 0.000946
207 0.000933
208 0.000926
209 0.000927
210 0.000924
211 0.000917
212 0.000919
213 0.000917
214 0.000921
215 0.000922
216 0.000927
217 0.000917
218 0.000912
219 0.000920
220 0.000921
221 0.000908
222 0.000896
223 0.000880
224 0.000859
225 0.000849
226 0.000839
227 0.000832
228 0.000823
229 0.000813
230 0.000805
231 0.000796
232 0.000795
233 0.000774
234 0.000766
235 0.000768
236 0.000771
237 0.000759
238 0.000746
239 0.000735
240 0.000724
241 0.000725
242 0.000715
243 0.000709
244 0.000697
245 0.000700
246 0.000711
247 0.000722
248 0.000733
249 0.000736
250 0.000746
251 0.000739
252 0.000730
253 0.000727
254 0.000723
255 0.000721
256 0.000732
257 0.000736
258 0.000722
259 0.000709
260 0.000701
261 0.000697
262 0.000690
263 0.000682
264 0.000669
265 0.000664
266 0.000654
267 0.000644
268 0.000642
269 0.000645
270 0.000638
271 0.000638
272 0.000628
273 0.000611
274 0.000598
275 0.000595
276 0.000594
277 0.000607
278 0.000609
279 0.000609
280 0.000606
281 0.000595
282 0.000579
283 0.000561
284 0.000543
285 0.000531
286 0.000524
287 0.000516
288 0.000513
289 0.000506
290 0.000497
291 0.000492
292 0.000496
293 0.000494
294 0.000489
295 0.000479
296 0.000475
297 0.000474
298 0.000473
299 0.000468
300 0.000461
301 0.000456
302 0.000454
303 0.000450
304 0.000451
305 0.000449
306 0.000452
307 0.000460
308 0.000471
309 0.000488
310 0.000504
311 0.000509
312 0.000512
313 0.000519
314 0.000526
315 0.000539
316 0.000550
317 0.000557
318 0.000561
319 0.000564
320 0.000558
321 0.000554
322 0.000550
323 0.000546
324 0.000539
325 0.000531
326 0.000513
327 0.000496
328 0.000495
329 0.000489
330 0.000488
331 0.000485
332 0.000475
333 0.000455
334 0.000440
335 0.000426
336 0.000416
337 0.000409
338 0.000408
339 0.000410
340 0.000391
341 0.000368
342 0.000337
343 0.000318
344 0.000302
345 0.000298
346 0.000291
347 0.000282
348 0.000289
349 0.000297
350 0.000307
351 0.000315
352 0.000323
353 0.000330
354 0.000343
355 0.000358
356 0.000369
357 0.000394
358 0.000413
359 0.000425
360 0.000425
361 0.000423
362 0.000425
363 0.000426
364 0.000427
365 0.000438
366 0.000451
367 0.000452
368 0.000450
369 0.000443
370 0.000446
371 0.000451
372 0.000457
373 0.000471
374 0.000474
375 0.000483
376 0.000476
377 0.000472
378 0.000463
379 0.000465
380 0.000458
381 0.000455
382 0.000452
383 0.000429
384 0.000413
385 0.000397
386 0.000379
387 0.000354
388 0.000337
389 0.000332
390 0.000328
391 0.000319
392 0.000316
393 0.000320
394 0.000311
395 0.000305
396 0.000305
397 0.000312
398 0.000315
399 0.000319
400 0.000331
401 0.000346
402 0.000359
403 0.000365
404 0.000370
405 0.000390
406 0.000405
407 0.000422
408 0.000433
409 0.000440
410 0.000445
411 0.000454
412 0.000467
413 0.000478
414 0.000484
415 0.000497
416 0.000500
417 0.000500
418 0.000493
419 0.000490
420 0.000483
421 0.000476
422 0.000464
423 0.000466
424 0.000458
425 0.000450
426 0.000441
427 0.000432
428 0.000425
429 0.000410
430 0.000396
431 0.000394
432 0.000402
433 0.000410
434 0.000418
435 0.000415
436 0.000404
437 0.000394
438 0.000394
439 0.000398
440 0.000398
441 0.000402
442 0.000398
443 0.000387
444 0.000383
445 0.000383
446 0.000388
447 0.000399
448 0.000410
449 0.000410
450 0.000409
451 0.000407
452 0.000402
453 0.000407
454 0.000408
455 0.000406
456 0.000413
457 0.000421
458 0.000426
459 0.000429
460 0.000433
461 0.000427
462 0.000432
463 0.000435
464 0.000439
465 0.000443
466 0.000453
467 0.000476
468 0.000494
469 0.000500
470 0.000510
471 0.000513
472 0.000507
473 0.000508
474 0.000512
475 0.000516
476 0.000516
477 0.000517
478 0.000514
479 0.000510
480 0.000506
481 0.000498
482 0.000501
483 0.000498
484 0.000500
485 0.000497
486 0.000502
487 0.000504
488 0.000498
489 0.000485
490 0.000466
491 0.000461
492 0.000448
493 0.000430
494 0.000420
495 0.000412
496 0.000395
497 0.000385
498 0.000380
499 0.000364
500 0.000345
501 0.000333
502 0.000325
503 0.000321
504 0.000312
505 0.000297
506 0.000288
507 0.000290
508 0.000281
509 0.000266
510 0.000261
511 0.000264
512 0.000264
513 0.000270
514 0.000276
515 0.000282
516 0.000284
517 0.000290
518 0.000291
519 0.000281
520 0.000278
521 0.000267
522 0.000264
523 0.000257
524 0.000259
525 0.000265
526 0.000270
527 0.000276
528 0.000277
529 0.000282
530 0.000291
531 0.000302
532 0.000308
533 0.000316
534 0.000325
535 0.000328
536 0.000333
537 0.000334
538 0.000331
539 0.000320
540 0.000307
541 0.000289
542 0.000273
543 0.000258
544 0.000248
545 0.000236
546 0.000223
547 0.000214
548 0.000212
549 0.000210
550 0.000212
551 0.000211
552 0.000209
553 0.000212
554 0.000211
555 0.000203
556 0.000194
557 0.000183
558 0.000184
559 0.000185
560 0.000187
561 0.000188
562 0.000182
563 0.000181
564 0.000180
565 0.000175
566 0.000176
567 0.000173
568 0.000180
569 0.000191
570 0.000205
571 0.000220
572 0.000233
573 0.000247
574 0.000259
575 0.000267
576 0.000274
577 0.000279
578 0.000289
579 0.000296
580 0.000295
581 0.000296
582 0.000299
583 0.000285
584 0.000284
585 0.000292
586 0.000300
587 0.000303
588 0.000305
589 0.000304
590 0.000298
591 0.000298
592 0.000299
593 0.000303
594 0.000310
595 0.000311
596 0.000306
597 0.000304
598 0.000298
599 0.000292
600 0.000285
601 0.000277
602 0.000266
603 0.000256
604 0.000246
605 0.000236
606 0.000222
607 0.000219
608 0.000219
609 0.000215
610 0.000214
611 0.000218
612 0.000215
613 0.000211
614 0.000217
615 0.000224
616 0.000238
617 0.000244
618 0.000251
619 0.000245
620 0.000245
621 0.000238
622 0.000233
623 0.000229
624 0.000220
625 0.000216
626 0.000215
627 0.000224
628 0.000228
629 0.000235
630 0.000237
631 0.000244
632 0.000257
633 0.000266
634 0.000269
635 0.000269
636 0.000271
637 0.000277
638 0.000279
639 0.000280
640 0.000275
641 0.000268
642 0.000269
643 0.000271
644 0.000267
645 0.000260
646 0.000256
647 0.000256
648 0.000256
649 0.000258
650 0.000256
651 0.000251
652 0.000244
653 0.000245
654 0.000242
655 0.000233
656 0.000229
657 0.000223
658 0.000221
659 0.000217
660 0.000207
661 0.000204
662 0.000198
663 0.000192
664 0.000188
665 0.000187
666 0.000182
667 0.000178
668 0.000184
669 0.000189
670 0.000193
671 0.000195
672 0.000198
673 0.000208
674 0.000213
675 0.000219
676 0.000227
677 0.000230
678 0.000234
679 0.000235
680 0.000235
681 0.000228
682 0.000227
683 0.000232
684 0.000244
685 0.000254
686 0.000253
687 0.000260
688 0.000274
689 0.000288
690 0.000297
691 0.000308
692 0.000310
693 0.000308
694 0.000309
695 0.000308
696 0.000304
697 0.000292
698 0.000277
699 0.000267
700 0.000253
701 0.000239
702 0.000229
703 0.000224
704 0.000213
705 0.000199
706 0.000184
707 0.000176
708 0.000159
709 0.000147
710 0.000137
711 0.000131
712 0.000121
713 0.000116
714 0.000112
715 0.000100
716 0.000091
717 0.000082
718 0.000072
719 0.000063
720 0.000058
721 0.000051
722 0.000042
723 0.000041
724 0.000040
725 0.000043
726 0.000045
727 0.000058
728 0.000065
729 0.000066
730 0.000072
731 0.000070
732 0.000068
733 0.000070
734 0.000071
735 0.000067
736 0.000063
737 0.000055
738 0.000051
739 0.000053
740 0.000051
741 0.000045
742 0.000040
743 0.000033
744 0.000031
745 0.000032
746 0.000027
747 0.000025
748 0.000027
749 0.000025
750 0.000024
751 0.000023
752 0.000019
753 0.000014
754 0.000009
755 0.000009
756 0.000007
757 0.000003
758 0.000000
759 -0.000005
760 -0.000012
761 -0.000019
762 -0.000021
763 -0.000019
764 -0.000019
765 -0.000022
766 -0.000020
767 -0.000020
768 -0.000016
769 -0.000012
770 -0.000009
771 -0.000010
772 -0.000007
773 -0.000004
774 -0.000004
775 -0.000005
776 -0.000009
777 -0.000019
778 -0.000029
779 -0.000035
780 -0.000036
781 -0.000037
782 -0.000033
783 -0.000029
784 -0.000023
785 -0.000010
786 -0.000000
787 0.000008
788 0.000014
789 0.000016
790 0.000020
791 0.000024
792 0.000024
793 0.000027
794 0.000034
795 0.000038
796 0.000041
797 0.000041
798 0.000037
799 0.000031
800 0.000023
801 0.000016
802 0.000008
803 -0.000001
804 -0.000005
805 -0.000001
806 -0.000003
807 -0.000004
808 -0.000005
809 -0.000009
