# i correlation
1 0.002106
2 0.001979
3 0.001877
4 0.001786
5 0.001717
6 0.001655
7 0.001603
8 0.001561
9 0.001535
10 0.001508
11 0.001487
12 0.001461
13 0.001435
14 0.001415
15 0.001395
16 0.001378
17 0.001365
18 0.001364
19 0.001357
20 0.001355
21 0.001349
22 0.001349
23 0.001334
24 0.001308
25 0.001296
26 0.001262
27 0.001233
28 0.001217
29 0.001203
30 0.001201
31 0.001203
32 0.001211
33 0.001221
34 0.001224
35 0.001228
36 0.001230
37 0.001237
38 0.001242
39 0.001257
40 0.001270
41 0.001278
42 0.001269
43 0.001250
44 0.001230
45 0.001206
46 0.001173
47 0.001163
48 0.001158
49 0.001158
50 0.001160
51 0.001147
52 0.001137
53 0.001129
54 0.001136
55 0.001148
56 0.001155
57 0.001153
58 0.001157
59 0.001168
60 0.001181
61 0.001183
62 0.001177
63 0.001164
64 0.001145
65 0.001136
66 0.001121
67 0.001099
68 0.001069
69 0.001051
70 0.001033
71 0.001007
72 0.000983
73 0.000961
74 0.000945
75 0.000943
76 0.000940
77 0.000939
78 0.000951
79 0.000953
80 0.000977
81 0.000990
82 0.000998
83 0.000993
84 0.000996
85 0.000991
86 0.000976
87 0.000965
88 0.000963
89 0.000963
90 0.000961
91 0.000967
92 0.000969
93 0.000969
94 0.000972
95 0.000974
96 0.000989
97 0.001003
98 0.001016
99 0.001033
100 0.001041
101 0.001041
102 0.001040
103 0.001028
104 0.001007
105 0.000990
106 0.000973
107 0.000968
108 0.000961
109 0.000957
110 0.000964
111 0.000972
112 0.000968
113 0.000972
114 0.000977
115 0.000982
116 0.000990
117 0.000992
118 0.000996
119 0.001012
120 0.001032
121 0.001053
122 0.001071
123 0.001079
124 0.001072
125 0.001070
126 0.001066
127 0.001064
128 0.001051
129 0.001040
130 0.001028
131 0.001018
132 0.001021
133 0.001035
134 0.001056
135 0.001055
136 0.001045
137 0.001009
138 0.000977
139 0.000952
140 0.000930
141 0.000911
142 0.000890
143 0.000870
144 0.000859
145 0.000855
146 0.000852
147 0.000853
148 0.000833
149 0.000810
150 0.000786
151 0.000769
152 0.000751
153 0.000732
154 0.000729
155 0.000734
156 0.000731
157 0.000735
158 0.000739
159 0.000733
160 0.000729
161 0.000718
162 0.000718
163 0.000716
164 0.000694
165 0.000675
166 0.000659
167 0.000645
168 0.000636
169 0.000631
170 0.000612
171 0.000589
172 0.000578
173 0.000568
174 0.000556
175 0.000542
176 0.000539
177 0.000539
178 0.000535
179 0.000530
180 0.000520
181 0.000507
182 0.000507
183 0.000514
184 0.000513
185 0.000516
186 0.000524
187 0.000523
188 0.000524
189 0.000514
190 0.000508
191 0.000500
192 0.000485
193 0.000472
194 0.000470
195 0.000471
196 0.000472
197 0.000480
198 0.000487
199 0.000501
200 0.000505
201 0.000510
202 0.000514
203 0.000505
204 0.000480
205 0.000453
206 0.000425
207 0.000410
208 0.000410
209 0.000417
210 0.000418
211 0.000415
212 0.000411
213 0.000400
214 0.000397
215 0.000388
216 0.000388
217 0.000393
218 0.000407
219 0.000416
220 0.000419
221 0.000413
222 0.000411
223 0.000418
224 0.000414
225 0.000404
226 0.000391
227 0.000384
228 0.000372
229 0.000358
230 0.000349
231 0.000339
232 0.000339
233 0.000346
234 0.000352
235 0.000363
236 0.000364
237 0.000357
238 0.000357
239 0.000357
240 0.000352
241 0.000353
242 0.000355
243 0.000370
244 0.000379
245 0.000387
246 0.000397
247 0.000403
248 0.000406
249 0.000418
250 0.000433
251 0.000432
252 0.000424
253 0.000420
254 0.000408
255 0.000401
256 0.000388
257 0.000381
258 0.000387
259 0.000387
260 0.000379
261 0.000371
262 0.000369
263 0.000370
264 0.000361
265 0.000340
266 0.000319
267 0.000308
268 0.000307
269 0.000299
270 0.000292
271 0.000286
272 0.000278
273 0.000280
274 0.000293
275 0.000292
276 0.000286
277 0.000276
278 0.000266
279 0.000259
280 0.000261
281 0.000253
282 0.000250
283 0.000261
284 0.000264
285 0.000270
286 0.000264
287 0.000255
288 0.000249
289 0.000250
290 0.000244
291 0.000224
292 0.000206
293 0.000181
294 0.000169
295 0.000171
296 0.000172
297 0.000171
298 0.000169
299 0.000168
300 0.000170
301 0.000175
302 0.000179
303 0.000172
304 0.000161
305 0.000157
306 0.000146
307 0.000134
308 0.000126
309 0.000119
310 0.000110
311 0.000095
312 0.000087
313 0.000093
314 0.000098
315 0.000099
316 0.000093
317 0.000092
318 0.000087
319 0.000087
320 0.000088
321 0.000089
322 0.000090
323 0.000092
324 0.000092
325 0.000101
326 0.000085
327 0.000071
328 0.000064
329 0.000062
330 0.000072
331 0.000077
332 0.000072
333 0.000070
334 0.000075
335 0.000090
336 0.000097
337 0.000098
338 0.000099
339 0.000101
340 0.000096
341 0.000090
342 0.000080
343 0.000086
344 0.000095
345 0.000107
346 0.000117
347 0.000114
348 0.000111
349 0.000112
350 0.000112
351 0.000098
352 0.000092
353 0.000072
354 0.000067
355 0.000069
356 0.000072
357 0.000083
358 0.000084
359 0.000077
360 0.000059
361 0.000047
362 0.000033
363 0.000022
364 0.000024
365 0.000036
366 0.000044
367 0.000048
368 0.000055
369 0.000054
370 0.000055
371 0.000049
372 0.000048
373 0.000037
374 0.000034
375 0.000032
376 0.000017
377 0.000013
378 0.000015
379 0.000019
380 0.000020
381 0.000025
382 0.000032
383 0.000041
384 0.000055
385 0.000064
386 0.000075
387 0.000081
388 0.000076
389 0.000071
390 0.000073
391 0.000072
392 0.000064
393 0.000060
394 0.000057
395 0.000063
396 0.000071
397 0.000086
398 0.000104
399 0.000124
400 0.000146
401 0.000155
402 0.000150
403 0.000143
404 0.000139
405 0.000141
406 0.000149
407 0.000160
408 0.000166
409 0.000176
410 0.000184
411 0.000189
412 0.000185
413 0.000185
414 0.000171
415 0.000151
416 0.000132
417 0.000121
418 0.000111
419 0.000102
420 0.000097
421 0.000099
422 0.000105
423 0.000110
424 0.000113
425 0.000106
426 0.000096
427 0.000082
428 0.000069
429 0.000053
430 0.000040
431 0.000033
432 0.000035
433 0.000038
434 0.000049
435 0.000060
436 0.000086
437 0.000111
438 0.000117
439 0.000121
440 0.000131
441 0.000141
442 0.000149
443 0.000165
444 0.000168
445 0.000166
446 0.000171
447 0.000165
448 0.000171
449 0.000171
450 0.000167
451 0.000160
452 0.000158
453 0.000155
454 0.000155
455 0.000157
456 0.000161
457 0.000169
458 0.000176
459 0.000191
460 0.000199
461 0.000204
462 0.000207
463 0.000203
464 0.000206
465 0.000212
466 0.000219
467 0.000210
468 0.000201
469 0.000191
470 0.000182
471 0.000189
472 0.000185
473 0.000176
474 0.000164
475 0.000150
476 0.000136
477 0.000133
478 0.000126
479 0.000119
480 0.000113
481 0.000103
482 0.000103
483 0.000099
484 0.000098
485 0.000102
486 0.000102
487 0.000094
488 0.000094
489 0.000093
490 0.000095
491 0.000105
492 0.000109
493 0.000116
494 0.000121
495 0.000120
496 0.000117
497 0.000121
498 0.000128
499 0.000142
500 0.000150
501 0.000163
502 0.000172
503 0.000179
504 0.000189
505 0.000185
506 0.000187
507 0.000191
508 0.000194
509 0.000197
510 0.000192
511 0.000182
512 0.000177
513 0.000174
514 0.000172
515 0.000162
516 0.000151
517 0.000141
518 0.000134
519 0.000130
520 0.000128
521 0.000133
522 0.000141
523 0.000148
524 0.000160
525 0.000168
526 0.000177
527 0.000176
528 0.000165
529 0.000155
530 0.000154
531 0.000155
532 0.000159
533 0.000178
534 0.000199
535 0.000215
536 0.000221
537 0.000227
538 0.000232
539 0.000234
540 0.000246
541 0.000254
542 0.000263
543 0.000267
544 0.000276
545 0.000284
546 0.000279
547 0.000282
548 0.000285
549 0.000280
550 0.000267
551 0.000259
552 0.000248
553 0.000244
554 0.000239
555 0.000241
556 0.000238
557 0.000241
558 0.000256
559 0.000272
560 0.000284
561 0.000280
562 0.000278
563 0.000288
564 0.000293
565 0.000296
566 0.000299
567 0.000307
568 0.000322
569 0.000334
570 0.000347
571 0.000349
572 0.000348
573 0.000344
574 0.000341
575 0.000334
576 0.000325
577 0.000321
578 0.000317
579 0.000317
580 0.000317
581 0.000318
582 0.000319
583 0.000318
584 0.000329
585 0.000339
586 0.000338
587 0.000336
588 0.000330
589 0.000324
590 0.000321
591 0.000319
592 0.000321
593 0.000331
594 0.000332
595 0.000325
596 0.000322
597 0.000320
598 0.000326
599 0.000336
600 0.000350
601 0.000352
602 0.000352
603 0.000350
604 0.000349
605 0.000346
606 0.000337
607 0.000329
608 0.000319
609 0.000311
610 0.000312
611 0.000309
612 0.000298
613 0.000282
614 0.000273
615 0.000266
616 0.000251
617 0.000240
618 0.000239
619 0.000242
620 0.000252
621 0.000259
622 0.000269
623 0.000271
624 0.000275
625 0.000285
626 0.000294
627 0.000299
628 0.000310
629 0.000321
630 0.000324
631 0.000321
632 0.000320
633 0.000325
634 0.000331
635 0.000335
636 0.000334
637 0.000334
638 0.000330
639 0.000328
640 0.000333
641 0.000331
642 0.000332
643 0.000334
644 0.000333
645 0.000326
646 0.000315
647 0.000309
648 0.000308
649 0.000299
650 0.000294
651 0.000283
652 0.000275
653 0.000268
654 0.000267
655 0.000268
656 0.000266
657 0.000263
658 0.000265
659 0.000282
660 0.000300
661 0.000311
662 0.000323
663 0.000327
664 0.000328
665 0.000323
666 0.000317
667 0.000317
668 0.000316
669 0.000324
670 0.000334
671 0.000345
672 0.000346
673 0.000352
674 0.000356
675 0.000361
676 0.000365
677 0.000366
678 0.000359
679 0.000357
680 0.000361
681 0.000369
682 0.000374
683 0.000377
684 0.000382
685 0.000385
686 0.000381
687 0.000383
688 0.000381
689 0.000380
690 0.000376
691 0.000370
692 0.000375
693 0.000380
694 0.000384
695 0.000391
696 0.000394
697 0.000396
698 0.000400
699 0.000402
700 0.000406
701 0.000405
702 0.000411
703 0.000416
704 0.000417
705 0.000407
706 0.000393
707 0.000383
708 0.000372
709 0.000368
710 0.000368
711 0.000365
712 0.000363
713 0.000363
714 0.000358
715 0.000349
716 0.000337
717 0.000333
718 0.000328
719 0.000323
720 0.000325
721 0.000326
722 0.000325
723 0.000322
724 0.000320
725 0.000318
726 0.000310
727 0.000297
728 0.000286
729 0.000272
730 0.000262
731 0.000254
732 0.000251
733 0.000247
734 0.000244
735 0.000242
736 0.000243
737 0.000243
738 0.000239
739 0.000241
740 0.000247
741 0.000251
742 0.000260
743 0.000268
744 0.000280
745 0.000289
746 0.000288
747 0.000282
748 0.000267
749 0.000257
750 0.000246
751 0.000235
752 0.000221
753 0.000209
754 0.000204
755 0.000202
756 0.000209
757 0.000218
758 0.000227
759 0.000233
760 0.000233
761 0.000234
762 0.000245
763 0.000253
764 0.000256
765 0.000254
766 0.000244
767 0.000236
768 0.000231
769 0.000228
770 0.000221
771 0.000208
772 0.000196
773 0.000188
774 0.000172
775 0.000157
776 0.000139
777 0.000130
778 0.000120
779 0.000111
780 0.000101
781 0.000097
782 0.000095
783 0.000096
784 0.000100
785 0.000097
786 0.000098
787 0.000099
788 0.000099
789 0.000094
790 0.000090
791 0.000091
792 0.000091
793 0.000096
794 0.000101
795 0.000106
796 0.000103
797 0.000098
798 0.000094
799 0.000087
800 0.000086
801 0.000090
802 0.000100
803 0.000106
804 0.000115
805 0.000122
806 0.000132
807 0.000139
808 0.000142
809 0.000147
