# i correlation
1 0.001943
2 0.001841
3 0.001744
4 0.001670
5 0.001607
6 0.001549
7 0.001487
8 0.001436
9 0.001401
10 0.001369
11 0.001344
12 0.001320
13 0.001303
14 0.001291
15 0.001299
16 0.001312
17 0.001319
18 0.001315
19 0.001308
20 0.001287
21 0.001252
22 0.001219
23 0.001180
24 0.001163
25 0.001152
26 0.001138
27 0.001127
28 0.001109
29 0.001085
30 0.001061
31 0.001050
32 0.001041
33 0.001038
34 0.001026
35 0.001014
36 0.001008
37 0.001003
38 0.001000
39 0.001002
40 0.001003
41 0.001006
42 0.001009
43 0.001014
44 0.001034
45 0.001040
46 0.001034
47 0.001013
48 0.000986
49 0.000986
50 0.000964
51 0.000942
52 0.000924
53 0.000899
54 0.000884
55 0.000877
56 0.000866
57 0.000853
58 0.000852
59 0.000849
60 0.000853
61 0.000844
62 0.000823
63 0.000814
64 0.000807
65 0.000811
66 0.000802
67 0.000783
68 0.000770
69 0.000751
70 0.000734
71 0.000729
72 0.000724
73 0.000730
74 0.000736
75 0.000741
76 0.000756
77 0.000767
78 0.000764
79 0.000767
80 0.000762
81 0.000759
82 0.000763
83 0.000760
84 0.000745
85 0.000742
86 0.000735
87 0.000731
88 0.000722
89 0.000723
90 0.000728
91 0.000742
92 0.000763
93 0.000782
94 0.000808
95 0.000825
96 0.000827
97 0.000827
98 0.000841
99 0.000852
100 0.000859
101 0.000860
102 0.000858
103 0.000870
104 0.000873
105 0.000878
106 0.000872
107 0.000847
108 0.000825
109 0.000822
110 0.000825
111 0.000822
112 0.000823
113 0.000813
114 0.000815
115 0.000819
116 0.000814
117 0.000824
118 0.000831
119 0.000840
120 0.000846
121 0.000842
122 0.000838
123 0.000834
124 0.000819
125 0.000809
126 0.000793
127 0.000779
128 0.000776
129 0.000774
130 0.000772
131 0.000779
132 0.000785
133 0.000782
134 0.000783
135 0.000787
136 0.000799
137 0.000814
138 0.000823
139 0.000841
140 0.000852
141 0.000847
142 0.000848
143 0.000841
144 0.000829
145 0.000814
146 0.000791
147 0.000782
148 0.000776
149 0.000772
150 0.000772
151 0.000748
152 0.000729
153 0.000708
154 0.000693
155 0.000696
156 0.000690
157 0.000676
158 0.000669
159 0.000668
160 0.000670
161 0.000671
162 0.000673
163 0.000674
164 0.000683
165 0.000679
166 0.000671
167 0.000661
168 0.000652
169 0.000643
170 0.000629
171 0.000630
172 0.000624
173 0.000617
174 0.000609
175 0.000610
176 0.000598
177 0.000596
178 0.000589
179 0.000579
180 0.000582
181 0.000585
182 0.000599
183 0.000612
184 0.000632
185 0.000637
186 0.000649
187 0.000653
188 0.000651
189 0.000647
190 0.000628
191 0.000620
192 0.000609
193 0.000595
194 0.000598
195 0.000591
196 0.000592
197 0.000579
198 0.000562
199 0.000557
200 0.000557
201 0.000550
202 0.000546
203 0.000538
204 0.000540
205 0.000539
206 0.000535
207 0.000526
208 0.000514
209 0.000500
210 0.000489
211 0.000490
212 0.000485
213 0.000485
214 0.000483
215 0.000485
216 0.000494
217 0.000504
218 0.000496
219 0.000498
220 0.000507
221 0.000515
222 0.000523
223 0.000526
224 0.000535
225 0.000529
226 0.000521
227 0.000509
228 0.000503
229 0.000502
230 0.000501
231 0.000508
232 0.000518
233 0.000530
234 0.000540
235 0.000546
236 0.000549
237 0.000550
238 0.000549
239 0.000536
240 0.000535
241 0.000533
242 0.000533
243 0.000537
244 0.000533
245 0.000532
246 0.000522
247 0.000505
248 0.000494
249 0.000488
250 0.000482
251 0.000482
252 0.000477
253 0.000472
254 0.000469
255 0.000471
256 0.000465
257 0.000456
258 0.000450
259 0.000447
260 0.000459
261 0.000474
262 0.000489
263 0.000484
264 0.000475
265 0.000470
266 0.000474
267 0.000466
268 0.000456
269 0.000448
270 0.000447
271 0.000447
272 0.000444
273 0.000433
274 0.000422
275 0.000420
276 0.000431
277 0.000455
278 0.000477
279 0.000492
280 0.000504
281 0.000519
282 0.000529
283 0.000538
284 0.000529
285 0.000523
286 0.000520
287 0.000523
288 0.000520
289 0.000522
290 0.000527
291 0.000516
292 0.000516
293 0.000515
294 0.000516
295 0.000518
296 0.000520
297 0.000530
298 0.000537
299 0.000535
300 0.000531
301 0.000523
302 0.000515
303 0.000519
304 0.000521
305 0.000536
306 0.000546
307 0.000543
308 0.000538
309 0.000531
310 0.000528
311 0.000526
312 0.000516
313 0.000499
314 0.000487
315 0.000469
316 0.000457
317 0.000429
318 0.000406
319 0.000385
320 0.000375
321 0.000377
322 0.000385
323 0.000398
324 0.000404
325 0.000415
326 0.000434
327 0.000455
328 0.000468
329 0.000472
330 0.000469
331 0.000473
332 0.000470
333 0.000455
334 0.000441
335 0.000419
336 0.000403
337 0.000380
338 0.000374
339 0.000377
340 0.000375
341 0.000361
342 0.000349
343 0.000343
344 0.000336
345 0.000320
346 0.000316
347 0.000312
348 0.000317
349 0.000331
350 0.000336
351 0.000342
352 0.000356
353 0.000360
354 0.000375
355 0.000401
356 0.000426
357 0.000444
358 0.000459
359 0.000466
360 0.000464
361 0.000460
362 0.000447
363 0.000434
364 0.000424
365 0.000418
366 0.000419
367 0.000412
368 0.000407
369 0.000408
370 0.000402
371 0.000409
372 0.000426
373 0.000439
374 0.000451
375 0.000459
376 0.000465
377 0.000463
378 0.000453
379 0.000441
380 0.000431
381 0.000422
382 0.000412
383 0.000412
384 0.000411
385 0.000410
386 0.000404
387 0.000405
388 0.000409
389 0.000411
390 0.000398
391 0.000388
392 0.000381
393 0.000384
394 0.000374
395 0.000372
396 0.000366
397 0.000360
398 0.000368
399 0.000378
400 0.000386
401 0.000398
402 0.000408
403 0.000417
404 0.000432
405 0.000449
406 0.000454
407 0.000464
408 0.000468
409 0.000472
410 0.000471
411 0.000471
412 0.000453
413 0.000448
414 0.000442
415 0.000455
416 0.000465
417 0.000470
418 0.000473
419 0.000470
420 0.000477
421 0.000484
422 0.000482
423 0.000468
424 0.000462
425 0.000456
426 0.000462
427 0.000453
428 0.000442
429 0.000430
430 0.000424
431 0.000416
432 0.000415
433 0.000410
434 0.000409
435 0.000402
436 0.000383
437 0.000384
438 0.000388
439 0.000378
440 0.000368
441 0.000352
442 0.000336
443 0.000321
444 0.000314
445 0.000309
446 0.000302
447 0.000297
448 0.000297
449 0.000295
450 0.000298
451 0.000296
452 0.000300
453 0.000307
454 0.000318
455 0.000324
456 0.000325
457 0.000329
458 0.000335
459 0.000340
460 0.000338
461 0.000332
462 0.000324
463 0.000317
464 0.000312
465 0.000315
466 0.000320
467 0.000322
468 0.000323
469 0.000323
470 0.000322
471 0.000321
472 0.000320
473 0.000309
474 0.000301
475 0.000292
476 0.000286
477 0.000278
478 0.000275
479 0.000275
480 0.000275
481 0.000276
482 0.000274
483 0.000280
484 0.000277
485 0.000264
486 0.000262
487 0.000266
488 0.000260
489 0.000258
490 0.000254
491 0.000251
492 0.000249
493 0.000246
494 0.000245
495 0.000237
496 0.000231
497 0.000228
498 0.000236
499 0.000241
500 0.000250
501 0.000249
502 0.000253
503 0.000264
504 0.000265
505 0.000274
506 0.000278
507 0.000284
508 0.000288
509 0.000287
510 0.000281
511 0.000278
512 0.000277
513 0.000282
514 0.000287
515 0.000292
516 0.000299
517 0.000302
518 0.000308
519 0.000306
520 0.000313
521 0.000322
522 0.000330
523 0.000335
524 0.000350
525 0.000366
526 0.000369
527 0.000385
528 0.000393
529 0.000393
530 0.000392
531 0.000387
532 0.000387
533 0.000390
534 0.000388
535 0.000387
536 0.000386
537 0.000377
538 0.000375
539 0.000373
540 0.000366
541 0.000353
542 0.000337
543 0.000333
544 0.000337
545 0.000340
546 0.000344
547 0.000347
548 0.000352
549 0.000360
550 0.000361
551 0.000359
552 0.000360
553 0.000360
554 0.000355
555 0.000349
556 0.000341
557 0.000343
558 0.000348
559 0.000345
560 0.000346
561 0.000342
562 0.000336
563 0.000344
564 0.000346
565 0.000350
566 0.000353
567 0.000360
568 0.000361
569 0.000371
570 0.000376
571 0.000385
572 0.000392
573 0.000400
574 0.000403
575 0.000400
576 0.000396
577 0.000389
578 0.000377
579 0.000361
580 0.000344
581 0.000329
582 0.000317
583 0.000310
584 0.000299
585 0.000305
586 0.000303
587 0.000306
588 0.000313
589 0.000337
590 0.000347
591 0.000351
592 0.000352
593 0.000358
594 0.000358
595 0.000361
596 0.000353
597 0.000346
598 0.000345
599 0.000333
600 0.000328
601 0.000327
602 0.000333
603 0.000341
604 0.000356
605 0.000362
606 0.000366
607 0.000370
608 0.000376
609 0.000393
610 0.000409
611 0.000412
612 0.000417
613 0.000415
614 0.000408
615 0.000394
616 0.000375
617 0.000362
618 0.000356
619 0.000347
620 0.000343
621 0.000343
622 0.000341
623 0.000341
624 0.000330
625 0.000315
626 0.000307
627 0.000305
628 0.000308
629 0.000311
630 0.000316
631 0.000316
632 0.000313
633 0.000307
634 0.000302
635 0.000297
636 0.000292
637 0.000290
638 0.000289
639 0.000293
640 0.000290
641 0.000289
642 0.000286
643 0.000280
644 0.000275
645 0.000272
646 0.000265
647 0.000260
648 0.000255
649 0.000257
650 0.000262
651 0.000262
652 0.000265
653 0.000266
654 0.000275
655 0.000281
656 0.000284
657 0.000284
658 0.000286
659 0.000281
660 0.000269
661 0.000263
662 0.000262
663 0.000258
664 0.000263
665 0.000260
666 0.000260
667 0.000256
668 0.000261
669 0.000263
670 0.000270
671 0.000271
672 0.000272
673 0.000267
674 0.000260
675 0.000256
676 0.000242
677 0.000237
678 0.000231
679 0.000218
680 0.000207
681 0.000203
682 0.000197
683 0.000195
684 0.000187
685 0.000183
686 0.000183
687 0.000187
688 0.000195
689 0.000200
690 0.000198
691 0.000194
692 0.000188
693 0.000181
694 0.000177
695 0.000170
696 0.000163
697 0.000156
698 0.000152
699 0.000146
700 0.000137
701 0.000128
702 0.000120
703 0.000120
704 0.000119
705 0.000115
706 0.000114
707 0.000117
708 0.000123
709 0.000130
710 0.000138
711 0.000136
712 0.000137
713 0.000144
714 0.000156
715 0.000169
716 0.000171
717 0.000169
718 0.000163
719 0.000159
720 0.000155
721 0.000157
722 0.000155
723 0.000152
724 0.000153
725 0.000151
726 0.000142
727 0.000137
728 0.000133
729 0.000133
730 0.000131
731 0.000134
732 0.000138
733 0.000144
734 0.000148
735 0.000153
736 0.000149
737 0.000143
738 0.000144
739 0.000140
740 0.000131
741 0.000124
742 0.000120
743 0.000116
744 0.000118
745 0.000119
746 0.000118
747 0.000116
748 0.000116
749 0.000123
750 0.000125
751 0.000128
752 0.000124
753 0.000131
754 0.000135
755 0.000138
756 0.000137
757 0.000132
758 0.000132
759 0.000132
760 0.000142
761 0.000144
762 0.000148
763 0.000145
764 0.000147
765 0.000144
766 0.000135
767 0.000123
768 0.000114
769 0.000109
770 0.000108
771 0.000103
772 0.000097
773 0.000100
774 0.000100
775 0.000100
776 0.000095
777 0.000096
778 0.000093
779 0.000089
780 0.000087
781 0.000086
782 0.000078
783 0.000073
784 0.000069
785 0.000066
786 0.000062
787 0.000058
788 0.000050
789 0.000048
790 0.000048
791 0.000046
792 0.000049
793 0.000054
794 0.000059
795 0.000061
796 0.000061
797 0.000061
798 0.000061
799 0.000056
800 0.000049
801 0.000040
802 0.000032
803 0.000018
804 0.000008
805 -0.000000
806 -0.000005
807 -0.000009
808 -0.000010
809 -0.000009
