# i correlation
1 0.002212
2 0.002070
3 0.001939
4 0.001823
5 0.001729
6 0.001641
7 0.001568
8 0.001528
9 0.001481
10 0.001441
11 0.001401
12 0.001364
13 0.001324
14 0.001308
15 0.001309
16 0.001301
17 0.001299
18 0.001299
19 0.001306
20 0.001321
21 0.001325
22 0.001329
23 0.001323
24 0.001320
25 0.001314
26 0.001301
27 0.001277
28 0.001254
29 0.001239
30 0.001221
31 0.001196
32 0.001179
33 0.001177
34 0.001187
35 0.001199
36 0.001201
37 0.001191
38 0.001187
39 0.001181
40 0.001166
41 0.001159
42 0.001151
43 0.001143
44 0.001133
45 0.001131
46 0.001118
47 0.001108
48 0.001090
49 0.001078
50 0.001076
51 0.001068
52 0.001053
53 0.001024
54 0.000993
55 0.000983
56 0.000968
57 0.000962
58 0.000967
59 0.000974
60 0.000991
61 0.000995
62 0.001004
63 0.001016
64 0.001013
65 0.000998
66 0.000983
67 0.000973
68 0.000962
69 0.000965
70 0.000963
71 0.000950
72 0.000939
73 0.000915
74 0.000886
75 0.000863
76 0.000834
77 0.000820
78 0.000811
79 0.000799
80 0.000795
81 0.000794
82 0.000792
83 0.000791
84 0.000785
85 0.000795
86 0.000802
87 0.000815
88 0.000819
89 0.000812
90 0.000787
91 0.000762
92 0.000752
93 0.000744
94 0.000740
95 0.000742
96 0.000735
97 0.000731
98 0.000722
99 0.000719
100 0.000708
101 0.000709
102 0.000729
103 0.000746
104 0.000766
105 0.000794
106 0.000807
107 0.000810
108 0.000813
109 0.000808
110 0.000803
111 0.000800
112 0.000803
113 0.000813
114 0.000823
115 0.000814
116 0.000790
117 0.000769
118 0.000741
119 0.000728
120 0.000728
121 0.000738
122 0.000752
123 0.000762
124 0.000759
125 0.000747
126 0.000738
127 0.000734
128 0.000736
129 0.000732
130 0.000730
131 0.000727
132 0.000730
133 0.000723
134 0.000726
135 0.000736
136 0.000738
137 0.000749
138 0.000753
139 0.000753
140 0.000756
141 0.000762
142 0.000759
143 0.000769
144 0.000775
145 0.000775
146 0.000766
147 0.000761
148 0.000735
149 0.000720
150 0.000705
151 0.000678
152 0.000642
153 0.000603
154 0.000559
155 0.000539
156 0.000526
157 0.000524
158 0.000534
159 0.000534
160 0.000537
161 0.000534
162 0.000530
163 0.000527
164 0.000533
165 0.000555
166 0.000570
167 0.000576
168 0.000583
169 0.000586
170 0.000586
171 0.000571
172 0.000560
173 0.000561
174 0.000570
175 0.000583
176 0.000596
177 0.000611
178 0.000621
179 0.000635
180 0.000654
181 0.000658
182 0.000660
183 0.000656
184 0.000655
185 0.000656
186 0.000655
187 0.000660
188 0.000656
189 0.000651
190 0.000646
191 0.000642
192 0.000639
193 0.000635
194 0.000637
195 0.000632
196 0.000615
197 0.000601
198 0.000580
199 0.000558
200 0.000551
201 0.000553
202 0.000559
203 0.000562
204 0.000575
205 0.000591
206 0.000604
207 0.000621
208 0.000634
209 0.000656
210 0.000674
211 0.000681
212 0.000681
213 0.000676
214 0.000662
215 0.000641
216 0.000625
217 0.000605
218 0.000584
219 0.000571
220 0.000556
221 0.000534
222 0.000507
223 0.000479
224 0.000461
225 0.000453
226 0.000449
227 0.000448
228 0.000460
229 0.000474
230 0.000491
231 0.000517
232 0.000538
233 0.000550
234 0.000567
235 0.000581
236 0.000599
237 0.000606
238 0.000609
239 0.000609
240 0.000612
241 0.000604
242 0.000592
243 0.000587
244 0.000580
245 0.000589
246 0.000601
247 0.000602
248 0.000607
249 0.000615
250 0.000616
251 0.000616
252 0.000618
253 0.000615
254 0.000601
255 0.000586
256 0.000562
257 0.000548
258 0.000527
259 0.000502
260 0.000470
261 0.000437
262 0.000397
263 0.000369
264 0.000354
265 0.000341
266 0.000334
267 0.000336
268 0.000338
269 0.000352
270 0.000362
271 0.000375
272 0.000397
273 0.000410
274 0.000434
275 0.000448
276 0.000459
277 0.000460
278 0.000460
279 0.000468
280 0.000459
281 0.000455
282 0.000462
283 0.000459
284 0.000451
285 0.000437
286 0.000433
287 0.000424
288 0.000418
289 0.000411
290 0.000401
291 0.000385
292 0.000373
293 0.000362
294 0.000362
295 0.000362
296 0.000377
297 0.000385
298 0.000392
299 0.000386
300 0.000391
301 0.000402
302 0.000413
303 0.000413
304 0.000404
305 0.000384
306 0.000372
307 0.000374
308 0.000379
309 0.000387
310 0.000396
311 0.000403
312 0.000413
313 0.000416
314 0.000412
315 0.000421
316 0.000420
317 0.000422
318 0.000425
319 0.000433
320 0.000445
321 0.000459
322 0.000456
323 0.000454
324 0.000461
325 0.000458
326 0.000458
327 0.000455
328 0.000448
329 0.000445
330 0.000444
331 0.000438
332 0.000428
333 0.000422
334 0.000427
335 0.000440
336 0.000445
337 0.000443
338 0.000437
339 0.000425
340 0.000413
341 0.000409
342 0.000400
343 0.000385
344 0.000375
345 0.000373
346 0.000377
347 0.000387
348 0.000387
349 0.000382
350 0.000373
351 0.000368
352 0.000368
353 0.000362
354 0.000358
355 0.000363
356 0.000374
357 0.000393
358 0.000397
359 0.000407
360 0.000421
361 0.000426
362 0.000429
363 0.000420
364 0.000403
365 0.000383
366 0.000365
367 0.000339
368 0.000312
369 0.000290
370 0.000279
371 0.000283
372 0.000281
373 0.000279
374 0.000278
375 0.000286
376 0.000287
377 0.000288
378 0.000301
379 0.000313
380 0.000323
381 0.000347
382 0.000366
383 0.000383
384 0.000397
385 0.000401
386 0.000410
387 0.000404
388 0.000385
389 0.000365
390 0.000353
391 0.000346
392 0.000336
393 0.000332
394 0.000316
395 0.000311
396 0.000315
397 0.000313
398 0.000311
399 0.000301
400 0.000285
401 0.000269
402 0.000247
403 0.000215
404 0.000193
405 0.000168
406 0.000153
407 0.000145
408 0.000143
409 0.000135
410 0.000130
411 0.000123
412 0.000121
413 0.000121
414 0.000123
415 0.000132
416 0.000165
417 0.000203
418 0.000231
419 0.000255
420 0.000276
421 0.000291
422 0.000295
423 0.000298
424 0.000296
425 0.000297
426 0.000296
427 0.000285
428 0.000269
429 0.000261
430 0.000263
431 0.000269
432 0.000275
433 0.000272
434 0.000275
435 0.000276
436 0.000272
437 0.000265
438 0.000270
439 0.000280
440 0.000290
441 0.000300
442 0.000306
443 0.000321
444 0.000339
445 0.000353
446 0.000365
447 0.000380
448 0.000394
449 0.000397
450 0.000400
451 0.000395
452 0.000394
453 0.000395
454 0.000397
455 0.000403
456 0.000420
457 0.000425
458 0.000435
459 0.000452
460 0.000462
461 0.000474
462 0.000492
463 0.000507
464 0.000522
465 0.000542
466 0.000560
467 0.000577
468 0.000588
469 0.000593
470 0.000597
471 0.000597
472 0.000586
473 0.000568
474 0.000546
475 0.000522
476 0.000504
477 0.000492
478 0.000485
479 0.000489
480 0.000501
481 0.000514
482 0.000529
483 0.000549
484 0.000564
485 0.000576
486 0.000582
487 0.000587
488 0.000588
489 0.000588
490 0.000589
491 0.000592
492 0.000591
493 0.000582
494 0.000575
495 0.000580
496 0.000575
497 0.000565
498 0.000564
499 0.000566
500 0.000569
501 0.000574
502 0.000574
503 0.000580
504 0.000581
505 0.000590
506 0.000604
507 0.000623
508 0.000636
509 0.000637
510 0.000639
511 0.000626
512 0.000612
513 0.000599
514 0.000582
515 0.000566
516 0.000552
517 0.000544
518 0.000540
519 0.000531
520 0.000525
521 0.000528
522 0.000543
523 0.000550
524 0.000550
525 0.000565
526 0.000574
527 0.000583
528 0.000595
529 0.000596
530 0.000596
531 0.000590
532 0.000581
533 0.000576
534 0.000577
535 0.000574
536 0.000570
537 0.000561
538 0.000549
539 0.000530
540 0.000505
541 0.000484
542 0.000471
543 0.000462
544 0.000455
545 0.000447
546 0.000437
547 0.000432
548 0.000418
549 0.000404
550 0.000387
551 0.000373
552 0.000360
553 0.000366
554 0.000373
555 0.000391
556 0.000401
557 0.000410
558 0.000414
559 0.000408
560 0.000405
561 0.000407
562 0.000400
563 0.000395
564 0.000384
565 0.000384
566 0.000393
567 0.000392
568 0.000389
569 0.000388
570 0.000391
571 0.000392
572 0.000398
573 0.000411
574 0.000408
575 0.000402
576 0.000394
577 0.000388
578 0.000383
579 0.000368
580 0.000357
581 0.000351
582 0.000343
583 0.000332
584 0.000324
585 0.000326
586 0.000327
587 0.000332
588 0.000338
589 0.000335
590 0.000330
591 0.000322
592 0.000314
593 0.000314
594 0.000316
595 0.000331
596 0.000343
597 0.000356
598 0.000364
599 0.000364
600 0.000366
601 0.000360
602 0.000354
603 0.000342
604 0.000330
605 0.000323
606 0.000321
607 0.000324
608 0.000323
609 0.000317
610 0.000319
611 0.000324
612 0.000330
613 0.000333
614 0.000334
615 0.000334
616 0.000327
617 0.000322
618 0.000312
619 0.000300
620 0.000289
621 0.000283
622 0.000280
623 0.000279
624 0.000277
625 0.000270
626 0.000250
627 0.000236
628 0.000219
629 0.000210
630 0.000209
631 0.000214
632 0.000221
633 0.000232
634 0.000232
635 0.000229
636 0.000236
637 0.000234
638 0.000225
639 0.000212
640 0.000204
641 0.000199
642 0.000196
643 0.000189
644 0.000180
645 0.000183
646 0.000177
647 0.000179
648 0.000186
649 0.000195
650 0.000210
651 0.000221
652 0.000229
653 0.000239
654 0.000235
655 0.000225
656 0.000211
657 0.000205
658 0.000204
659 0.000206
660 0.000214
661 0.000221
662 0.000224
663 0.000218
664 0.000206
665 0.000200
666 0.000196
667 0.000195
668 0.000202
669 0.000204
670 0.000213
671 0.000219
672 0.000223
673 0.000224
674 0.000225
675 0.000230
676 0.000235
677 0.000241
678 0.000237
679 0.000228
680 0.000219
681 0.000206
682 0.000195
683 0.000189
684 0.000183
685 0.000179
686 0.000175
687 0.000171
688 0.000167
689 0.000159
690 0.000149
691 0.000135
692 0.000130
693 0.000134
694 0.000142
695 0.000150
696 0.000155
697 0.000157
698 0.000158
699 0.000162
700 0.000176
701 0.000190
702 0.000205
703 0.000217
704 0.000226
705 0.000234
706 0.000233
707 0.000220
708 0.000206
709 0.000195
710 0.000193
711 0.000186
712 0.000185
713 0.000185
714 0.000187
715 0.000190
716 0.000198
717 0.000213
718 0.000227
719 0.000237
720 0.000247
721 0.000248
722 0.000252
723 0.000254
724 0.000246
725 0.000231
726 0.000222
727 0.000208
728 0.000203
729 0.000189
730 0.000176
731 0.000161
732 0.000150
733 0.000139
734 0.000128
735 0.000124
736 0.000122
737 0.000118
738 0.000128
739 0.000133
740 0.000137
741 0.000135
742 0.000135
743 0.000131
744 0.000129
745 0.000130
746 0.000138
747 0.000144
748 0.000153
749 0.000147
750 0.000134
751 0.000121
752 0.000103
753 0.000088
754 0.000075
755 0.000065
756 0.000056
757 0.000052
758 0.000056
759 0.000055
760 0.000053
761 0.000042
762 0.000037
763 0.000036
764 0.000036
765 0.000045
766 0.000050
767 0.000056
768 0.000064
769 0.000069
770 0.000076
771 0.000072
772 0.000063
773 0.000062
774 0.000064
775 0.000069
776 0.000069
777 0.000065
778 0.000066
779 0.000071
780 0.000079
781 0.000090
782 0.000104
783 0.000114
784 0.000112
785 0.000104
786 0.000092
787 0.000082
788 0.000067
789 0.000056
790 0.000051
791 0.000051
792 0.000050
793 0.000043
794 0.000036
795 0.000034
796 0.000030
797 0.000026
798 0.000024
799 0.000028
800 0.000031
801 0.000033
802 0.000038
803 0.000040
804 0.000041
805 0.000049
806 0.000056
807 0.000063
808 0.000062
809 0.000063
