# i correlation
1 0.002312
2 0.002197
3 0.002102
4 0.002013
5 0.001941
6 0.001875
7 0.001806
8 0.001748
9 0.001700
10 0.001655
11 0.001618
12 0.001593
13 0.001580
14 0.001553
15 0.001518
16 0.001487
17 0.001447
18 0.001407
19 0.001368
20 0.001332
21 0.001300
22 0.001291
23 0.001290
24 0.001291
25 0.001279
26 0.001270
27 0.001267
28 0.001272
29 0.001276
30 0.001281
31 0.001284
32 0.001265
33 0.001259
34 0.001255
35 0.001261
36 0.001268
37 0.001269
38 0.001275
39 0.001275
40 0.001278
41 0.001280
42 0.001273
43 0.001284
44 0.001292
45 0.001299
46 0.001315
47 0.001320
48 0.001318
49 0.001326
50 0.001335
51 0.001343
52 0.001346
53 0.001338
54 0.001333
55 0.001321
56 0.001292
57 0.001269
58 0.001248
59 0.001214
60 0.001194
61 0.001179
62 0.001158
63 0.001158
64 0.001163
65 0.001162
66 0.001149
67 0.001133
68 0.001110
69 0.001098
70 0.001092
71 0.001090
72 0.001086
73 0.001089
74 0.001091
75 0.001097
76 0.001093
77 0.001088
78 0.001097
79 0.001096
80 0.001094
81 0.001088
82 0.001086
83 0.001092
84 0.001092
85 0.001101
86 0.001114
87 0.001129
88 0.001146
89 0.001159
90 0.001169
91 0.001181
92 0.001193
93 0.001194
94 0.001200
95 0.001204
96 0.001203
97 0.001190
98 0.001182
99 0.001175
100 0.001159
101 0.001166
102 0.001173
103 0.001175
104 0.001186
105 0.001192
106 0.001193
107 0.001186
108 0.001173
109 0.001168
110 0.001164
111 0.001163
112 0.001147
113 0.001131
114 0.001109
115 0.001079
116 0.001051
117 0.001028
118 0.001014
119 0.001012
120 0.001001
121 0.000999
122 0.000996
123 0.000988
124 0.000977
125 0.000968
126 0.000957
127 0.000948
128 0.000941
129 0.000926
130 0.000912
131 0.000899
132 0.000894
133 0.000882
134 0.000870
135 0.000876
136 0.000886
137 0.000900
138 0.000910
139 0.000929
140 0.000953
141 0.000966
142 0.000982
143 0.000985
144 0.000981
145 0.000979
146 0.000971
147 0.000963
148 0.000969
149 0.000972
150 0.000980
151 0.000979
152 0.000988
153 0.000993
154 0.000998
155 0.000997
156 0.000996
157 0.000989
158 0.000977
159 0.000978
160 0.000957
161 0.000938
162 0.000926
163 0.000921
164 0.000913
165 0.000897
166 0.000887
167 0.000875
168 0.000862
169 0.000848
170 0.000834
171 0.000812
172 0.000781
173 0.000754
174 0.000739
175 0.000725
176 0.000711
177 0.000706
178 0.000687
179 0.000677
180 0.000676
181 0.000672
182 0.000666
183 0.000668
184 0.000668
185 0.000671
186 0.000689
187 0.000706
188 0.000717
189 0.000725
190 0.000740
191 0.000752
192 0.000765
193 0.000789
194 0.000817
195 0.000840
196 0.000857
197 0.000886
198 0.000906
199 0.000923
200 0.000936
201 0.000934
202 0.000930
203 0.000924
204 0.000913
205 0.000931
206 0.000935
207 0.000936
208 0.000933
209 0.000931
210 0.000934
211 0.000937
212 0.000930
213 0.000929
214 0.000930
215 0.000928
216 0.000913
217 0.000900
218 0.000888
219 0.000853
220 0.000832
221 0.000812
222 0.000787
223 0.000766
224 0.000752
225 0.000731
226 0.000719
227 0.000705
228 0.000682
229 0.000669
230 0.000663
231 0.000667
232 0.000676
233 0.000684
234 0.000695
235 0.000703
236 0.000706
237 0.000706
238 0.000708
239 0.000700
240 0.000693
241 0.000692
242 0.000704
243 0.000709
244 0.000711
245 0.000708
246 0.000714
247 0.000704
248 0.000706
249 0.000704
250 0.000705
251 0.000717
252 0.000723
253 0.000715
254 0.000702
255 0.000690
256 0.000678
257 0.000670
258 0.000665
259 0.000655
260 0.000660
261 0.000665
262 0.000663
263 0.000665
264 0.000665
265 0.000668
266 0.000669
267 0.000660
268 0.000644
269 0.000628
270 0.000615
271 0.000596
272 0.000593
273 0.000596
274 0.000603
275 0.000615
276 0.000626
277 0.000625
278 0.000636
279 0.000642
280 0.000643
281 0.000642
282 0.000637
283 0.000623
284 0.000621
285 0.000621
286 0.000611
287 0.000598
288 0.000603
289 0.000616
290 0.000625
291 0.000636
292 0.000643
293 0.000636
294 0.000634
295 0.000626
296 0.000619
297 0.000623
298 0.000633
299 0.000627
300 0.000616
301 0.000614
302 0.000624
303 0.000630
304 0.000630
305 0.000625
306 0.000621
307 0.000630
308 0.000635
309 0.000640
310 0.000643
311 0.000649
312 0.000653
313 0.000643
314 0.000621
315 0.000600
316 0.000594
317 0.000580
318 0.000564
319 0.000559
320 0.000550
321 0.000547
322 0.000538
323 0.000526
324 0.000524
325 0.000537
326 0.000543
327 0.000545
328 0.000543
329 0.000539
330 0.000534
331 0.000528
332 0.000514
333 0.000497
334 0.000483
335 0.000468
336 0.000457
337 0.000450
338 0.000444
339 0.000441
340 0.000444
341 0.000446
342 0.000444
343 0.000444
344 0.000442
345 0.000449
346 0.000446
347 0.000450
348 0.000450
349 0.000456
350 0.000456
351 0.000447
352 0.000435
353 0.000436
354 0.000447
355 0.000462
356 0.000470
357 0.000479
358 0.000480
359 0.000476
360 0.000467
361 0.000467
362 0.000466
363 0.000477
364 0.000492
365 0.000498
366 0.000501
367 0.000501
368 0.000506
369 0.000513
370 0.000519
371 0.000534
372 0.000538
373 0.000536
374 0.000538
375 0.000541
376 0.000546
377 0.000557
378 0.000546
379 0.000540
380 0.000547
381 0.000551
382 0.000549
383 0.000541
384 0.000529
385 0.000533
386 0.000537
387 0.000525
388 0.000527
389 0.000519
390 0.000515
391 0.000511
392 0.000494
393 0.000475
394 0.000468
395 0.000463
396 0.000464
397 0.000463
398 0.000462
399 0.000472
400 0.000482
401 0.000495
402 0.000502
403 0.000508
404 0.000530
405 0.000549
406 0.000557
407 0.000569
408 0.000578
409 0.000570
410 0.000563
411 0.000563
412 0.000568
413 0.000570
414 0.000567
415 0.000560
416 0.000548
417 0.000538
418 0.000527
419 0.000520
420 0.000525
421 0.000534
422 0.000535
423 0.000534
424 0.000527
425 0.000515
426 0.000505
427 0.000504
428 0.000495
429 0.000499
430 0.000500
431 0.000497
432 0.000502
433 0.000505
434 0.000514
435 0.000523
436 0.000528
437 0.000539
438 0.000546
439 0.000550
440 0.000558
441 0.000556
442 0.000554
443 0.000558
444 0.000555
445 0.000538
446 0.000524
447 0.000506
448 0.000493
449 0.000485
450 0.000477
451 0.000486
452 0.000493
453 0.000499
454 0.000498
455 0.000494
456 0.000492
457 0.000489
458 0.000480
459 0.000464
460 0.000454
461 0.000449
462 0.000447
463 0.000444
464 0.000437
465 0.000435
466 0.000441
467 0.000437
468 0.000440
469 0.000445
470 0.000441
471 0.000441
472 0.000435
473 0.000428
474 0.000421
475 0.000424
476 0.000435
477 0.000447
478 0.000462
479 0.000473
480 0.000479
481 0.000485
482 0.000495
483 0.000499
484 0.000513
485 0.000523
486 0.000533
487 0.000540
488 0.000533
489 0.000527
490 0.000519
491 0.000515
492 0.000513
493 0.000510
494 0.000511
495 0.000510
496 0.000511
497 0.000510
498 0.000495
499 0.000493
500 0.000500
501 0.000495
502 0.000487
503 0.000479
504 0.000471
505 0.000460
506 0.000460
507 0.000461
508 0.000465
509 0.000476
510 0.000482
511 0.000482
512 0.000483
513 0.000485
514 0.000474
515 0.000462
516 0.000459
517 0.000456
518 0.000457
519 0.000453
520 0.000451
521 0.000447
522 0.000451
523 0.000457
524 0.000470
525 0.000485
526 0.000503
527 0.000516
528 0.000527
529 0.000540
530 0.000553
531 0.000562
532 0.000572
533 0.000585
534 0.000600
535 0.000612
536 0.000625
537 0.000626
538 0.000619
539 0.000618
540 0.000630
541 0.000637
542 0.000638
543 0.000633
544 0.000635
545 0.000628
546 0.000620
547 0.000613
548 0.000603
549 0.000594
550 0.000582
551 0.000565
552 0.000548
553 0.000525
554 0.000507
555 0.000496
556 0.000486
557 0.000480
558 0.000479
559 0.000474
560 0.000473
561 0.000465
562 0.000463
563 0.000472
564 0.000487
565 0.000492
566 0.000482
567 0.000471
568 0.000455
569 0.000444
570 0.000437
571 0.000433
572 0.000433
573 0.000428
574 0.000425
575 0.000426
576 0.000434
577 0.000447
578 0.000454
579 0.000459
580 0.000462
581 0.000455
582 0.000450
583 0.000444
584 0.000436
585 0.000429
586 0.000430
587 0.000436
588 0.000451
589 0.000463
590 0.000471
591 0.000483
592 0.000480
593 0.000482
594 0.000481
595 0.000481
596 0.000474
597 0.000465
598 0.000454
599 0.000442
600 0.000432
601 0.000435
602 0.000434
603 0.000432
604 0.000424
605 0.000417
606 0.000421
607 0.000422
608 0.000420
609 0.000413
610 0.000407
611 0.000398
612 0.000388
613 0.000382
614 0.000381
615 0.000385
616 0.000384
617 0.000386
618 0.000389
619 0.000396
620 0.000400
621 0.000405
622 0.000411
623 0.000418
624 0.000422
625 0.000417
626 0.000409
627 0.000402
628 0.000396
629 0.000392
630 0.000389
631 0.000382
632 0.000387
633 0.000387
634 0.000391
635 0.000392
636 0.000389
637 0.000394
638 0.000405
639 0.000418
640 0.000426
641 0.000432
642 0.000437
643 0.000443
644 0.000436
645 0.000433
646 0.000432
647 0.000432
648 0.000436
649 0.000438
650 0.000437
651 0.000437
652 0.000438
653 0.000441
654 0.000440
655 0.000437
656 0.000428
657 0.000413
658 0.000402
659 0.000386
660 0.000365
661 0.000353
662 0.000336
663 0.000314
664 0.000293
665 0.000279
666 0.000272
667 0.000266
668 0.000263
669 0.000262
670 0.000256
671 0.000254
672 0.000251
673 0.000254
674 0.000260
675 0.000265
676 0.000271
677 0.000282
678 0.000291
679 0.000297
680 0.000302
681 0.000306
682 0.000309
683 0.000314
684 0.000321
685 0.000327
686 0.000335
687 0.000341
688 0.000344
689 0.000350
690 0.000353
691 0.000348
692 0.000347
693 0.000352
694 0.000350
695 0.000337
696 0.000327
697 0.000322
698 0.000317
699 0.000316
700 0.000313
701 0.000303
702 0.000295
703 0.000291
704 0.000286
705 0.000281
706 0.000275
707 0.000270
708 0.000256
709 0.000238
710 0.000221
711 0.000204
712 0.000192
713 0.000182
714 0.000170
715 0.000157
716 0.000147
717 0.000141
718 0.000142
719 0.000140
720 0.000141
721 0.000139
722 0.000129
723 0.000123
724 0.000116
725 0.000105
726 0.000100
727 0.000098
728 0.000097
729 0.000103
730 0.000110
731 0.000119
732 0.000130
733 0.000134
734 0.000139
735 0.000138
736 0.000134
737 0.000126
738 0.000119
739 0.000115
740 0.000112
741 0.000115
742 0.000116
743 0.000125
744 0.000132
745 0.000140
746 0.000147
747 0.000152
748 0.000148
749 0.000145
750 0.000139
751 0.000137
752 0.000134
753 0.000131
754 0.000134
755 0.000132
756 0.000131
757 0.000135
758 0.000137
759 0.000142
760 0.000149
761 0.000149
762 0.000150
763 0.000150
764 0.000146
765 0.000145
766 0.000135
767 0.000126
768 0.000117
769 0.000104
770 0.000096
771 0.000089
772 0.000085
773 0.000080
774 0.000073
775 0.000072
776 0.000075
777 0.000079
778 0.000086
779 0.000087
780 0.000086
781 0.000085
782 0.000083
783 0.000080
784 0.000085
785 0.000091
786 0.000093
787 0.000096
788 0.000098
789 0.000101
790 0.000104
791 0.000106
792 0.000109
793 0.000115
794 0.000120
795 0.000121
796 0.000118
797 0.000110
798 0.000110
799 0.000101
800 0.000091
801 0.000086
802 0.000080
803 0.000072
804 0.000067
805 0.000061
806 0.000055
807 0.000047
808 0.000043
809 0.000042
