# i correlation
1 0.001997
2 0.001885
3 0.001796
4 0.001733
5 0.001678
6 0.001639
7 0.001599
8 0.001551
9 0.001515
10 0.001480
11 0.001465
12 0.001456
13 0.001425
14 0.001400
15 0.001380
16 0.001358
17 0.001342
18 0.001323
19 0.001308
20 0.001301
21 0.001297
22 0.001294
23 0.001306
24 0.001303
25 0.001288
26 0.001283
27 0.001288
28 0.001288
29 0.001293
30 0.001300
31 0.001305
32 0.001308
33 0.001296
34 0.001280
35 0.001278
36 0.001286
37 0.001288
38 0.001293
39 0.001295
40 0.001292
41 0.001282
42 0.001267
43 0.001267
44 0.001272
45 0.001277
46 0.001270
47 0.001262
48 0.001251
49 0.001241
50 0.001229
51 0.001225
52 0.001214
53 0.001207
54 0.001204
55 0.001198
56 0.001193
57 0.001189
58 0.001187
59 0.001180
60 0.001177
61 0.001167
62 0.001162
63 0.001152
64 0.001140
65 0.001134
66 0.001129
67 0.001129
68 0.001137
69 0.001150
70 0.001152
71 0.001148
72 0.001144
73 0.001143
74 0.001143
75 0.001150
76 0.001159
77 0.001155
78 0.001148
79 0.001138
80 0.001133
81 0.001128
82 0.001124
83 0.001122
84 0.001116
85 0.001122
86 0.001128
87 0.001136
88 0.001141
89 0.001145
90 0.001141
91 0.001131
92 0.001126
93 0.001118
94 0.001100
95 0.001076
96 0.001049
97 0.001027
98 0.001001
99 0.000979
100 0.000965
101 0.000949
102 0.000937
103 0.000932
104 0.000920
105 0.000913
106 0.000915
107 0.000907
108 0.000905
109 0.000907
110 0.000908
111 0.000901
112 0.000905
113 0.000905
114 0.000903
115 0.000910
116 0.000910
117 0.000915
118 0.000918
119 0.000917
120 0.000909
121 0.000912
122 0.000900
123 0.000885
124 0.000883
125 0.000886
126 0.000893
127 0.000900
128 0.000904
129 0.000902
130 0.000897
131 0.000880
132 0.000863
133 0.000860
134 0.000848
135 0.000835
136 0.000829
137 0.000808
138 0.000795
139 0.000788
140 0.000787
141 0.000795
142 0.000801
143 0.000795
144 0.000796
145 0.000801
146 0.000801
147 0.000812
148 0.000834
149 0.000843
150 0.000846
151 0.000848
152 0.000852
153 0.000845
154 0.000834
155 0.000823
156 0.000825
157 0.000838
158 0.000859
159 0.000877
160 0.000891
161 0.000887
162 0.000887
163 0.000881
164 0.000869
165 0.000857
166 0.000861
167 0.000854
168 0.000856
169 0.000850
170 0.000837
171 0.000827
172 0.000819
173 0.000815
174 0.000800
175 0.000784
176 0.000761
177 0.000747
178 0.000731
179 0.000723
180 0.000721
181 0.000725
182 0.000723
183 0.000719
184 0.000701
185 0.000686
186 0.000669
187 0.000671
188 0.000668
189 0.000659
190 0.000649
191 0.000645
192 0.000650
193 0.000657
194 0.000670
195 0.000688
196 0.000683
197 0.000684
198 0.000695
199 0.000711
200 0.000730
201 0.000745
202 0.000756
203 0.000765
204 0.000783
205 0.000786
206 0.000798
207 0.000803
208 0.000800
209 0.000802
210 0.000812
211 0.000820
212 0.000817
213 0.000809
214 0.000792
215 0.000786
216 0.000775
217 0.000768
218 0.000766
219 0.000759
220 0.000742
221 0.000730
222 0.000730
223 0.000727
224 0.000713
225 0.000700
226 0.000691
227 0.000696
228 0.000704
229 0.000716
230 0.000728
231 0.000734
232 0.000741
233 0.000749
234 0.000753
235 0.000760
236 0.000763
237 0.000764
238 0.000774
239 0.000782
240 0.000785
241 0.000779
242 0.000782
243 0.000776
244 0.000759
245 0.000749
246 0.000747
247 0.000744
248 0.000734
249 0.000732
250 0.000735
251 0.000738
252 0.000721
253 0.000705
254 0.000697
255 0.000706
256 0.000711
257 0.000714
258 0.000710
259 0.000693
260 0.000689
261 0.000685
262 0.000670
263 0.000653
264 0.000630
265 0.000600
266 0.000585
267 0.000578
268 0.000577
269 0.000581
270 0.000583
271 0.000572
272 0.000568
273 0.000572
274 0.000566
275 0.000553
276 0.000547
277 0.000547
278 0.000559
279 0.000569
280 0.000577
281 0.000580
282 0.000576
283 0.000570
284 0.000563
285 0.000562
286 0.000565
287 0.000576
288 0.000583
289 0.000589
290 0.000598
291 0.000604
292 0.000608
293 0.000621
294 0.000629
295 0.000626
296 0.000629
297 0.000634
298 0.000631
299 0.000638
300 0.000649
301 0.000652
302 0.000653
303 0.000649
304 0.000645
305 0.000644
306 0.000640
307 0.000638
308 0.000641
309 0.000654
310 0.000662
311 0.000666
312 0.000662
313 0.000656
314 0.000642
315 0.000623
316 0.000609
317 0.000605
318 0.000604
319 0.000599
320 0.000598
321 0.000595
322 0.000595
323 0.000587
324 0.000573
325 0.000577
326 0.000576
327 0.000576
328 0.000579
329 0.000582
330 0.000574
331 0.000571
332 0.000568
333 0.000565
334 0.000558
335 0.000543
336 0.000531
337 0.000516
338 0.000498
339 0.000495
340 0.000500
341 0.000507
342 0.000512
343 0.000523
344 0.000518
345 0.000518
346 0.000524
347 0.000522
348 0.000528
349 0.000537
350 0.000542
351 0.000546
352 0.000534
353 0.000525
354 0.000519
355 0.000520
356 0.000517
357 0.000515
358 0.000515
359 0.000511
360 0.000496
361 0.000488
362 0.000478
363 0.000478
364 0.000477
365 0.000470
366 0.000478
367 0.000478
368 0.000479
369 0.000478
370 0.000483
371 0.000487
372 0.000490
373 0.000493
374 0.000495
375 0.000495
376 0.000487
377 0.000482
378 0.000482
379 0.000482
380 0.000483
381 0.000488
382 0.000496
383 0.000497
384 0.000491
385 0.000493
386 0.000495
387 0.000505
388 0.000513
389 0.000520
390 0.000522
391 0.000522
392 0.000517
393 0.000505
394 0.000500
395 0.000498
396 0.000498
397 0.000502
398 0.000510
399 0.000521
400 0.000521
401 0.000515
402 0.000524
403 0.000533
404 0.000549
405 0.000555
406 0.000564
407 0.000557
408 0.000553
409 0.000551
410 0.000550
411 0.000543
412 0.000533
413 0.000516
414 0.000500
415 0.000487
416 0.000476
417 0.000468
418 0.000468
419 0.000473
420 0.000471
421 0.000468
422 0.000451
423 0.000443
424 0.000430
425 0.000418
426 0.000414
427 0.000413
428 0.000412
429 0.000415
430 0.000413
431 0.000409
432 0.000406
433 0.000409
434 0.000409
435 0.000410
436 0.000410
437 0.000412
438 0.000414
439 0.000422
440 0.000426
441 0.000424
442 0.000431
443 0.000437
444 0.000440
445 0.000432
446 0.000426
447 0.000407
448 0.000392
449 0.000391
450 0.000391
451 0.000394
452 0.000386
453 0.000379
454 0.000362
455 0.000361
456 0.000362
457 0.000358
458 0.000354
459 0.000351
460 0.000347
461 0.000352
462 0.000360
463 0.000359
464 0.000360
465 0.000351
466 0.000339
467 0.000335
468 0.000343
469 0.000346
470 0.000346
471 0.000344
472 0.000350
473 0.000358
474 0.000372
475 0.000384
476 0.000387
477 0.000380
478 0.000371
479 0.000371
480 0.000375
481 0.000379
482 0.000373
483 0.000364
484 0.000356
485 0.000347
486 0.000333
487 0.000326
488 0.000315
489 0.000313
490 0.000305
491 0.000305
492 0.000304
493 0.000297
494 0.000286
495 0.000281
496 0.000281
497 0.000272
498 0.000260
499 0.000255
500 0.000267
501 0.000279
502 0.000289
503 0.000293
504 0.000301
505 0.000294
506 0.000286
507 0.000285
508 0.000291
509 0.000293
510 0.000285
511 0.000274
512 0.000270
513 0.000268
514 0.000259
515 0.000256
516 0.000267
517 0.000267
518 0.000260
519 0.000256
520 0.000251
521 0.000242
522 0.000235
523 0.000233
524 0.000233
525 0.000226
526 0.000214
527 0.000205
528 0.000203
529 0.000210
530 0.000218
531 0.000224
532 0.000232
533 0.000238
534 0.000238
535 0.000237
536 0.000238
537 0.000236
538 0.000228
539 0.000224
540 0.000226
541 0.000220
542 0.000205
543 0.000196
544 0.000189
545 0.000184
546 0.000179
547 0.000179
548 0.000177
549 0.000185
550 0.000190
551 0.000202
552 0.000214
553 0.000217
554 0.000217
555 0.000223
556 0.000232
557 0.000238
558 0.000247
559 0.000255
560 0.000264
561 0.000274
562 0.000277
563 0.000277
564 0.000276
565 0.000271
566 0.000264
567 0.000262
568 0.000266
569 0.000267
570 0.000266
571 0.000253
572 0.000243
573 0.000233
574 0.000215
575 0.000199
576 0.000190
577 0.000188
578 0.000190
579 0.000192
580 0.000186
581 0.000177
582 0.000169
583 0.000162
584 0.000160
585 0.000157
586 0.000156
587 0.000160
588 0.000162
589 0.000169
590 0.000171
591 0.000182
592 0.000191
593 0.000199
594 0.000202
595 0.000193
596 0.000184
597 0.000177
598 0.000170
599 0.000167
600 0.000170
601 0.000175
602 0.000179
603 0.000186
604 0.000192
605 0.000197
606 0.000201
607 0.000200
608 0.000203
609 0.000206
610 0.000205
611 0.000206
612 0.000207
613 0.000200
614 0.000192
615 0.000185
616 0.000188
617 0.000189
618 0.000186
619 0.000182
620 0.000178
621 0.000178
622 0.000187
623 0.000196
624 0.000205
625 0.000213
626 0.000214
627 0.000214
628 0.000218
629 0.000218
630 0.000216
631 0.000222
632 0.000222
633 0.000218
634 0.000218
635 0.000218
636 0.000218
637 0.000225
638 0.000239
639 0.000246
640 0.000250
641 0.000247
642 0.000244
643 0.000246
644 0.000249
645 0.000257
646 0.000267
647 0.000271
648 0.000277
649 0.000284
650 0.000289
651 0.000298
652 0.000309
653 0.000316
654 0.000316
655 0.000309
656 0.000302
657 0.000295
658 0.000291
659 0.000281
660 0.000276
661 0.000274
662 0.000272
663 0.000270
664 0.000264
665 0.000252
666 0.000244
667 0.000229
668 0.000225
669 0.000223
670 0.000223
671 0.000218
672 0.000213
673 0.000204
674 0.000200
675 0.000206
676 0.000214
677 0.000222
678 0.000226
679 0.000229
680 0.000234
681 0.000240
682 0.000252
683 0.000261
684 0.000271
685 0.000274
686 0.000276
687 0.000272
688 0.000266
689 0.000263
690 0.000259
691 0.000261
692 0.000266
693 0.000274
694 0.000279
695 0.000282
696 0.000288
697 0.000300
698 0.000306
699 0.000313
700 0.000317
701 0.000312
702 0.000307
703 0.000303
704 0.000300
705 0.000291
706 0.000289
707 0.000291
708 0.000289
709 0.000294
710 0.000291
711 0.000296
712 0.000296
713 0.000298
714 0.000299
715 0.000300
716 0.000295
717 0.000298
718 0.000303
719 0.000310
720 0.000317
721 0.000320
722 0.000326
723 0.000327
724 0.000324
725 0.000318
726 0.000310
727 0.000301
728 0.000294
729 0.000289
730 0.000290
731 0.000292
732 0.000292
733 0.000290
734 0.000287
735 0.000284
736 0.000280
737 0.000282
738 0.000285
739 0.000285
740 0.000283
741 0.000287
742 0.000290
743 0.000296
744 0.000298
745 0.000303
746 0.000302
747 0.000297
748 0.000292
749 0.000282
750 0.000273
751 0.000268
752 0.000270
753 0.000270
754 0.000265
755 0.000269
756 0.000265
757 0.000264
758 0.000265
759 0.000271
760 0.000276
761 0.000278
762 0.000285
763 0.000287
764 0.000292
765 0.000290
766 0.000288
767 0.000288
768 0.000285
769 0.000283
770 0.000275
771 0.000274
772 0.000279
773 0.000281
774 0.000286
775 0.000290
776 0.000290
777 0.000281
778 0.000271
779 0.000263
780 0.000254
781 0.000242
782 0.000235
783 0.000231
784 0.000227
785 0.000227
786 0.000235
787 0.000242
788 0.000249
789 0.000254
790 0.000260
791 0.000261
792 0.000257
793 0.000248
794 0.000238
795 0.000232
796 0.000228
797 0.000227
798 0.000227
799 0.000230
800 0.000231
801 0.000233
802 0.000233
803 0.000235
804 0.000234
805 0.000232
806 0.000230
807 0.000227
808 0.000223
809 0.000218
