# i correlation
1 0.002646
2 0.002538
3 0.002446
4 0.002363
5 0.002285
6 0.002223
7 0.002172
8 0.002135
9 0.002102
10 0.002069
11 0.002039
12 0.002011
13 0.001988
14 0.001963
15 0.001935
16 0.001916
17 0.001902
18 0.001874
19 0.001846
20 0.001820
21 0.001787
22 0.001751
23 0.001711
24 0.001678
25 0.001643
26 0.001608
27 0.001587
28 0.001578
29 0.001564
30 0.001551
31 0.001548
32 0.001537
33 0.001531
34 0.001528
35 0.001522
36 0.001512
37 0.001510
38 0.001510
39 0.001520
40 0.001523
41 0.001513
42 0.001504
43 0.001489
44 0.001483
45 0.001474
46 0.001467
47 0.001468
48 0.001472
49 0.001476
50 0.001469
51 0.001465
52 0.001457
53 0.001447
54 0.001433
55 0.001428
56 0.001418
57 0.001415
58 0.001411
59 0.001408
60 0.001405
61 0.001406
62 0.001398
63 0.001385
64 0.001390
65 0.001389
66 0.001381
67 0.001374
68 0.001384
69 0.001392
70 0.001403
71 0.001402
72 0.001403
73 0.001396
74 0.001398
75 0.001401
76 0.001403
77 0.001397
78 0.001398
79 0.001403
80 0.001407
81 0.001412
82 0.001400
83 0.001391
84 0.001373
85 0.001344
86 0.001316
87 0.001296
88 0.001274
89 0.001257
90 0.001243
91 0.001231
92 0.001229
93 0.001231
94 0.001227
95 0.001215
96 0.001208
97 0.001204
98 0.001201
99 0.001201
100 0.001194
101 0.001187
102 0.001173
103 0.001156
104 0.001144
105 0.001130
106 0.001108
107 0.001087
108 0.001067
109 0.001061
110 0.001063
111 0.001069
112 0.001071
113 0.001070
114 0.001080
115 0.001095
116 0.001117
117 0.001142
118 0.001171
119 0.001186
120 0.001213
121 0.001235
122 0.001244
123 0.001255
124 0.001258
125 0.001267
126 0.001275
127 0.001280
128 0.001277
129 0.001268
130 0.001251
131 0.001233
132 0.001227
133 0.001225
134 0.001231
135 0.001249
136 0.001268
137 0.001286
138 0.001309
139 0.001323
140 0.001339
141 0.001346
142 0.001354
143 0.001363
144 0.001364
145 0.001361
146 0.001359
147 0.001363
148 0.001374
149 0.001380
150 0.001372
151 0.001372
152 0.001373
153 0.001369
154 0.001355
155 0.001334
156 0.001325
157 0.001323
158 0.001319
159 0.001325
160 0.001326
161 0.001325
162 0.001318
163 0.001304
164 0.001286
165 0.001279
166 0.001273
167 0.001271
168 0.001263
169 0.001259
170 0.001249
171 0.001239
172 0.001224
173 0.001209
174 0.001178
175 0.001161
176 0.001150
177 0.001136
178 0.001114
179 0.001102
180 0.001096
181 0.001091
182 0.001082
183 0.001065
184 0.001055
185 0.001045
186 0.001041
187 0.001035
188 0.001022
189 0.000998
190 0.000977
191 0.000966
192 0.000949
193 0.000934
194 0.000922
195 0.000902
196 0.000898
197 0.000904
198 0.000900
199 0.000907
200 0.000907
201 0.000910
202 0.000912
203 0.000914
204 0.000926
205 0.000940
206 0.000946
207 0.000955
208 0.000963
209 0.000971
210 0.000974
211 0.000969
212 0.000958
213 0.000948
214 0.000937
215 0.000928
216 0.000934
217 0.000935
218 0.000943
219 0.000963
220 0.000974
221 0.000992
222 0.001007
223 0.001015
224 0.001022
225 0.001009
226 0.000993
227 0.000979
228 0.000965
229 0.000941
230 0.000928
231 0.000923
232 0.000913
233 0.000902
234 0.000889
235 0.000880
236 0.000877
237 0.000880
238 0.000877
239 0.000878
240 0.000891
241 0.000910
242 0.000910
243 0.000916
244 0.000919
245 0.000914
246 0.000898
247 0.000885
248 0.000871
249 0.000859
250 0.000839
251 0.000819
252 0.000811
253 0.000809
254 0.000802
255 0.000794
256 0.000795
257 0.000784
258 0.000777
259 0.000768
260 0.000765
261 0.000767
262 0.000776
263 0.000787
264 0.000793
265 0.000799
266 0.000796
267 0.000784
268 0.000776
269 0.000779
270 0.000783
271 0.000789
272 0.000791
273 0.000792
274 0.000795
275 0.000797
276 0.000799
277 0.000815
278 0.000825
279 0.000831
280 0.000849
281 0.000866
282 0.000876
283 0.000873
284 0.000873
285 0.000878
286 0.000884
287 0.000902
288 0.000919
289 0.000938
290 0.000950
291 0.000955
292 0.000954
293 0.000956
294 0.000945
295 0.000937
296 0.000935
297 0.000929
298 0.000922
299 0.000918
300 0.000912
301 0.000910
302 0.000911
303 0.000919
304 0.000934
305 0.000950
306 0.000964
307 0.000968
308 0.000964
309 0.000961
310 0.000943
311 0.000921
312 0.000902
313 0.000892
314 0.000879
315 0.000861
316 0.000844
317 0.000830
318 0.000812
319 0.000793
320 0.000784
321 0.000781
322 0.000779
323 0.000768
324 0.000768
325 0.000769
326 0.000764
327 0.000756
328 0.000754
329 0.000744
330 0.000732
331 0.000714
332 0.000700
333 0.000682
334 0.000680
335 0.000679
336 0.000670
337 0.000667
338 0.000657
339 0.000650
340 0.000641
341 0.000638
342 0.000641
343 0.000632
344 0.000626
345 0.000639
346 0.000647
347 0.000646
348 0.000639
349 0.000627
350 0.000608
351 0.000592
352 0.000582
353 0.000572
354 0.000567
355 0.000562
356 0.000555
357 0.000556
358 0.000563
359 0.000574
360 0.000580
361 0.000590
362 0.000603
363 0.000616
364 0.000628
365 0.000634
366 0.000634
367 0.000633
368 0.000624
369 0.000611
370 0.000608
371 0.000598
372 0.000580
373 0.000567
374 0.000561
375 0.000549
376 0.000548
377 0.000544
378 0.000531
379 0.000526
380 0.000526
381 0.000522
382 0.000520
383 0.000524
384 0.000533
385 0.000538
386 0.000542
387 0.000543
388 0.000544
389 0.000547
390 0.000551
391 0.000551
392 0.000546
393 0.000553
394 0.000552
395 0.000547
396 0.000535
397 0.000517
398 0.000505
399 0.000489
400 0.000482
401 0.000482
402 0.000479
403 0.000480
404 0.000484
405 0.000484
406 0.000488
407 0.000491
408 0.000489
409 0.000489
410 0.000487
411 0.000486
412 0.000483
413 0.000488
414 0.000493
415 0.000507
416 0.000515
417 0.000518
418 0.000520
419 0.000514
420 0.000502
421 0.000493
422 0.000488
423 0.000481
424 0.000479
425 0.000484
426 0.000489
427 0.000499
428 0.000512
429 0.000528
430 0.000540
431 0.000547
432 0.000553
433 0.000552
434 0.000554
435 0.000559
436 0.000553
437 0.000546
438 0.000532
439 0.000529
440 0.000528
441 0.000534
442 0.000544
443 0.000556
444 0.000571
445 0.000576
446 0.000582
447 0.000585
448 0.000595
449 0.000595
450 0.000599
451 0.000593
452 0.000594
453 0.000598
454 0.000600
455 0.000601
456 0.000602
457 0.000607
458 0.000604
459 0.000598
460 0.000595
461 0.000593
462 0.000596
463 0.000604
464 0.000611
465 0.000617
466 0.000621
467 0.000616
468 0.000608
469 0.000595
470 0.000577
471 0.000553
472 0.000524
473 0.000500
474 0.000490
475 0.000483
476 0.000485
477 0.000482
478 0.000465
479 0.000451
480 0.000440
481 0.000430
482 0.000421
483 0.000419
484 0.000424
485 0.000434
486 0.000437
487 0.000442
488 0.000449
489 0.000445
490 0.000448
491 0.000434
492 0.000426
493 0.000427
494 0.000434
495 0.000434
496 0.000438
497 0.000445
498 0.000445
499 0.000439
500 0.000431
501 0.000428
502 0.000420
503 0.000417
504 0.000420
505 0.000428
506 0.000438
507 0.000438
508 0.000436
509 0.000432
510 0.000429
511 0.000429
512 0.000426
513 0.000420
514 0.000420
515 0.000416
516 0.000407
517 0.000392
518 0.000384
519 0.000368
520 0.000347
521 0.000327
522 0.000309
523 0.000295
524 0.000280
525 0.000271
526 0.000261
527 0.000257
528 0.000262
529 0.000266
530 0.000261
531 0.000256
532 0.000252
533 0.000258
534 0.000263
535 0.000268
536 0.000283
537 0.000292
538 0.000295
539 0.000299
540 0.000299
541 0.000300
542 0.000299
543 0.000304
544 0.000305
545 0.000308
546 0.000316
547 0.000317
548 0.000317
549 0.000319
550 0.000321
551 0.000323
552 0.000324
553 0.000327
554 0.000329
555 0.000331
556 0.000329
557 0.000326
558 0.000333
559 0.000333
560 0.000328
561 0.000322
562 0.000313
563 0.000302
564 0.000295
565 0.000285
566 0.000279
567 0.000280
568 0.000281
569 0.000285
570 0.000293
571 0.000303
572 0.000306
573 0.000313
574 0.000309
575 0.000306
576 0.000297
577 0.000293
578 0.000294
579 0.000292
580 0.000292
581 0.000294
582 0.000293
583 0.000293
584 0.000291
585 0.000287
586 0.000299
587 0.000314
588 0.000321
589 0.000319
590 0.000321
591 0.000315
592 0.000312
593 0.000306
594 0.000302
595 0.000301
596 0.000292
597 0.000292
598 0.000292
599 0.000281
600 0.000272
601 0.000272
602 0.000268
603 0.000265
604 0.000262
605 0.000259
606 0.000253
607 0.000249
608 0.000248
609 0.000243
610 0.000244
611 0.000250
612 0.000261
613 0.000268
614 0.000276
615 0.000288
616 0.000294
617 0.000302
618 0.000303
619 0.000299
620 0.000296
621 0.000296
622 0.000295
623 0.000291
624 0.000293
625 0.000298
626 0.000308
627 0.000315
628 0.000322
629 0.000324
630 0.000322
631 0.000311
632 0.000302
633 0.000296
634 0.000295
635 0.000295
636 0.000296
637 0.000292
638 0.000293
639 0.000292
640 0.000280
641 0.000276
642 0.000277
643 0.000272
644 0.000264
645 0.000249
646 0.000237
647 0.000225
648 0.000215
649 0.000208
650 0.000203
651 0.000197
652 0.000193
653 0.000189
654 0.000186
655 0.000186
656 0.000187
657 0.000188
658 0.000193
659 0.000187
660 0.000181
661 0.000178
662 0.000176
663 0.000175
664 0.000167
665 0.000171
666 0.000174
667 0.000183
668 0.000173
669 0.000167
670 0.000159
671 0.000155
672 0.000156
673 0.000161
674 0.000160
675 0.000159
676 0.000162
677 0.000159
678 0.000153
679 0.000139
680 0.000122
681 0.000114
682 0.000099
683 0.000087
684 0.000077
685 0.000066
686 0.000061
687 0.000057
688 0.000041
689 0.000028
690 0.000021
691 0.000013
692 0.000010
693 0.000015
694 0.000014
695 0.000015
696 0.000020
697 0.000026
698 0.000031
699 0.000031
700 0.000028
701 0.000023
702 0.000016
703 0.000008
704 0.000005
705 0.000004
706 0.000005
707 0.000010
708 0.000015
709 0.000018
710 0.000018
711 0.000016
712 0.000021
713 0.000023
714 0.000025
715 0.000027
716 0.000022
717 0.000023
718 0.000021
719 0.000022
720 0.000024
721 0.000025
722 0.000028
723 0.000028
724 0.000026
725 0.000027
726 0.000027
727 0.000019
728 0.000011
729 0.000002
730 -0.000002
731 -0.000011
732 -0.000019
733 -0.000027
734 -0.000035
735 -0.000038
736 -0.000045
737 -0.000051
738 -0.000055
739 -0.000057
740 -0.000058
741 -0.000058
742 -0.000059
743 -0.000061
744 -0.000068
745 -0.000077
746 -0.000089
747 -0.000097
748 -0.000098
749 -0.000107
750 -0.000112
751 -0.000117
752 -0.000123
753 -0.000122
754 -0.000116
755 -0.000115
756 -0.000118
757 -0.000116
758 -0.000121
759 -0.000121
760 -0.000121
761 -0.000122
762 -0.000124
763 -0.000128
764 -0.000123
765 -0.000122
766 -0.000122
767 -0.000125
768 -0.000120
769 -0.000118
770 -0.000115
771 -0.000118
772 -0.000120
773 -0.000124
774 -0.000115
775 -0.000113
776 -0.000109
777 -0.000101
778 -0.000093
779 -0.000091
780 -0.000093
781 -0.000093
782 -0.000090
783 -0.000083
784 -0.000078
785 -0.000073
786 -0.000072
787 -0.000071
788 -0.000068
789 -0.000064
790 -0.000060
791 -0.000053
792 -0.000040
793 -0.000032
794 -0.000025
795 -0.000017
796 -0.000015
797 -0.000011
798 -0.000008
799 -0.000004
800 -0.000007
801 -0.000007
802 -0.000006
803 -0.000005
804 -0.000009
805 -0.000011
806 -0.000018
807 -0.000024
808 -0.000026
809 -0.000029
