# i correlation
1 0.001985
2 0.001867
3 0.001765
4 0.001684
5 0.001630
6 0.001583
7 0.001547
8 0.001514
9 0.001494
10 0.001481
11 0.001475
12 0.001455
13 0.001446
14 0.001441
15 0.001437
16 0.001426
17 0.001406
18 0.001382
19 0.001355
20 0.001326
21 0.001303
22 0.001286
23 0.001254
24 0.001240
25 0.001224
26 0.001207
27 0.001189
28 0.001172
29 0.001149
30 0.001147
31 0.001153
32 0.001156
33 0.001165
34 0.001175
35 0.001191
36 0.001201
37 0.001206
38 0.001209
39 0.001213
40 0.001210
41 0.001195
42 0.001176
43 0.001155
44 0.001141
45 0.001137
46 0.001130
47 0.001138
48 0.001126
49 0.001109
50 0.001099
51 0.001084
52 0.001072
53 0.001066
54 0.001062
55 0.001057
56 0.001049
57 0.001044
58 0.001036
59 0.001022
60 0.001013
61 0.001004
62 0.000992
63 0.000976
64 0.000955
65 0.000946
66 0.000945
67 0.000934
68 0.000906
69 0.000888
70 0.000881
71 0.000876
72 0.000876
73 0.000882
74 0.000884
75 0.000897
76 0.000899
77 0.000900
78 0.000890
79 0.000868
80 0.000852
81 0.000847
82 0.000858
83 0.000849
84 0.000845
85 0.000842
86 0.000846
87 0.000857
88 0.000860
89 0.000860
90 0.000866
91 0.000857
92 0.000849
93 0.000837
94 0.000827
95 0.000810
96 0.000796
97 0.000801
98 0.000797
99 0.000806
100 0.000822
101 0.000836
102 0.000838
103 0.000835
104 0.000826
105 0.000825
106 0.000837
107 0.000856
108 0.000866
109 0.000860
110 0.000844
111 0.000832
112 0.000826
113 0.000819
114 0.000806
115 0.000800
116 0.000799
117 0.000804
118 0.000810
119 0.000808
120 0.000805
121 0.000820
122 0.000839
123 0.000853
124 0.000855
125 0.000842
126 0.000821
127 0.000817
128 0.000817
129 0.000821
130 0.000809
131 0.000802
132 0.000788
133 0.000780
134 0.000768
135 0.000757
136 0.000748
137 0.000750
138 0.000762
139 0.000770
140 0.000776
141 0.000763
142 0.000747
143 0.000733
144 0.000731
145 0.000728
146 0.000744
147 0.000753
148 0.000764
149 0.000773
150 0.000767
151 0.000771
152 0.000777
153 0.000780
154 0.000779
155 0.000779
156 0.000769
157 0.000764
158 0.000746
159 0.000742
160 0.000747
161 0.000770
162 0.000803
163 0.000830
164 0.000849
165 0.000852
166 0.000860
167 0.000858
168 0.000855
169 0.000846
170 0.000839
171 0.000826
172 0.000816
173 0.000807
174 0.000803
175 0.000800
176 0.000795
177 0.000795
178 0.000799
179 0.000797
180 0.000787
181 0.000781
182 0.000765
183 0.000756
184 0.000749
185 0.000746
186 0.000737
187 0.000739
188 0.000745
189 0.000759
190 0.000773
191 0.000776
192 0.000762
193 0.000746
194 0.000735
195 0.000721
196 0.000716
197 0.000707
198 0.000705
199 0.000702
200 0.000693
201 0.000689
202 0.000676
203 0.000665
204 0.000653
205 0.000643
206 0.000638
207 0.000636
208 0.000638
209 0.000656
210 0.000665
211 0.000666
212 0.000657
213 0.000644
214 0.000630
215 0.000629
216 0.000635
217 0.000631
218 0.000633
219 0.000631
220 0.000622
221 0.000609
222 0.000591
223 0.000578
224 0.000577
225 0.000577
226 0.000574
227 0.000565
228 0.000574
229 0.000586
230 0.000602
231 0.000607
232 0.000597
233 0.000584
234 0.000576
235 0.000564
236 0.000561
237 0.000552
238 0.000548
239 0.000551
240 0.000555
241 0.000554
242 0.000546
243 0.000539
244 0.000537
245 0.000541
246 0.000543
247 0.000534
248 0.000518
249 0.000508
250 0.000488
251 0.000468
252 0.000455
253 0.000453
254 0.000452
255 0.000460
256 0.000482
257 0.000491
258 0.000480
259 0.000456
260 0.000436
261 0.000412
262 0.000392
263 0.000375
264 0.000361
265 0.000355
266 0.000352
267 0.000350
268 0.000348
269 0.000347
270 0.000344
271 0.000357
272 0.000364
273 0.000370
274 0.000369
275 0.000379
276 0.000393
277 0.000401
278 0.000402
279 0.000402
280 0.000402
281 0.000409
282 0.000404
283 0.000401
284 0.000406
285 0.000410
286 0.000412
287 0.000415
288 0.000418
289 0.000411
290 0.000409
291 0.000420
292 0.000426
293 0.000433
294 0.000433
295 0.000441
296 0.000443
297 0.000458
298 0.000458
299 0.000447
300 0.000435
301 0.000424
302 0.000426
303 0.000432
304 0.000427
305 0.000424
306 0.000422
307 0.000424
308 0.000428
309 0.000426
310 0.000427
311 0.000424
312 0.000419
313 0.000417
314 0.000420
315 0.000427
316 0.000445
317 0.000453
318 0.000481
319 0.000500
320 0.000508
321 0.000517
322 0.000523
323 0.000535
324 0.000539
325 0.000531
326 0.000513
327 0.000507
328 0.000499
329 0.000487
330 0.000487
331 0.000499
332 0.000513
333 0.000524
334 0.000523
335 0.000514
336 0.000512
337 0.000518
338 0.000524
339 0.000530
340 0.000522
341 0.000511
342 0.000517
343 0.000508
344 0.000497
345 0.000482
346 0.000472
347 0.000465
348 0.000463
349 0.000466
350 0.000469
351 0.000462
352 0.000451
353 0.000455
354 0.000460
355 0.000467
356 0.000466
357 0.000475
358 0.000488
359 0.000493
360 0.000486
361 0.000481
362 0.000472
363 0.000471
364 0.000474
365 0.000468
366 0.000456
367 0.000440
368 0.000431
369 0.000427
370 0.000428
371 0.000426
372 0.000439
373 0.000450
374 0.000453
375 0.000456
376 0.000454
377 0.000464
378 0.000477
379 0.000490
380 0.000502
381 0.000500
382 0.000490
383 0.000474
384 0.000472
385 0.000476
386 0.000473
387 0.000463
388 0.000453
389 0.000452
390 0.000446
391 0.000442
392 0.000439
393 0.000434
394 0.000435
395 0.000431
396 0.000432
397 0.000444
398 0.000454
399 0.000456
400 0.000455
401 0.000440
402 0.000430
403 0.000428
404 0.000418
405 0.000423
406 0.000440
407 0.000445
408 0.000463
409 0.000485
410 0.000496
411 0.000504
412 0.000503
413 0.000491
414 0.000482
415 0.000472
416 0.000464
417 0.000464
418 0.000461
419 0.000471
420 0.000490
421 0.000506
422 0.000507
423 0.000501
424 0.000499
425 0.000499
426 0.000498
427 0.000504
428 0.000497
429 0.000479
430 0.000469
431 0.000471
432 0.000464
433 0.000449
434 0.000438
435 0.000428
436 0.000427
437 0.000431
438 0.000429
439 0.000429
440 0.000420
441 0.000403
442 0.000389
443 0.000381
444 0.000377
445 0.000379
446 0.000379
447 0.000383
448 0.000375
449 0.000371
450 0.000362
451 0.000349
452 0.000335
453 0.000316
454 0.000320
455 0.000335
456 0.000348
457 0.000344
458 0.000339
459 0.000337
460 0.000331
461 0.000329
462 0.000334
463 0.000331
464 0.000328
465 0.000331
466 0.000341
467 0.000347
468 0.000349
469 0.000353
470 0.000356
471 0.000355
472 0.000352
473 0.000349
474 0.000345
475 0.000342
476 0.000335
477 0.000327
478 0.000324
479 0.000327
480 0.000337
481 0.000347
482 0.000359
483 0.000364
484 0.000381
485 0.000404
486 0.000431
487 0.000453
488 0.000469
489 0.000472
490 0.000464
491 0.000450
492 0.000434
493 0.000425
494 0.000423
495 0.000420
496 0.000426
497 0.000438
498 0.000444
499 0.000449
500 0.000450
501 0.000455
502 0.000464
503 0.000468
504 0.000461
505 0.000456
506 0.000456
507 0.000450
508 0.000442
509 0.000442
510 0.000445
511 0.000448
512 0.000456
513 0.000462
514 0.000471
515 0.000471
516 0.000471
517 0.000477
518 0.000483
519 0.000490
520 0.000490
521 0.000498
522 0.000499
523 0.000494
524 0.000488
525 0.000488
526 0.000489
527 0.000498
528 0.000511
529 0.000522
530 0.000526
531 0.000528
532 0.000532
533 0.000536
534 0.000542
535 0.000541
536 0.000539
537 0.000539
538 0.000535
539 0.000527
540 0.000517
541 0.000515
542 0.000507
543 0.000505
544 0.000506
545 0.000499
546 0.000495
547 0.000490
548 0.000490
549 0.000490
550 0.000494
551 0.000492
552 0.000490
553 0.000483
554 0.000482
555 0.000478
556 0.000470
557 0.000462
558 0.000452
559 0.000442
560 0.000440
561 0.000439
562 0.000441
563 0.000447
564 0.000444
565 0.000442
566 0.000430
567 0.000419
568 0.000424
569 0.000426
570 0.000428
571 0.000427
572 0.000429
573 0.000425
574 0.000420
575 0.000420
576 0.000428
577 0.000428
578 0.000428
579 0.000424
580 0.000413
581 0.000401
582 0.000391
583 0.000384
584 0.000384
585 0.000381
586 0.000377
587 0.000377
588 0.000378
589 0.000383
590 0.000372
591 0.000361
592 0.000350
593 0.000341
594 0.000332
595 0.000329
596 0.000326
597 0.000324
598 0.000328
599 0.000327
600 0.000321
601 0.000309
602 0.000302
603 0.000299
604 0.000304
605 0.000302
606 0.000296
607 0.000295
608 0.000298
609 0.000303
610 0.000310
611 0.000310
612 0.000305
613 0.000300
614 0.000284
615 0.000276
616 0.000270
617 0.000263
618 0.000261
619 0.000262
620 0.000264
621 0.000261
622 0.000256
623 0.000249
624 0.000233
625 0.000221
626 0.000211
627 0.000203
628 0.000197
629 0.000197
630 0.000200
631 0.000198
632 0.000191
633 0.000178
634 0.000170
635 0.000170
636 0.000179
637 0.000187
638 0.000185
639 0.000179
640 0.000174
641 0.000170
642 0.000168
643 0.000168
644 0.000159
645 0.000158
646 0.000160
647 0.000164
648 0.000168
649 0.000166
650 0.000169
651 0.000175
652 0.000188
653 0.000204
654 0.000212
655 0.000221
656 0.000227
657 0.000227
658 0.000228
659 0.000223
660 0.000219
661 0.000213
662 0.000205
663 0.000198
664 0.000190
665 0.000190
666 0.000194
667 0.000198
668 0.000192
669 0.000188
670 0.000185
671 0.000178
672 0.000170
673 0.000163
674 0.000159
675 0.000160
676 0.000159
677 0.000157
678 0.000152
679 0.000146
680 0.000139
681 0.000130
682 0.000122
683 0.000122
684 0.000117
685 0.000118
686 0.000126
687 0.000129
688 0.000126
689 0.000123
690 0.000122
691 0.000119
692 0.000113
693 0.000109
694 0.000104
695 0.000099
696 0.000107
697 0.000114
698 0.000116
699 0.000117
700 0.000124
701 0.000131
702 0.000138
703 0.000149
704 0.000152
705 0.000156
706 0.000154
707 0.000160
708 0.000161
709 0.000160
710 0.000156
711 0.000157
712 0.000161
713 0.000166
714 0.000166
715 0.000166
716 0.000170
717 0.000169
718 0.000173
719 0.000175
720 0.000173
721 0.000170
722 0.000173
723 0.000176
724 0.000180
725 0.000177
726 0.000177
727 0.000182
728 0.000179
729 0.000173
730 0.000168
731 0.000165
732 0.000160
733 0.000161
734 0.000158
735 0.000159
736 0.000154
737 0.000156
738 0.000159
739 0.000160
740 0.000166
741 0.000163
742 0.000169
743 0.000173
744 0.000181
745 0.000184
746 0.000183
747 0.000181
748 0.000176
749 0.000169
750 0.000164
751 0.000164
752 0.000163
753 0.000166
754 0.000168
755 0.000168
756 0.000165
757 0.000161
758 0.000155
759 0.000161
760 0.000169
761 0.000179
762 0.000187
763 0.000189
764 0.000190
765 0.000183
766 0.000178
767 0.000173
768 0.000161
769 0.000155
770 0.000148
771 0.000138
772 0.000125
773 0.000115
774 0.000113
775 0.000112
776 0.000111
777 0.000112
778 0.000114
779 0.000106
780 0.000098
781 0.000086
782 0.000079
783 0.000075
784 0.000068
785 0.000066
786 0.000064
787 0.000059
788 0.000053
789 0.000048
790 0.000038
791 0.000028
792 0.000020
793 0.000021
794 0.000024
795 0.000023
796 0.000022
797 0.000023
798 0.000032
799 0.000035
800 0.000044
801 0.000048
802 0.000046
803 0.000048
804 0.000051
805 0.000056
806 0.000055
807 0.000054
808 0.000060
809 0.000070
