# i correlation
1 0.002214
2 0.002085
3 0.001980
4 0.001901
5 0.001839
6 0.001772
7 0.001717
8 0.001675
9 0.001647
10 0.001620
11 0.001577
12 0.001534
13 0.001519
14 0.001511
15 0.001504
16 0.001496
17 0.001492
18 0.001505
19 0.001509
20 0.001511
21 0.001506
22 0.001489
23 0.001451
24 0.001421
25 0.001400
26 0.001385
27 0.001371
28 0.001361
29 0.001357
30 0.001346
31 0.001337
32 0.001341
33 0.001350
34 0.001377
35 0.001420
36 0.001447
37 0.001462
38 0.001466
39 0.001477
40 0.001501
41 0.001517
42 0.001523
43 0.001511
44 0.001518
45 0.001519
46 0.001509
47 0.001490
48 0.001471
49 0.001448
50 0.001436
51 0.001429
52 0.001406
53 0.001387
54 0.001371
55 0.001371
56 0.001368
57 0.001367
58 0.001354
59 0.001342
60 0.001331
61 0.001323
62 0.001317
63 0.001304
64 0.001283
65 0.001258
66 0.001244
67 0.001222
68 0.001201
69 0.001189
70 0.001181
71 0.001176
72 0.001175
73 0.001173
74 0.001174
75 0.001183
76 0.001205
77 0.001219
78 0.001214
79 0.001218
80 0.001228
81 0.001217
82 0.001198
83 0.001181
84 0.001170
85 0.001161
86 0.001150
87 0.001142
88 0.001130
89 0.001119
90 0.001112
91 0.001112
92 0.001114
93 0.001127
94 0.001149
95 0.001161
96 0.001176
97 0.001188
98 0.001183
99 0.001179
100 0.001170
101 0.001169
102 0.001165
103 0.001160
104 0.001158
105 0.001150
106 0.001148
107 0.001143
108 0.001135
109 0.001125
110 0.001119
111 0.001115
112 0.001107
113 0.001102
114 0.001098
115 0.001102
116 0.001105
117 0.001103
118 0.001101
119 0.001085
120 0.001075
121 0.001081
122 0.001080
123 0.001079
124 0.001083
125 0.001082
126 0.001074
127 0.001065
128 0.001062
129 0.001067
130 0.001072
131 0.001082
132 0.001080
133 0.001075
134 0.001066
135 0.001061
136 0.001048
137 0.001018
138 0.001002
139 0.000992
140 0.000992
141 0.000988
142 0.000984
143 0.000985
144 0.000981
145 0.000984
146 0.000986
147 0.000980
148 0.000973
149 0.000967
150 0.000961
151 0.000958
152 0.000951
153 0.000957
154 0.000963
155 0.000969
156 0.000964
157 0.000963
158 0.000950
159 0.000944
160 0.000941
161 0.000947
162 0.000952
163 0.000951
164 0.000948
165 0.000943
166 0.000941
167 0.000937
168 0.000940
169 0.000937
170 0.000946
171 0.000967
172 0.000983
173 0.000995
174 0.000989
175 0.000998
176 0.001007
177 0.001008
178 0.000985
179 0.000963
180 0.000950
181 0.000943
182 0.000943
183 0.000935
184 0.000933
185 0.000933
186 0.000934
187 0.000917
188 0.000878
189 0.000845
190 0.000830
191 0.000827
192 0.000820
193 0.000810
194 0.000800
195 0.000815
196 0.000809
197 0.000807
198 0.000808
199 0.000798
200 0.000800
201 0.000808
202 0.000805
203 0.000800
204 0.000791
205 0.000789
206 0.000785
207 0.000773
208 0.000766
209 0.000745
210 0.000735
211 0.000730
212 0.000738
213 0.000728
214 0.000711
215 0.000698
216 0.000694
217 0.000707
218 0.000713
219 0.000720
220 0.000730
221 0.000732
222 0.000739
223 0.000743
224 0.000733
225 0.000731
226 0.000729
227 0.000737
228 0.000743
229 0.000745
230 0.000749
231 0.000746
232 0.000733
233 0.000716
234 0.000699
235 0.000692
236 0.000686
237 0.000686
238 0.000690
239 0.000694
240 0.000706
241 0.000703
242 0.000698
243 0.000691
244 0.000675
245 0.000660
246 0.000651
247 0.000648
248 0.000653
249 0.000655
250 0.000640
251 0.000626
252 0.000623
253 0.000612
254 0.000592
255 0.000565
256 0.000563
257 0.000558
258 0.000556
259 0.000546
260 0.000533
261 0.000531
262 0.000543
263 0.000557
264 0.000571
265 0.000581
266 0.000585
267 0.000583
268 0.000573
269 0.000571
270 0.000570
271 0.000559
272 0.000549
273 0.000547
274 0.000548
275 0.000550
276 0.000549
277 0.000544
278 0.000552
279 0.000562
280 0.000580
281 0.000594
282 0.000600
283 0.000604
284 0.000604
285 0.000601
286 0.000598
287 0.000598
288 0.000613
289 0.000619
290 0.000609
291 0.000606
292 0.000596
293 0.000588
294 0.000575
295 0.000559
296 0.000532
297 0.000518
298 0.000508
299 0.000492
300 0.000487
301 0.000485
302 0.000497
303 0.000498
304 0.000501
305 0.000499
306 0.000497
307 0.000500
308 0.000503
309 0.000513
310 0.000524
311 0.000527
312 0.000502
313 0.000483
314 0.000465
315 0.000457
316 0.000453
317 0.000446
318 0.000425
319 0.000409
320 0.000398
321 0.000390
322 0.000386
323 0.000394
324 0.000417
325 0.000433
326 0.000450
327 0.000456
328 0.000451
329 0.000451
330 0.000460
331 0.000466
332 0.000473
333 0.000476
334 0.000478
335 0.000479
336 0.000474
337 0.000468
338 0.000458
339 0.000446
340 0.000439
341 0.000429
342 0.000423
343 0.000431
344 0.000438
345 0.000451
346 0.000458
347 0.000445
348 0.000444
349 0.000436
350 0.000441
351 0.000442
352 0.000454
353 0.000477
354 0.000482
355 0.000480
356 0.000479
357 0.000479
358 0.000482
359 0.000484
360 0.000485
361 0.000485
362 0.000479
363 0.000473
364 0.000470
365 0.000453
366 0.000446
367 0.000443
368 0.000442
369 0.000435
370 0.000427
371 0.000433
372 0.000441
373 0.000447
374 0.000450
375 0.000437
376 0.000416
377 0.000402
378 0.000390
379 0.000379
380 0.000373
381 0.000369
382 0.000362
383 0.000347
384 0.000340
385 0.000336
386 0.000334
387 0.000337
388 0.000334
389 0.000323
390 0.000316
391 0.000316
392 0.000318
393 0.000323
394 0.000332
395 0.000345
396 0.000356
397 0.000364
398 0.000361
399 0.000356
400 0.000350
401 0.000348
402 0.000352
403 0.000364
404 0.000379
405 0.000388
406 0.000393
407 0.000394
408 0.000398
409 0.000403
410 0.000397
411 0.000398
412 0.000406
413 0.000419
414 0.000433
415 0.000439
416 0.000441
417 0.000442
418 0.000441
419 0.000435
420 0.000430
421 0.000425
422 0.000424
423 0.000424
424 0.000425
425 0.000422
426 0.000418
427 0.000409
428 0.000395
429 0.000381
430 0.000369
431 0.000362
432 0.000358
433 0.000356
434 0.000355
435 0.000357
436 0.000356
437 0.000360
438 0.000368
439 0.000367
440 0.000372
441 0.000373
442 0.000372
443 0.000364
444 0.000356
445 0.000348
446 0.000337
447 0.000321
448 0.000317
449 0.000314
450 0.000316
451 0.000325
452 0.000331
453 0.000343
454 0.000349
455 0.000354
456 0.000364
457 0.000371
458 0.000375
459 0.000379
460 0.000387
461 0.000390
462 0.000384
463 0.000372
464 0.000370
465 0.000366
466 0.000373
467 0.000383
468 0.000394
469 0.000399
470 0.000404
471 0.000411
472 0.000410
473 0.000409
474 0.000404
475 0.000405
476 0.000405
477 0.000404
478 0.000399
479 0.000391
480 0.000386
481 0.000386
482 0.000380
483 0.000359
484 0.000340
485 0.000326
486 0.000330
487 0.000329
488 0.000339
489 0.000349
490 0.000353
491 0.000357
492 0.000358
493 0.000366
494 0.000361
495 0.000359
496 0.000359
497 0.000356
498 0.000352
499 0.000347
500 0.000339
501 0.000333
502 0.000328
503 0.000323
504 0.000312
505 0.000307
506 0.000302
507 0.000294
508 0.000297
509 0.000304
510 0.000314
511 0.000331
512 0.000346
513 0.000352
514 0.000350
515 0.000347
516 0.000344
517 0.000340
518 0.000343
519 0.000337
520 0.000325
521 0.000325
522 0.000321
523 0.000312
524 0.000293
525 0.000275
526 0.000265
527 0.000266
528 0.000275
529 0.000286
530 0.000301
531 0.000308
532 0.000322
533 0.000336
534 0.000337
535 0.000336
536 0.000337
537 0.000343
538 0.000342
539 0.000338
540 0.000330
541 0.000316
542 0.000296
543 0.000277
544 0.000269
545 0.000254
546 0.000249
547 0.000248
548 0.000252
549 0.000250
550 0.000255
551 0.000260
552 0.000262
553 0.000266
554 0.000275
555 0.000279
556 0.000283
557 0.000292
558 0.000299
559 0.000304
560 0.000291
561 0.000272
562 0.000255
563 0.000235
564 0.000213
565 0.000204
566 0.000204
567 0.000211
568 0.000221
569 0.000231
570 0.000236
571 0.000239
572 0.000245
573 0.000255
574 0.000260
575 0.000266
576 0.000269
577 0.000274
578 0.000269
579 0.000268
580 0.000264
581 0.000258
582 0.000252
583 0.000245
584 0.000237
585 0.000227
586 0.000221
587 0.000212
588 0.000226
589 0.000242
590 0.000257
591 0.000269
592 0.000284
593 0.000295
594 0.000302
595 0.000309
596 0.000307
597 0.000304
598 0.000304
599 0.000314
600 0.000314
601 0.000306
602 0.000302
603 0.000294
604 0.000282
605 0.000264
606 0.000249
607 0.000239
608 0.000229
609 0.000228
610 0.000225
611 0.000216
612 0.000211
613 0.000210
614 0.000210
615 0.000209
616 0.000210
617 0.000215
618 0.000214
619 0.000207
620 0.000196
621 0.000193
622 0.000189
623 0.000185
624 0.000187
625 0.000180
626 0.000176
627 0.000172
628 0.000172
629 0.000167
630 0.000162
631 0.000161
632 0.000165
633 0.000175
634 0.000194
635 0.000210
636 0.000229
637 0.000244
638 0.000257
639 0.000270
640 0.000271
641 0.000273
642 0.000269
643 0.000276
644 0.000277
645 0.000278
646 0.000279
647 0.000275
648 0.000274
649 0.000268
650 0.000257
651 0.000248
652 0.000246
653 0.000246
654 0.000253
655 0.000253
656 0.000249
657 0.000245
658 0.000239
659 0.000231
660 0.000214
661 0.000203
662 0.000197
663 0.000196
664 0.000197
665 0.000195
666 0.000187
667 0.000168
668 0.000158
669 0.000150
670 0.000133
671 0.000116
672 0.000104
673 0.000102
674 0.000101
675 0.000105
676 0.000111
677 0.000109
678 0.000112
679 0.000117
680 0.000121
681 0.000119
682 0.000116
683 0.000124
684 0.000138
685 0.000147
686 0.000152
687 0.000155
688 0.000165
689 0.000170
690 0.000177
691 0.000177
692 0.000168
693 0.000163
694 0.000164
695 0.000159
696 0.000161
697 0.000163
698 0.000175
699 0.000185
700 0.000192
701 0.000195
702 0.000187
703 0.000182
704 0.000179
705 0.000178
706 0.000169
707 0.000157
708 0.000145
709 0.000139
710 0.000133
711 0.000130
712 0.000122
713 0.000116
714 0.000111
715 0.000101
716 0.000090
717 0.000075
718 0.000068
719 0.000070
720 0.000068
721 0.000066
722 0.000059
723 0.000053
724 0.000052
725 0.000053
726 0.000044
727 0.000030
728 0.000023
729 0.000022
730 0.000029
731 0.000035
732 0.000039
733 0.000046
734 0.000059
735 0.000068
736 0.000067
737 0.000062
738 0.000063
739 0.000068
740 0.000070
741 0.000064
742 0.000058
743 0.000050
744 0.000042
745 0.000042
746 0.000035
747 0.000028
748 0.000022
749 0.000026
750 0.000027
751 0.000025
752 0.000028
753 0.000031
754 0.000029
755 0.000028
756 0.000030
757 0.000029
758 0.000029
759 0.000025
760 0.000024
761 0.000022
762 0.000021
763 0.000020
764 0.000019
765 0.000016
766 0.000013
767 0.000011
768 0.000007
769 0.000004
770 0.000001
771 -0.000000
772 -0.000005
773 -0.000013
774 -0.000017
775 -0.000014
776 -0.000014
777 -0.000008
778 -0.000008
779 -0.000010
780 -0.000014
781 -0.000012
782 -0.000011
783 -0.000013
784 -0.000009
785 -0.000002
786 0.000004
787 0.000012
788 0.000011
789 0.000001
790 -0.000006
791 -0.000008
792 -0.000010
793 -0.000008
794 0.000000
795 0.000004
796 0.000007
797 0.000012
798 0.000015
799 0.000020
800 0.000029
801 0.000035
802 0.000042
803 0.000046
804 0.000050
805 0.000053
806 0.000058
807 0.000058
808 0.000059
809 0.000062
