# i correlation
1 0.001911
2 0.001787
3 0.001687
4 0.001605
5 0.001538
6 0.001479
7 0.001422
8 0.001363
9 0.001313
10 0.001264
11 0.001212
12 0.001166
13 0.001140
14 0.001107
15 0.001073
16 0.001037
17 0.001009
18 0.000992
19 0.000981
20 0.000989
21 0.000989
22 0.000994
23 0.000997
24 0.000995
25 0.000981
26 0.000980
27 0.000982
28 0.000987
29 0.000987
30 0.000986
31 0.000986
32 0.000990
33 0.001005
34 0.001016
35 0.001018
36 0.001025
37 0.001025
38 0.001020
39 0.001015
40 0.001005
41 0.001004
42 0.001000
43 0.000990
44 0.000981
45 0.000979
46 0.000983
47 0.000988
48 0.001003
49 0.000998
50 0.000985
51 0.000978
52 0.000968
53 0.000958
54 0.000951
55 0.000949
56 0.000929
57 0.000931
58 0.000919
59 0.000899
60 0.000886
61 0.000882
62 0.000877
63 0.000861
64 0.000842
65 0.000837
66 0.000844
67 0.000857
68 0.000864
69 0.000875
70 0.000880
71 0.000882
72 0.000889
73 0.000897
74 0.000903
75 0.000919
76 0.000920
77 0.000907
78 0.000904
79 0.000896
80 0.000894
81 0.000909
82 0.000925
83 0.000934
84 0.000922
85 0.000907
86 0.000884
87 0.000871
88 0.000867
89 0.000863
90 0.000867
91 0.000859
92 0.000849
93 0.000847
94 0.000835
95 0.000826
96 0.000828
97 0.000830
98 0.000826
99 0.000829
100 0.000836
101 0.000841
102 0.000856
103 0.000863
104 0.000854
105 0.000854
106 0.000870
107 0.000884
108 0.000900
109 0.000921
110 0.000948
111 0.000966
112 0.000967
113 0.000954
114 0.000941
115 0.000937
116 0.000950
117 0.000965
118 0.000969
119 0.000964
120 0.000969
121 0.000975
122 0.000976
123 0.000980
124 0.000977
125 0.000962
126 0.000940
127 0.000912
128 0.000878
129 0.000850
130 0.000831
131 0.000824
132 0.000815
133 0.000812
134 0.000806
135 0.000819
136 0.000827
137 0.000818
138 0.000812
139 0.000810
140 0.000816
141 0.000810
142 0.000805
143 0.000814
144 0.000819
145 0.000837
146 0.000839
147 0.000827
148 0.000822
149 0.000826
150 0.000826
151 0.000830
152 0.000819
153 0.000808
154 0.000804
155 0.000799
156 0.000793
157 0.000793
158 0.000799
159 0.000806
160 0.000799
161 0.000785
162 0.000757
163 0.000739
164 0.000727
165 0.000728
166 0.000729
167 0.000714
168 0.000695
169 0.000679
170 0.000655
171 0.000653
172 0.000664
173 0.000672
174 0.000676
175 0.000678
176 0.000680
177 0.000674
178 0.000676
179 0.000672
180 0.000662
181 0.000661
182 0.000668
183 0.000672
184 0.000669
185 0.000666
186 0.000659
187 0.000647
188 0.000637
189 0.000630
190 0.000635
191 0.000639
192 0.000652
193 0.000658
194 0.000662
195 0.000659
196 0.000656
197 0.000653
198 0.000649
199 0.000643
200 0.000639
201 0.000638
202 0.000653
203 0.000668
204 0.000661
205 0.000647
206 0.000635
207 0.000619
208 0.000606
209 0.000595
210 0.000577
211 0.000562
212 0.000558
213 0.000568
214 0.000575
215 0.000574
216 0.000599
217 0.000614
218 0.000628
219 0.000638
220 0.000648
221 0.000664
222 0.000676
223 0.000695
224 0.000717
225 0.000718
226 0.000735
227 0.000747
228 0.000758
229 0.000765
230 0.000768
231 0.000764
232 0.000755
233 0.000755
234 0.000752
235 0.000740
236 0.000714
237 0.000681
238 0.000661
239 0.000637
240 0.000607
241 0.000579
242 0.000560
243 0.000541
244 0.000529
245 0.000517
246 0.000510
247 0.000509
248 0.000507
249 0.000499
250 0.000490
251 0.000487
252 0.000483
253 0.000481
254 0.000488
255 0.000495
256 0.000509
257 0.000533
258 0.000548
259 0.000564
260 0.000582
261 0.000605
262 0.000619
263 0.000620
264 0.000631
265 0.000638
266 0.000646
267 0.000661
268 0.000674
269 0.000687
270 0.000693
271 0.000688
272 0.000684
273 0.000677
274 0.000675
275 0.000682
276 0.000682
277 0.000678
278 0.000679
279 0.000667
280 0.000644
281 0.000632
282 0.000611
283 0.000597
284 0.000596
285 0.000586
286 0.000571
287 0.000548
288 0.000532
289 0.000520
290 0.000512
291 0.000504
292 0.000505
293 0.000510
294 0.000504
295 0.000491
296 0.000489
297 0.000485
298 0.000485
299 0.000498
300 0.000502
301 0.000512
302 0.000515
303 0.000511
304 0.000507
305 0.000507
306 0.000514
307 0.000518
308 0.000512
309 0.000526
310 0.000527
311 0.000533
312 0.000535
313 0.000532
314 0.000539
315 0.000539
316 0.000542
317 0.000547
318 0.000548
319 0.000543
320 0.000529
321 0.000504
322 0.000481
323 0.000463
324 0.000448
325 0.000431
326 0.000432
327 0.000431
328 0.000420
329 0.000418
330 0.000425
331 0.000429
332 0.000436
333 0.000443
334 0.000445
335 0.000452
336 0.000458
337 0.000471
338 0.000478
339 0.000484
340 0.000482
341 0.000490
342 0.000501
343 0.000503
344 0.000501
345 0.000497
346 0.000488
347 0.000480
348 0.000476
349 0.000470
350 0.000461
351 0.000456
352 0.000454
353 0.000444
354 0.000437
355 0.000433
356 0.000424
357 0.000414
358 0.000402
359 0.000397
360 0.000387
361 0.000379
362 0.000372
363 0.000366
364 0.000352
365 0.000345
366 0.000335
367 0.000336
368 0.000345
369 0.000353
370 0.000350
371 0.000354
372 0.000361
373 0.000358
374 0.000357
375 0.000369
376 0.000365
377 0.000357
378 0.000357
379 0.000357
380 0.000357
381 0.000369
382 0.000380
383 0.000388
384 0.000390
385 0.000399
386 0.000405
387 0.000412
388 0.000414
389 0.000426
390 0.000430
391 0.000432
392 0.000443
393 0.000444
394 0.000438
395 0.000428
396 0.000414
397 0.000389
398 0.000367
399 0.000360
400 0.000354
401 0.000354
402 0.000357
403 0.000356
404 0.000356
405 0.000354
406 0.000348
407 0.000339
408 0.000332
409 0.000335
410 0.000341
411 0.000342
412 0.000343
413 0.000344
414 0.000345
415 0.000349
416 0.000358
417 0.000367
418 0.000377
419 0.000388
420 0.000403
421 0.000414
422 0.000420
423 0.000426
424 0.000426
425 0.000426
426 0.000432
427 0.000439
428 0.000439
429 0.000439
430 0.000437
431 0.000414
432 0.000401
433 0.000394
434 0.000382
435 0.000369
436 0.000360
437 0.000359
438 0.000353
439 0.000340
440 0.000323
441 0.000306
442 0.000297
443 0.000288
444 0.000284
445 0.000280
446 0.000274
447 0.000271
448 0.000265
449 0.000260
450 0.000273
451 0.000288
452 0.000306
453 0.000317
454 0.000325
455 0.000322
456 0.000326
457 0.000332
458 0.000341
459 0.000352
460 0.000366
461 0.000376
462 0.000382
463 0.000395
464 0.000396
465 0.000396
466 0.000394
467 0.000397
468 0.000400
469 0.000401
470 0.000394
471 0.000376
472 0.000369
473 0.000361
474 0.000353
475 0.000342
476 0.000328
477 0.000305
478 0.000286
479 0.000266
480 0.000249
481 0.000235
482 0.000217
483 0.000211
484 0.000204
485 0.000204
486 0.000194
487 0.000180
488 0.000172
489 0.000162
490 0.000157
491 0.000169
492 0.000198
493 0.000214
494 0.000232
495 0.000252
496 0.000273
497 0.000284
498 0.000286
499 0.000287
500 0.000276
501 0.000271
502 0.000271
503 0.000270
504 0.000260
505 0.000254
506 0.000243
507 0.000230
508 0.000226
509 0.000224
510 0.000218
511 0.000212
512 0.000208
513 0.000204
514 0.000199
515 0.000196
516 0.000192
517 0.000191
518 0.000188
519 0.000186
520 0.000190
521 0.000197
522 0.000203
523 0.000207
524 0.000203
525 0.000197
526 0.000195
527 0.000202
528 0.000207
529 0.000215
530 0.000221
531 0.000223
532 0.000224
533 0.000228
534 0.000234
535 0.000245
536 0.000252
537 0.000254
538 0.000267
539 0.000280
540 0.000302
541 0.000316
542 0.000324
543 0.000323
544 0.000321
545 0.000323
546 0.000325
547 0.000330
548 0.000330
549 0.000334
550 0.000338
551 0.000336
552 0.000326
553 0.000320
554 0.000314
555 0.000307
556 0.000292
557 0.000276
558 0.000267
559 0.000258
560 0.000248
561 0.000241
562 0.000238
563 0.000238
564 0.000234
565 0.000234
566 0.000234
567 0.000234
568 0.000243
569 0.000251
570 0.000262
571 0.000271
572 0.000277
573 0.000276
574 0.000277
575 0.000283
576 0.000293
577 0.000305
578 0.000312
579 0.000312
580 0.000303
581 0.000296
582 0.000286
583 0.000274
584 0.000275
585 0.000283
586 0.000290
587 0.000286
588 0.000276
589 0.000273
590 0.000273
591 0.000274
592 0.000278
593 0.000272
594 0.000267
595 0.000272
596 0.000273
597 0.000269
598 0.000264
599 0.000264
600 0.000254
601 0.000240
602 0.000226
603 0.000214
604 0.000204
605 0.000203
606 0.000196
607 0.000182
608 0.000175
609 0.000161
610 0.000151
611 0.000139
612 0.000133
613 0.000129
614 0.000123
615 0.000122
616 0.000128
617 0.000130
618 0.000131
619 0.000141
620 0.000151
621 0.000153
622 0.000145
623 0.000148
624 0.000148
625 0.000148
626 0.000141
627 0.000134
628 0.000130
629 0.000130
630 0.000133
631 0.000133
632 0.000140
633 0.000149
634 0.000157
635 0.000165
636 0.000162
637 0.000167
638 0.000175
639 0.000184
640 0.000189
641 0.000194
642 0.000194
643 0.000192
644 0.000194
645 0.000192
646 0.000195
647 0.000193
648 0.000189
649 0.000183
650 0.000174
651 0.000171
652 0.000177
653 0.000187
654 0.000186
655 0.000184
656 0.000179
657 0.000176
658 0.000174
659 0.000165
660 0.000161
661 0.000162
662 0.000159
663 0.000148
664 0.000136
665 0.000132
666 0.000133
667 0.000139
668 0.000146
669 0.000143
670 0.000135
671 0.000131
672 0.000124
673 0.000115
674 0.000113
675 0.000112
676 0.000108
677 0.000111
678 0.000113
679 0.000108
680 0.000108
681 0.000111
682 0.000116
683 0.000115
684 0.000111
685 0.000112
686 0.000115
687 0.000120
688 0.000130
689 0.000142
690 0.000146
691 0.000148
692 0.000147
693 0.000146
694 0.000154
695 0.000162
696 0.000163
697 0.000161
698 0.000166
699 0.000173
700 0.000175
701 0.000184
702 0.000193
703 0.000192
704 0.000191
705 0.000186
706 0.000183
707 0.000185
708 0.000179
709 0.000168
710 0.000155
711 0.000142
712 0.000136
713 0.000137
714 0.000139
715 0.000143
716 0.000148
717 0.000149
718 0.000146
719 0.000142
720 0.000140
721 0.000143
722 0.000154
723 0.000160
724 0.000166
725 0.000169
726 0.000172
727 0.000178
728 0.000179
729 0.000176
730 0.000177
731 0.000177
732 0.000172
733 0.000159
734 0.000149
735 0.000149
736 0.000155
737 0.000160
738 0.000158
739 0.000151
740 0.000145
741 0.000141
742 0.000136
743 0.000134
744 0.000136
745 0.000135
746 0.000130
747 0.000119
748 0.000109
749 0.000098
750 0.000093
751 0.000095
752 0.000101
753 0.000108
754 0.000110
755 0.000111
756 0.000117
757 0.000121
758 0.000125
759 0.000132
760 0.000136
761 0.000137
762 0.000137
763 0.000139
764 0.000149
765 0.000157
766 0.000161
767 0.000158
768 0.000156
769 0.000150
770 0.000147
771 0.000144
772 0.000138
773 0.000137
774 0.000137
775 0.000134
776 0.000131
777 0.000131
778 0.000130
779 0.000131
780 0.000132
781 0.000126
782 0.000117
783 0.000108
784 0.000106
785 0.000101
786 0.000090
787 0.000086
788 0.000084
789 0.000085
790 0.000084
791 0.000085
792 0.000083
793 0.000081
794 0.000081
795 0.000081
796 0.000076
797 0.000077
798 0.000083
799 0.000082
800 0.000085
801 0.000086
802 0.000087
803 0.000089
804 0.000092
805 0.000094
806 0.000101
807 0.000104
808 0.000110
809 0.000110
