# i correlation
1 0.002190
2 0.002087
3 0.002007
4 0.001948
5 0.001892
6 0.001827
7 0.001775
8 0.001719
9 0.001674
10 0.001643
11 0.001616
12 0.001592
13 0.001576
14 0.001557
15 0.001540
16 0.001514
17 0.001492
18 0.001477
19 0.001458
20 0.001447
21 0.001433
22 0.001411
23 0.001389
24 0.001362
25 0.001343
26 0.001326
27 0.001313
28 0.001298
29 0.001294
30 0.001295
31 0.001289
32 0.001288
33 0.001288
34 0.001288
35 0.001297
36 0.001289
37 0.001287
38 0.001281
39 0.001270
40 0.001262
41 0.001261
42 0.001266
43 0.001269
44 0.001265
45 0.001254
46 0.001246
47 0.001247
48 0.001243
49 0.001231
50 0.001209
51 0.001200
52 0.001193
53 0.001204
54 0.001205
55 0.001200
56 0.001193
57 0.001195
58 0.001210
59 0.001228
60 0.001247
61 0.001253
62 0.001260
63 0.001263
64 0.001263
65 0.001267
66 0.001260
67 0.001252
68 0.001249
69 0.001241
70 0.001232
71 0.001220
72 0.001200
73 0.001182
74 0.001167
75 0.001146
76 0.001138
77 0.001132
78 0.001126
79 0.001113
80 0.001111
81 0.001111
82 0.001108
83 0.001093
84 0.001083
85 0.001069
86 0.001061
87 0.001045
88 0.001026
89 0.001012
90 0.001003
91 0.000998
92 0.000995
93 0.000971
94 0.000947
95 0.000930
96 0.000922
97 0.000929
98 0.000935
99 0.000936
100 0.000950
101 0.000957
102 0.000954
103 0.000944
104 0.000940
105 0.000928
106 0.000918
107 0.000912
108 0.000894
109 0.000872
110 0.000853
111 0.000844
112 0.000842
113 0.000843
114 0.000840
115 0.000835
116 0.000829
117 0.000829
118 0.000832
119 0.000840
120 0.000843
121 0.000848
122 0.000853
123 0.000866
124 0.000875
125 0.000879
126 0.000868
127 0.000862
128 0.000854
129 0.000847
130 0.000844
131 0.000842
132 0.000839
133 0.000846
134 0.000851
135 0.000852
136 0.000842
137 0.000834
138 0.000837
139 0.000842
140 0.000838
141 0.000828
142 0.000816
143 0.000806
144 0.000799
145 0.000804
146 0.000805
147 0.000800
148 0.000795
149 0.000787
150 0.000782
151 0.000789
152 0.000806
153 0.000816
154 0.000830
155 0.000826
156 0.000826
157 0.000823
158 0.000809
159 0.000805
160 0.000795
161 0.000790
162 0.000782
163 0.000772
164 0.000770
165 0.000777
166 0.000787
167 0.000800
168 0.000811
169 0.000816
170 0.000827
171 0.000834
172 0.000853
173 0.000847
174 0.000839
175 0.000826
176 0.000810
177 0.000802
178 0.000799
179 0.000792
180 0.000786
181 0.000786
182 0.000803
183 0.000817
184 0.000831
185 0.000853
186 0.000867
187 0.000872
188 0.000872
189 0.000878
190 0.000872
191 0.000861
192 0.000858
193 0.000856
194 0.000851
195 0.000853
196 0.000846
197 0.000845
198 0.000833
199 0.000828
200 0.000832
201 0.000831
202 0.000826
203 0.000812
204 0.000806
205 0.000805
206 0.000791
207 0.000775
208 0.000758
209 0.000744
210 0.000735
211 0.000720
212 0.000705
213 0.000692
214 0.000685
215 0.000686
216 0.000685
217 0.000678
218 0.000671
219 0.000658
220 0.000651
221 0.000646
222 0.000650
223 0.000649
224 0.000640
225 0.000645
226 0.000647
227 0.000658
228 0.000656
229 0.000652
230 0.000658
231 0.000655
232 0.000648
233 0.000634
234 0.000629
235 0.000629
236 0.000625
237 0.000630
238 0.000636
239 0.000630
240 0.000626
241 0.000619
242 0.000606
243 0.000602
244 0.000600
245 0.000600
246 0.000592
247 0.000584
248 0.000581
249 0.000586
250 0.000594
251 0.000590
252 0.000582
253 0.000581
254 0.000578
255 0.000571
256 0.000564
257 0.000569
258 0.000577
259 0.000580
260 0.000583
261 0.000580
262 0.000578
263 0.000576
264 0.000574
265 0.000572
266 0.000570
267 0.000558
268 0.000548
269 0.000549
270 0.000551
271 0.000555
272 0.000561
273 0.000568
274 0.000573
275 0.000568
276 0.000563
277 0.000540
278 0.000526
279 0.000529
280 0.000525
281 0.000522
282 0.000512
283 0.000511
284 0.000512
285 0.000521
286 0.000529
287 0.000543
288 0.000547
289 0.000551
290 0.000545
291 0.000532
292 0.000525
293 0.000516
294 0.000516
295 0.000510
296 0.000498
297 0.000492
298 0.000482
299 0.000467
300 0.000457
301 0.000445
302 0.000429
303 0.000415
304 0.000405
305 0.000397
306 0.000395
307 0.000400
308 0.000409
309 0.000415
310 0.000414
311 0.000416
312 0.000418
313 0.000417
314 0.000416
315 0.000419
316 0.000428
317 0.000431
318 0.000436
319 0.000440
320 0.000446
321 0.000447
322 0.000447
323 0.000453
324 0.000469
325 0.000478
326 0.000476
327 0.000484
328 0.000486
329 0.000491
330 0.000491
331 0.000482
332 0.000479
333 0.000473
334 0.000471
335 0.000468
336 0.000463
337 0.000457
338 0.000448
339 0.000455
340 0.000464
341 0.000471
342 0.000484
343 0.000482
344 0.000479
345 0.000476
346 0.000472
347 0.000478
348 0.000482
349 0.000487
350 0.000496
351 0.000509
352 0.000521
353 0.000525
354 0.000536
355 0.000542
356 0.000549
357 0.000558
358 0.000566
359 0.000561
360 0.000559
361 0.000566
362 0.000585
363 0.000595
364 0.000603
365 0.000608
366 0.000604
367 0.000604
368 0.000606
369 0.000607
370 0.000609
371 0.000620
372 0.000632
373 0.000641
374 0.000648
375 0.000655
376 0.000661
377 0.000667
378 0.000668
379 0.000662
380 0.000651
381 0.000640
382 0.000635
383 0.000645
384 0.000644
385 0.000633
386 0.000629
387 0.000630
388 0.000634
389 0.000641
390 0.000641
391 0.000635
392 0.000630
393 0.000626
394 0.000626
395 0.000629
396 0.000634
397 0.000637
398 0.000637
399 0.000633
400 0.000629
401 0.000627
402 0.000623
403 0.000610
404 0.000603
405 0.000602
406 0.000600
407 0.000601
408 0.000600
409 0.000593
410 0.000595
411 0.000601
412 0.000599
413 0.000603
414 0.000602
415 0.000612
416 0.000620
417 0.000626
418 0.000624
419 0.000620
420 0.000622
421 0.000625
422 0.000630
423 0.000631
424 0.000635
425 0.000642
426 0.000652
427 0.000660
428 0.000669
429 0.000669
430 0.000661
431 0.000657
432 0.000655
433 0.000649
434 0.000639
435 0.000630
436 0.000625
437 0.000614
438 0.000609
439 0.000597
440 0.000593
441 0.000587
442 0.000597
443 0.000609
444 0.000616
445 0.000615
446 0.000623
447 0.000627
448 0.000630
449 0.000635
450 0.000629
451 0.000621
452 0.000611
453 0.000603
454 0.000603
455 0.000604
456 0.000604
457 0.000600
458 0.000597
459 0.000603
460 0.000607
461 0.000607
462 0.000600
463 0.000599
464 0.000608
465 0.000611
466 0.000610
467 0.000601
468 0.000592
469 0.000580
470 0.000569
471 0.000554
472 0.000538
473 0.000527
474 0.000509
475 0.000501
476 0.000485
477 0.000471
478 0.000461
479 0.000450
480 0.000442
481 0.000439
482 0.000430
483 0.000420
484 0.000420
485 0.000423
486 0.000427
487 0.000434
488 0.000435
489 0.000450
490 0.000453
491 0.000459
492 0.000447
493 0.000438
494 0.000441
495 0.000442
496 0.000451
497 0.000459
498 0.000467
499 0.000467
500 0.000457
501 0.000458
502 0.000467
503 0.000474
504 0.000467
505 0.000457
506 0.000459
507 0.000457
508 0.000457
509 0.000456
510 0.000459
511 0.000454
512 0.000454
513 0.000447
514 0.000436
515 0.000421
516 0.000415
517 0.000411
518 0.000400
519 0.000393
520 0.000390
521 0.000391
522 0.000391
523 0.000391
524 0.000398
525 0.000400
526 0.000411
527 0.000409
528 0.000407
529 0.000408
530 0.000405
531 0.000395
532 0.000385
533 0.000376
534 0.000365
535 0.000352
536 0.000343
537 0.000335
538 0.000326
539 0.000324
540 0.000324
541 0.000318
542 0.000320
543 0.000320
544 0.000319
545 0.000319
546 0.000331
547 0.000348
548 0.000354
549 0.000363
550 0.000375
551 0.000388
552 0.000393
553 0.000396
554 0.000394
555 0.000398
556 0.000403
557 0.000404
558 0.000400
559 0.000405
560 0.000410
561 0.000421
562 0.000429
563 0.000441
564 0.000446
565 0.000446
566 0.000449
567 0.000459
568 0.000464
569 0.000472
570 0.000483
571 0.000492
572 0.000496
573 0.000499
574 0.000496
575 0.000489
576 0.000480
577 0.000475
578 0.000463
579 0.000454
580 0.000446
581 0.000440
582 0.000429
583 0.000421
584 0.000410
585 0.000404
586 0.000397
587 0.000391
588 0.000388
589 0.000388
590 0.000387
591 0.000378
592 0.000371
593 0.000366
594 0.000359
595 0.000348
596 0.000337
597 0.000326
598 0.000317
599 0.000308
600 0.000301
601 0.000291
602 0.000283
603 0.000282
604 0.000273
605 0.000267
606 0.000259
607 0.000249
608 0.000246
609 0.000235
610 0.000232
611 0.000224
612 0.000223
613 0.000225
614 0.000230
615 0.000231
616 0.000229
617 0.000226
618 0.000230
619 0.000227
620 0.000226
621 0.000232
622 0.000233
623 0.000235
624 0.000241
625 0.000243
626 0.000240
627 0.000243
628 0.000247
629 0.000248
630 0.000239
631 0.000240
632 0.000244
633 0.000248
634 0.000246
635 0.000235
636 0.000230
637 0.000233
638 0.000231
639 0.000225
640 0.000226
641 0.000229
642 0.000225
643 0.000224
644 0.000217
645 0.000217
646 0.000212
647 0.000209
648 0.000205
649 0.000196
650 0.000194
651 0.000196
652 0.000196
653 0.000190
654 0.000184
655 0.000178
656 0.000174
657 0.000167
658 0.000157
659 0.000151
660 0.000144
661 0.000138
662 0.000137
663 0.000140
664 0.000136
665 0.000127
666 0.000121
667 0.000118
668 0.000114
669 0.000108
670 0.000102
671 0.000097
672 0.000090
673 0.000077
674 0.000068
675 0.000059
676 0.000053
677 0.000047
678 0.000038
679 0.000029
680 0.000024
681 0.000021
682 0.000017
683 0.000010
684 0.000004
685 -0.000004
686 -0.000005
687 -0.000004
688 -0.000006
689 -0.000007
690 -0.000008
691 -0.000007
692 -0.000005
693 -0.000009
694 -0.000005
695 0.000000
696 0.000005
697 0.000003
698 0.000004
699 0.000003
700 -0.000002
701 -0.000008
702 -0.000013
703 -0.000018
704 -0.000020
705 -0.000015
706 -0.000012
707 -0.000013
708 -0.000013
709 -0.000014
710 -0.000013
711 -0.000011
712 -0.000006
713 -0.000004
714 0.000001
715 0.000003
716 0.000010
717 0.000015
718 0.000018
719 0.000018
720 0.000004
721 0.000000
722 -0.000003
723 -0.000001
724 0.000002
725 0.000011
726 0.000020
727 0.000023
728 0.000026
729 0.000028
730 0.000026
731 0.000024
732 0.000031
733 0.000038
734 0.000041
735 0.000045
736 0.000045
737 0.000049
738 0.000053
739 0.000054
740 0.000059
741 0.000060
742 0.000058
743 0.000057
744 0.000057
745 0.000054
746 0.000052
747 0.000056
748 0.000059
749 0.000060
750 0.000055
751 0.000059
752 0.000066
753 0.000074
754 0.000077
755 0.000074
756 0.000075
757 0.000073
758 0.000068
759 0.000067
760 0.000069
761 0.000066
762 0.000061
763 0.000055
764 0.000052
765 0.000044
766 0.000039
767 0.000035
768 0.000030
769 0.000023
770 0.000022
771 0.000023
772 0.000026
773 0.000028
774 0.000029
775 0.000033
776 0.000036
777 0.000044
778 0.000050
779 0.000057
780 0.000060
781 0.000061
782 0.000064
783 0.000062
784 0.000063
785 0.000065
786 0.000073
787 0.000076
788 0.000081
789 0.000079
790 0.000077
791 0.000078
792 0.000078
793 0.000079
794 0.000080
795 0.000082
796 0.000083
797 0.000089
798 0.000091
799 0.000095
800 0.000098
801 0.000096
802 0.000094
803 0.000091
804 0.000088
805 0.000089
806 0.000091
807 0.000091
808 0.000092
809 0.000092
