# i correlation
1 0.002288
2 0.002176
3 0.002082
4 0.002000
5 0.001930
6 0.001883
7 0.001841
8 0.001805
9 0.001772
10 0.001744
11 0.001724
12 0.001699
13 0.001670
14 0.001628
15 0.001602
16 0.001589
17 0.001576
18 0.001559
19 0.001559
20 0.001552
21 0.001552
22 0.001558
23 0.001573
24 0.001582
25 0.001582
26 0.001583
27 0.001583
28 0.001574
29 0.001583
30 0.001592
31 0.001603
32 0.001613
33 0.001607
34 0.001601
35 0.001608
36 0.001607
37 0.001607
38 0.001614
39 0.001611
40 0.001605
41 0.001606
42 0.001606
43 0.001601
44 0.001598
45 0.001569
46 0.001544
47 0.001515
48 0.001482
49 0.001455
50 0.001427
51 0.001411
52 0.001398
53 0.001376
54 0.001352
55 0.001331
56 0.001316
57 0.001309
58 0.001307
59 0.001301
60 0.001300
61 0.001286
62 0.001276
63 0.001269
64 0.001257
65 0.001255
66 0.001255
67 0.001258
68 0.001259
69 0.001248
70 0.001239
71 0.001221
72 0.001197
73 0.001176
74 0.001173
75 0.001182
76 0.001198
77 0.001203
78 0.001205
79 0.001207
80 0.001195
81 0.001179
82 0.001167
83 0.001164
84 0.001166
85 0.001170
86 0.001173
87 0.001182
88 0.001192
89 0.001192
90 0.001197
91 0.001199
92 0.001199
93 0.001189
94 0.001180
95 0.001179
96 0.001167
97 0.001157
98 0.001152
99 0.001155
100 0.001159
101 0.001161
102 0.001150
103 0.001137
104 0.001125
105 0.001109
106 0.001104
107 0.001091
108 0.001071
109 0.001056
110 0.001040
111 0.001031
112 0.001034
113 0.001038
114 0.001037
115 0.001030
116 0.001014
117 0.000989
118 0.000988
119 0.000987
120 0.000992
121 0.000994
122 0.000996
123 0.000994
124 0.000992
125 0.000987
126 0.000982
127 0.000980
128 0.000971
129 0.000971
130 0.000972
131 0.000976
132 0.000986
133 0.000997
134 0.000999
135 0.000995
136 0.000989
137 0.000984
138 0.000970
139 0.000960
140 0.000951
141 0.000943
142 0.000933
143 0.000925
144 0.000925
145 0.000932
146 0.000931
147 0.000929
148 0.000922
149 0.000919
150 0.000928
151 0.000921
152 0.000920
153 0.000924
154 0.000919
155 0.000902
156 0.000894
157 0.000889
158 0.000897
159 0.000899
160 0.000903
161 0.000905
162 0.000915
163 0.000926
164 0.000940
165 0.000946
166 0.000957
167 0.000958
168 0.000958
169 0.000956
170 0.000947
171 0.000939
172 0.000926
173 0.000919
174 0.000906
175 0.000908
176 0.000915
177 0.000918
178 0.000921
179 0.000931
180 0.000926
181 0.000918
182 0.000907
183 0.000897
184 0.000904
185 0.000907
186 0.000900
187 0.000889
188 0.000885
189 0.000892
190 0.000906
191 0.000925
192 0.000945
193 0.000953
194 0.000962
195 0.000963
196 0.000972
197 0.000976
198 0.000971
199 0.000967
200 0.000966
201 0.000963
202 0.000967
203 0.000968
204 0.000971
205 0.000976
206 0.000969
207 0.000968
208 0.000975
209 0.000971
210 0.000971
211 0.000969
212 0.000970
213 0.000964
214 0.000952
215 0.000941
216 0.000928
217 0.000918
218 0.000902
219 0.000902
220 0.000903
221 0.000910
222 0.000909
223 0.000909
224 0.000914
225 0.000927
226 0.000941
227 0.000958
228 0.000967
229 0.000973
230 0.000961
231 0.000961
232 0.000952
233 0.000936
234 0.000924
235 0.000920
236 0.000923
237 0.000924
238 0.000919
239 0.000900
240 0.000897
241 0.000888
242 0.000883
243 0.000887
244 0.000904
245 0.000914
246 0.000926
247 0.000940
248 0.000939
249 0.000939
250 0.000934
251 0.000923
252 0.000918
253 0.000917
254 0.000924
255 0.000923
256 0.000924
257 0.000921
258 0.000914
259 0.000902
260 0.000881
261 0.000858
262 0.000842
263 0.000833
264 0.000831
265 0.000825
266 0.000828
267 0.000838
268 0.000852
269 0.000871
270 0.000886
271 0.000900
272 0.000901
273 0.000890
274 0.000881
275 0.000877
276 0.000877
277 0.000867
278 0.000857
279 0.000858
280 0.000850
281 0.000837
282 0.000828
283 0.000812
284 0.000801
285 0.000790
286 0.000779
287 0.000783
288 0.000782
289 0.000781
290 0.000769
291 0.000769
292 0.000766
293 0.000760
294 0.000758
295 0.000761
296 0.000761
297 0.000767
298 0.000776
299 0.000775
300 0.000774
301 0.000766
302 0.000754
303 0.000748
304 0.000737
305 0.000735
306 0.000735
307 0.000728
308 0.000727
309 0.000724
310 0.000715
311 0.000718
312 0.000720
313 0.000722
314 0.000716
315 0.000717
316 0.000718
317 0.000717
318 0.000713
319 0.000696
320 0.000682
321 0.000674
322 0.000663
323 0.000659
324 0.000656
325 0.000654
326 0.000647
327 0.000640
328 0.000641
329 0.000648
330 0.000643
331 0.000643
332 0.000639
333 0.000629
334 0.000622
335 0.000617
336 0.000604
337 0.000596
338 0.000595
339 0.000600
340 0.000604
341 0.000614
342 0.000624
343 0.000623
344 0.000627
345 0.000632
346 0.000629
347 0.000624
348 0.000609
349 0.000597
350 0.000589
351 0.000574
352 0.000568
353 0.000570
354 0.000580
355 0.000596
356 0.000608
357 0.000619
358 0.000630
359 0.000632
360 0.000629
361 0.000628
362 0.000626
363 0.000633
364 0.000634
365 0.000635
366 0.000631
367 0.000625
368 0.000623
369 0.000615
370 0.000613
371 0.000611
372 0.000600
373 0.000590
374 0.000582
375 0.000576
376 0.000579
377 0.000585
378 0.000598
379 0.000598
380 0.000591
381 0.000596
382 0.000600
383 0.000610
384 0.000605
385 0.000600
386 0.000595
387 0.000595
388 0.000584
389 0.000578
390 0.000575
391 0.000575
392 0.000577
393 0.000583
394 0.000595
395 0.000603
396 0.000608
397 0.000615
398 0.000620
399 0.000623
400 0.000623
401 0.000622
402 0.000616
403 0.000611
404 0.000610
405 0.000609
406 0.000608
407 0.000612
408 0.000614
409 0.000607
410 0.000609
411 0.000606
412 0.000608
413 0.000598
414 0.000579
415 0.000564
416 0.000562
417 0.000561
418 0.000556
419 0.000553
420 0.000553
421 0.000560
422 0.000563
423 0.000567
424 0.000579
425 0.000581
426 0.000569
427 0.000549
428 0.000531
429 0.000526
430 0.000527
431 0.000526
432 0.000527
433 0.000527
434 0.000529
435 0.000536
436 0.000550
437 0.000555
438 0.000562
439 0.000560
440 0.000551
441 0.000544
442 0.000545
443 0.000551
444 0.000554
445 0.000559
446 0.000572
447 0.000588
448 0.000603
449 0.000606
450 0.000606
451 0.000603
452 0.000592
453 0.000584
454 0.000581
455 0.000586
456 0.000591
457 0.000587
458 0.000586
459 0.000583
460 0.000571
461 0.000566
462 0.000559
463 0.000555
464 0.000539
465 0.000529
466 0.000523
467 0.000517
468 0.000517
469 0.000514
470 0.000502
471 0.000490
472 0.000480
473 0.000477
474 0.000471
475 0.000471
476 0.000474
477 0.000474
478 0.000479
479 0.000491
480 0.000496
481 0.000497
482 0.000502
483 0.000505
484 0.000501
485 0.000494
486 0.000483
487 0.000473
488 0.000468
489 0.000462
490 0.000465
491 0.000458
492 0.000462
493 0.000462
494 0.000465
495 0.000460
496 0.000462
497 0.000460
498 0.000456
499 0.000462
500 0.000465
501 0.000464
502 0.000461
503 0.000460
504 0.000458
505 0.000454
506 0.000444
507 0.000434
508 0.000415
509 0.000393
510 0.000372
511 0.000361
512 0.000341
513 0.000322
514 0.000308
515 0.000293
516 0.000288
517 0.000283
518 0.000281
519 0.000277
520 0.000265
521 0.000253
522 0.000243
523 0.000246
524 0.000244
525 0.000250
526 0.000267
527 0.000277
528 0.000282
529 0.000280
530 0.000274
531 0.000270
532 0.000263
533 0.000253
534 0.000250
535 0.000248
536 0.000250
537 0.000252
538 0.000251
539 0.000248
540 0.000240
541 0.000228
542 0.000227
543 0.000229
544 0.000236
545 0.000248
546 0.000256
547 0.000259
548 0.000257
549 0.000258
550 0.000259
551 0.000260
552 0.000256
553 0.000250
554 0.000239
555 0.000233
556 0.000229
557 0.000222
558 0.000224
559 0.000216
560 0.000213
561 0.000208
562 0.000213
563 0.000211
564 0.000214
565 0.000210
566 0.000204
567 0.000201
568 0.000199
569 0.000203
570 0.000207
571 0.000213
572 0.000210
573 0.000199
574 0.000189
575 0.000187
576 0.000180
577 0.000177
578 0.000175
579 0.000166
580 0.000159
581 0.000157
582 0.000157
583 0.000160
584 0.000157
585 0.000154
586 0.000151
587 0.000153
588 0.000168
589 0.000183
590 0.000195
591 0.000209
592 0.000215
593 0.000220
594 0.000228
595 0.000232
596 0.000237
597 0.000242
598 0.000240
599 0.000235
600 0.000232
601 0.000226
602 0.000225
603 0.000223
604 0.000223
605 0.000222
606 0.000218
607 0.000212
608 0.000203
609 0.000197
610 0.000194
611 0.000182
612 0.000178
613 0.000175
614 0.000174
615 0.000177
616 0.000181
617 0.000171
618 0.000164
619 0.000151
620 0.000144
621 0.000137
622 0.000136
623 0.000139
624 0.000141
625 0.000135
626 0.000138
627 0.000145
628 0.000140
629 0.000145
630 0.000147
631 0.000151
632 0.000160
633 0.000169
634 0.000179
635 0.000183
636 0.000180
637 0.000182
638 0.000178
639 0.000178
640 0.000181
641 0.000188
642 0.000191
643 0.000193
644 0.000188
645 0.000180
646 0.000177
647 0.000171
648 0.000171
649 0.000163
650 0.000162
651 0.000164
652 0.000171
653 0.000177
654 0.000179
655 0.000178
656 0.000171
657 0.000169
658 0.000171
659 0.000176
660 0.000169
661 0.000164
662 0.000157
663 0.000149
664 0.000144
665 0.000144
666 0.000141
667 0.000141
668 0.000138
669 0.000136
670 0.000144
671 0.000144
672 0.000141
673 0.000144
674 0.000151
675 0.000154
676 0.000165
677 0.000167
678 0.000169
679 0.000172
680 0.000175
681 0.000176
682 0.000182
683 0.000190
684 0.000201
685 0.000206
686 0.000209
687 0.000209
688 0.000206
689 0.000203
690 0.000207
691 0.000209
692 0.000214
693 0.000218
694 0.000225
695 0.000233
696 0.000240
697 0.000244
698 0.000238
699 0.000235
700 0.000238
701 0.000239
702 0.000241
703 0.000246
704 0.000242
705 0.000238
706 0.000233
707 0.000225
708 0.000220
709 0.000216
710 0.000215
711 0.000220
712 0.000223
713 0.000217
714 0.000210
715 0.000204
716 0.000199
717 0.000200
718 0.000203
719 0.000206
720 0.000212
721 0.000218
722 0.000228
723 0.000236
724 0.000243
725 0.000250
726 0.000256
727 0.000262
728 0.000267
729 0.000270
730 0.000275
731 0.000279
732 0.000277
733 0.000276
734 0.000275
735 0.000272
736 0.000271
737 0.000273
738 0.000268
739 0.000260
740 0.000257
741 0.000256
742 0.000255
743 0.000252
744 0.000243
745 0.000229
746 0.000217
747 0.000211
748 0.000203
749 0.000198
750 0.000190
751 0.000180
752 0.000171
753 0.000166
754 0.000171
755 0.000175
756 0.000179
757 0.000177
758 0.000175
759 0.000171
760 0.000172
761 0.000178
762 0.000180
763 0.000185
764 0.000193
765 0.000195
766 0.000202
767 0.000201
768 0.000200
769 0.000194
770 0.000186
771 0.000179
772 0.000175
773 0.000173
774 0.000174
775 0.000173
776 0.000171
777 0.000168
778 0.000165
779 0.000160
780 0.000156
781 0.000150
782 0.000140
783 0.000131
784 0.000118
785 0.000108
786 0.000097
787 0.000089
788 0.000084
789 0.000078
790 0.000074
791 0.000073
792 0.000064
793 0.000061
794 0.000060
795 0.000058
796 0.000060
797 0.000068
798 0.000074
799 0.000080
800 0.000089
801 0.000094
802 0.000100
803 0.000106
804 0.000108
805 0.000109
806 0.000111
807 0.000115
808 0.000117
809 0.000116
