# i correlation
1 0.002354
2 0.002238
3 0.002152
4 0.002069
5 0.002005
6 0.001949
7 0.001901
8 0.001857
9 0.001815
10 0.001781
11 0.001742
12 0.001709
13 0.001675
14 0.001637
15 0.001606
16 0.001573
17 0.001548
18 0.001526
19 0.001493
20 0.001457
21 0.001427
22 0.001405
23 0.001391
24 0.001391
25 0.001386
26 0.001374
27 0.001348
28 0.001325
29 0.001297
30 0.001268
31 0.001250
32 0.001231
33 0.001230
34 0.001237
35 0.001227
36 0.001217
37 0.001208
38 0.001196
39 0.001180
40 0.001165
41 0.001151
42 0.001145
43 0.001145
44 0.001140
45 0.001133
46 0.001120
47 0.001107
48 0.001091
49 0.001088
50 0.001085
51 0.001085
52 0.001090
53 0.001085
54 0.001076
55 0.001070
56 0.001055
57 0.001057
58 0.001068
59 0.001077
60 0.001096
61 0.001099
62 0.001115
63 0.001127
64 0.001131
65 0.001134
66 0.001128
67 0.001131
68 0.001121
69 0.001127
70 0.001138
71 0.001149
72 0.001159
73 0.001160
74 0.001145
75 0.001127
76 0.001114
77 0.001101
78 0.001088
79 0.001070
80 0.001045
81 0.001026
82 0.001012
83 0.000997
84 0.000994
85 0.000991
86 0.000987
87 0.000970
88 0.000958
89 0.000940
90 0.000908
91 0.000888
92 0.000868
93 0.000850
94 0.000845
95 0.000854
96 0.000869
97 0.000879
98 0.000880
99 0.000871
100 0.000872
101 0.000879
102 0.000888
103 0.000901
104 0.000911
105 0.000911
106 0.000905
107 0.000901
108 0.000895
109 0.000887
110 0.000879
111 0.000870
112 0.000870
113 0.000868
114 0.000862
115 0.000853
116 0.000852
117 0.000858
118 0.000859
119 0.000864
120 0.000873
121 0.000872
122 0.000875
123 0.000869
124 0.000852
125 0.000844
126 0.000828
127 0.000817
128 0.000796
129 0.000783
130 0.000777
131 0.000772
132 0.000773
133 0.000775
134 0.000780
135 0.000772
136 0.000776
137 0.000792
138 0.000808
139 0.000813
140 0.000819
141 0.000821
142 0.000809
143 0.000794
144 0.000806
145 0.000809
146 0.000807
147 0.000810
148 0.000817
149 0.000820
150 0.000820
151 0.000817
152 0.000804
153 0.000788
154 0.000775
155 0.000764
156 0.000752
157 0.000744
158 0.000749
159 0.000744
160 0.000738
161 0.000732
162 0.000722
163 0.000705
164 0.000687
165 0.000678
166 0.000678
167 0.000683
168 0.000688
169 0.000696
170 0.000718
171 0.000732
172 0.000731
173 0.000727
174 0.000723
175 0.000722
176 0.000729
177 0.000729
178 0.000725
179 0.000727
180 0.000741
181 0.000750
182 0.000762
183 0.000772
184 0.000787
185 0.000796
186 0.000808
187 0.000817
188 0.000817
189 0.000816
190 0.000821
191 0.000816
192 0.000815
193 0.000809
194 0.000810
195 0.000807
196 0.000809
197 0.000819
198 0.000821
199 0.000830
200 0.000835
201 0.000830
202 0.000827
203 0.000824
204 0.000830
205 0.000825
206 0.000814
207 0.000812
208 0.000806
209 0.000801
210 0.000804
211 0.000799
212 0.000792
213 0.000784
214 0.000777
215 0.000771
216 0.000771
217 0.000774
218 0.000781
219 0.000778
220 0.000775
221 0.000773
222 0.000781
223 0.000786
224 0.000791
225 0.000808
226 0.000811
227 0.000808
228 0.000812
229 0.000814
230 0.000813
231 0.000801
232 0.000783
233 0.000770
234 0.000759
235 0.000746
236 0.000739
237 0.000736
238 0.000724
239 0.000713
240 0.000700
241 0.000689
242 0.000693
243 0.000707
244 0.000720
245 0.000728
246 0.000735
247 0.000744
248 0.000750
249 0.000750
250 0.000745
251 0.000739
252 0.000734
253 0.000735
254 0.000744
255 0.000750
256 0.000756
257 0.000756
258 0.000758
259 0.000763
260 0.000751
261 0.000747
262 0.000747
263 0.000731
264 0.000707
265 0.000688
266 0.000672
267 0.000667
268 0.000668
269 0.000655
270 0.000648
271 0.000656
272 0.000669
273 0.000681
274 0.000686
275 0.000692
276 0.000696
277 0.000699
278 0.000709
279 0.000711
280 0.000713
281 0.000718
282 0.000727
283 0.000729
284 0.000733
285 0.000742
286 0.000748
287 0.000753
288 0.000768
289 0.000778
290 0.000786
291 0.000792
292 0.000795
293 0.000797
294 0.000812
295 0.000823
296 0.000830
297 0.000828
298 0.000830
299 0.000834
300 0.000836
301 0.000829
302 0.000832
303 0.000834
304 0.000831
305 0.000825
306 0.000829
307 0.000846
308 0.000859
309 0.000862
310 0.000864
311 0.000866
312 0.000854
313 0.000843
314 0.000834
315 0.000828
316 0.000810
317 0.000790
318 0.000772
319 0.000767
320 0.000767
321 0.000767
322 0.000767
323 0.000758
324 0.000747
325 0.000733
326 0.000727
327 0.000721
328 0.000714
329 0.000716
330 0.000716
331 0.000717
332 0.000722
333 0.000719
334 0.000720
335 0.000711
336 0.000694
337 0.000682
338 0.000672
339 0.000654
340 0.000641
341 0.000646
342 0.000652
343 0.000649
344 0.000647
345 0.000650
346 0.000654
347 0.000662
348 0.000673
349 0.000679
350 0.000689
351 0.000695
352 0.000698
353 0.000703
354 0.000708
355 0.000718
356 0.000732
357 0.000739
358 0.000751
359 0.000752
360 0.000753
361 0.000747
362 0.000737
363 0.000729
364 0.000721
365 0.000720
366 0.000733
367 0.000747
368 0.000760
369 0.000770
370 0.000770
371 0.000768
372 0.000760
373 0.000747
374 0.000734
375 0.000731
376 0.000722
377 0.000711
378 0.000700
379 0.000687
380 0.000683
381 0.000678
382 0.000680
383 0.000681
384 0.000684
385 0.000685
386 0.000686
387 0.000687
388 0.000672
389 0.000652
390 0.000634
391 0.000624
392 0.000631
393 0.000633
394 0.000644
395 0.000653
396 0.000661
397 0.000662
398 0.000655
399 0.000654
400 0.000655
401 0.000655
402 0.000655
403 0.000655
404 0.000650
405 0.000645
406 0.000637
407 0.000631
408 0.000622
409 0.000605
410 0.000594
411 0.000577
412 0.000573
413 0.000568
414 0.000558
415 0.000557
416 0.000562
417 0.000559
418 0.000561
419 0.000562
420 0.000572
421 0.000578
422 0.000581
423 0.000579
424 0.000574
425 0.000578
426 0.000581
427 0.000590
428 0.000597
429 0.000612
430 0.000623
431 0.000620
432 0.000617
433 0.000614
434 0.000613
435 0.000597
436 0.000577
437 0.000560
438 0.000553
439 0.000554
440 0.000558
441 0.000557
442 0.000553
443 0.000543
444 0.000540
445 0.000534
446 0.000529
447 0.000526
448 0.000519
449 0.000524
450 0.000512
451 0.000497
452 0.000502
453 0.000501
454 0.000502
455 0.000504
456 0.000504
457 0.000504
458 0.000502
459 0.000504
460 0.000493
461 0.000477
462 0.000463
463 0.000445
464 0.000432
465 0.000422
466 0.000409
467 0.000403
468 0.000398
469 0.000387
470 0.000378
471 0.000367
472 0.000363
473 0.000355
474 0.000345
475 0.000345
476 0.000336
477 0.000323
478 0.000320
479 0.000316
480 0.000319
481 0.000318
482 0.000309
483 0.000306
484 0.000302
485 0.000301
486 0.000308
487 0.000316
488 0.000322
489 0.000325
490 0.000327
491 0.000329
492 0.000332
493 0.000340
494 0.000341
495 0.000330
496 0.000319
497 0.000308
498 0.000303
499 0.000303
500 0.000299
501 0.000298
502 0.000300
503 0.000303
504 0.000320
505 0.000334
506 0.000340
507 0.000348
508 0.000337
509 0.000325
510 0.000321
511 0.000314
512 0.000310
513 0.000308
514 0.000304
515 0.000297
516 0.000296
517 0.000295
518 0.000300
519 0.000313
520 0.000318
521 0.000324
522 0.000327
523 0.000324
524 0.000329
525 0.000334
526 0.000337
527 0.000342
528 0.000350
529 0.000361
530 0.000375
531 0.000388
532 0.000401
533 0.000410
534 0.000411
535 0.000409
536 0.000402
537 0.000404
538 0.000410
539 0.000407
540 0.000409
541 0.000413
542 0.000413
543 0.000410
544 0.000412
545 0.000414
546 0.000415
547 0.000419
548 0.000416
549 0.000413
550 0.000413
551 0.000401
552 0.000393
553 0.000394
554 0.000399
555 0.000401
556 0.000404
557 0.000411
558 0.000404
559 0.000395
560 0.000383
561 0.000372
562 0.000369
563 0.000366
564 0.000359
565 0.000355
566 0.000357
567 0.000359
568 0.000355
569 0.000351
570 0.000349
571 0.000344
572 0.000339
573 0.000333
574 0.000334
575 0.000339
576 0.000344
577 0.000343
578 0.000342
579 0.000343
580 0.000347
581 0.000346
582 0.000350
583 0.000354
584 0.000355
585 0.000351
586 0.000350
587 0.000350
588 0.000347
589 0.000349
590 0.000356
591 0.000365
592 0.000376
593 0.000386
594 0.000392
595 0.000389
596 0.000389
597 0.000394
598 0.000395
599 0.000399
600 0.000416
601 0.000429
602 0.000439
603 0.000448
604 0.000460
605 0.000474
606 0.000486
607 0.000502
608 0.000513
609 0.000526
610 0.000533
611 0.000532
612 0.000524
613 0.000509
614 0.000501
615 0.000497
616 0.000493
617 0.000489
618 0.000472
619 0.000463
620 0.000463
621 0.000459
622 0.000453
623 0.000441
624 0.000429
625 0.000414
626 0.000407
627 0.000400
628 0.000391
629 0.000388
630 0.000385
631 0.000380
632 0.000373
633 0.000373
634 0.000372
635 0.000362
636 0.000351
637 0.000337
638 0.000323
639 0.000314
640 0.000301
641 0.000296
642 0.000293
643 0.000298
644 0.000314
645 0.000328
646 0.000341
647 0.000344
648 0.000343
649 0.000343
650 0.000343
651 0.000344
652 0.000343
653 0.000339
654 0.000340
655 0.000337
656 0.000333
657 0.000336
658 0.000338
659 0.000343
660 0.000344
661 0.000339
662 0.000335
663 0.000326
664 0.000321
665 0.000314
666 0.000307
667 0.000302
668 0.000289
669 0.000286
670 0.000284
671 0.000283
672 0.000282
673 0.000277
674 0.000275
675 0.000275
676 0.000273
677 0.000274
678 0.000279
679 0.000285
680 0.000290
681 0.000289
682 0.000292
683 0.000288
684 0.000286
685 0.000280
686 0.000275
687 0.000270
688 0.000268
689 0.000255
690 0.000239
691 0.000223
692 0.000205
693 0.000191
694 0.000176
695 0.000163
696 0.000148
697 0.000135
698 0.000124
699 0.000104
700 0.000085
701 0.000078
702 0.000071
703 0.000064
704 0.000056
705 0.000049
706 0.000042
707 0.000038
708 0.000034
709 0.000030
710 0.000028
711 0.000030
712 0.000033
713 0.000034
714 0.000035
715 0.000037
716 0.000042
717 0.000049
718 0.000055
719 0.000057
720 0.000064
721 0.000067
722 0.000069
723 0.000067
724 0.000071
725 0.000081
726 0.000085
727 0.000087
728 0.000090
729 0.000096
730 0.000101
731 0.000110
732 0.000110
733 0.000115
734 0.000120
735 0.000121
736 0.000122
737 0.000122
738 0.000124
739 0.000118
740 0.000113
741 0.000111
742 0.000110
743 0.000110
744 0.000104
745 0.000094
746 0.000086
747 0.000083
748 0.000084
749 0.000085
750 0.000085
751 0.000087
752 0.000086
753 0.000092
754 0.000096
755 0.000102
756 0.000106
757 0.000102
758 0.000095
759 0.000093
760 0.000092
761 0.000091
762 0.000086
763 0.000085
764 0.000083
765 0.000076
766 0.000073
767 0.000072
768 0.000069
769 0.000062
770 0.000056
771 0.000049
772 0.000046
773 0.000037
774 0.000030
775 0.000026
776 0.000021
777 0.000018
778 0.000020
779 0.000018
780 0.000018
781 0.000018
782 0.000018
783 0.000022
784 0.000028
785 0.000028
786 0.000025
787 0.000026
788 0.000028
789 0.000029
790 0.000033
791 0.000038
792 0.000038
793 0.000043
794 0.000049
795 0.000052
796 0.000062
797 0.000069
798 0.000074
799 0.000079
800 0.000084
801 0.000086
802 0.000086
803 0.000083
804 0.000083
805 0.000083
806 0.000085
807 0.000085
808 0.000079
809 0.000073
