# i correlation
1 0.002191
2 0.002053
3 0.001946
4 0.001854
5 0.001788
6 0.001739
7 0.001701
8 0.001680
9 0.001646
10 0.001604
11 0.001586
12 0.001565
13 0.001546
14 0.001523
15 0.001510
16 0.001504
17 0.001503
18 0.001502
19 0.001508
20 0.001500
21 0.001491
22 0.001475
23 0.001454
24 0.001431
25 0.001413
26 0.001391
27 0.001378
28 0.001375
29 0.001378
30 0.001394
31 0.001402
32 0.001412
33 0.001441
34 0.001460
35 0.001469
36 0.001465
37 0.001450
38 0.001431
39 0.001412
40 0.001397
41 0.001384
42 0.001379
43 0.001369
44 0.001347
45 0.001321
46 0.001308
47 0.001292
48 0.001286
49 0.001289
50 0.001308
51 0.001332
52 0.001361
53 0.001369
54 0.001369
55 0.001366
56 0.001366
57 0.001362
58 0.001369
59 0.001376
60 0.001373
61 0.001362
62 0.001342
63 0.001328
64 0.001324
65 0.001328
66 0.001326
67 0.001322
68 0.001318
69 0.001323
70 0.001330
71 0.001336
72 0.001340
73 0.001333
74 0.001329
75 0.001331
76 0.001342
77 0.001352
78 0.001341
79 0.001327
80 0.001302
81 0.001270
82 0.001243
83 0.001228
84 0.001225
85 0.001237
86 0.001243
87 0.001237
88 0.001243
89 0.001254
90 0.001249
91 0.001238
92 0.001234
93 0.001229
94 0.001230
95 0.001230
96 0.001235
97 0.001243
98 0.001238
99 0.001216
100 0.001194
101 0.001178
102 0.001171
103 0.001162
104 0.001153
105 0.001152
106 0.001153
107 0.001144
108 0.001143
109 0.001154
110 0.001167
111 0.001173
112 0.001166
113 0.001150
114 0.001141
115 0.001135
116 0.001119
117 0.001113
118 0.001126
119 0.001143
120 0.001144
121 0.001140
122 0.001142
123 0.001144
124 0.001145
125 0.001145
126 0.001146
127 0.001167
128 0.001189
129 0.001213
130 0.001225
131 0.001244
132 0.001250
133 0.001241
134 0.001224
135 0.001209
136 0.001193
137 0.001177
138 0.001166
139 0.001153
140 0.001144
141 0.001142
142 0.001135
143 0.001127
144 0.001128
145 0.001125
146 0.001122
147 0.001118
148 0.001123
149 0.001129
150 0.001128
151 0.001108
152 0.001094
153 0.001088
154 0.001078
155 0.001076
156 0.001067
157 0.001052
158 0.001037
159 0.001010
160 0.000999
161 0.001012
162 0.001033
163 0.001053
164 0.001061
165 0.001058
166 0.001048
167 0.001034
168 0.001015
169 0.001008
170 0.001001
171 0.000997
172 0.000990
173 0.000981
174 0.000981
175 0.000979
176 0.000966
177 0.000948
178 0.000941
179 0.000936
180 0.000934
181 0.000944
182 0.000951
183 0.000967
184 0.000976
185 0.000972
186 0.000968
187 0.000951
188 0.000937
189 0.000925
190 0.000920
191 0.000923
192 0.000925
193 0.000911
194 0.000910
195 0.000905
196 0.000893
197 0.000888
198 0.000881
199 0.000881
200 0.000882
201 0.000866
202 0.000848
203 0.000838
204 0.000826
205 0.000821
206 0.000818
207 0.000826
208 0.000829
209 0.000830
210 0.000817
211 0.000796
212 0.000771
213 0.000755
214 0.000753
215 0.000767
216 0.000779
217 0.000787
218 0.000791
219 0.000794
220 0.000801
221 0.000812
222 0.000824
223 0.000821
224 0.000826
225 0.000851
226 0.000867
227 0.000885
228 0.000897
229 0.000908
230 0.000913
231 0.000903
232 0.000880
233 0.000865
234 0.000865
235 0.000857
236 0.000836
237 0.000823
238 0.000821
239 0.000813
240 0.000808
241 0.000809
242 0.000817
243 0.000814
244 0.000803
245 0.000793
246 0.000798
247 0.000804
248 0.000799
249 0.000797
250 0.000804
251 0.000819
252 0.000828
253 0.000830
254 0.000814
255 0.000799
256 0.000786
257 0.000781
258 0.000785
259 0.000803
260 0.000818
261 0.000828
262 0.000825
263 0.000823
264 0.000814
265 0.000806
266 0.000791
267 0.000769
268 0.000756
269 0.000745
270 0.000741
271 0.000740
272 0.000739
273 0.000740
274 0.000740
275 0.000732
276 0.000727
277 0.000727
278 0.000724
279 0.000727
280 0.000736
281 0.000746
282 0.000745
283 0.000745
284 0.000748
285 0.000754
286 0.000755
287 0.000745
288 0.000738
289 0.000738
290 0.000733
291 0.000725
292 0.000723
293 0.000718
294 0.000724
295 0.000729
296 0.000728
297 0.000725
298 0.000729
299 0.000742
300 0.000756
301 0.000762
302 0.000761
303 0.000761
304 0.000759
305 0.000769
306 0.000777
307 0.000782
308 0.000781
309 0.000772
310 0.000762
311 0.000756
312 0.000743
313 0.000747
314 0.000737
315 0.000717
316 0.000700
317 0.000686
318 0.000675
319 0.000679
320 0.000679
321 0.000675
322 0.000667
323 0.000657
324 0.000653
325 0.000643
326 0.000641
327 0.000648
328 0.000657
329 0.000663
330 0.000663
331 0.000662
332 0.000662
333 0.000644
334 0.000633
335 0.000625
336 0.000629
337 0.000629
338 0.000632
339 0.000633
340 0.000641
341 0.000633
342 0.000619
343 0.000615
344 0.000616
345 0.000617
346 0.000612
347 0.000609
348 0.000609
349 0.000624
350 0.000636
351 0.000635
352 0.000631
353 0.000619
354 0.000602
355 0.000588
356 0.000584
357 0.000602
358 0.000616
359 0.000623
360 0.000633
361 0.000637
362 0.000643
363 0.000650
364 0.000648
365 0.000652
366 0.000655
367 0.000640
368 0.000627
369 0.000630
370 0.000635
371 0.000637
372 0.000629
373 0.000618
374 0.000606
375 0.000594
376 0.000577
377 0.000566
378 0.000573
379 0.000578
380 0.000603
381 0.000618
382 0.000631
383 0.000643
384 0.000653
385 0.000663
386 0.000660
387 0.000654
388 0.000645
389 0.000636
390 0.000643
391 0.000646
392 0.000654
393 0.000659
394 0.000655
395 0.000646
396 0.000646
397 0.000643
398 0.000644
399 0.000648
400 0.000653
401 0.000657
402 0.000654
403 0.000657
404 0.000667
405 0.000667
406 0.000656
407 0.000639
408 0.000627
409 0.000620
410 0.000605
411 0.000588
412 0.000567
413 0.000550
414 0.000537
415 0.000535
416 0.000535
417 0.000539
418 0.000530
419 0.000521
420 0.000519
421 0.000529
422 0.000550
423 0.000565
424 0.000569
425 0.000578
426 0.000585
427 0.000584
428 0.000586
429 0.000588
430 0.000582
431 0.000574
432 0.000567
433 0.000553
434 0.000554
435 0.000559
436 0.000568
437 0.000585
438 0.000599
439 0.000604
440 0.000609
441 0.000603
442 0.000598
443 0.000586
444 0.000581
445 0.000582
446 0.000594
447 0.000595
448 0.000588
449 0.000584
450 0.000582
451 0.000574
452 0.000565
453 0.000551
454 0.000537
455 0.000538
456 0.000540
457 0.000549
458 0.000559
459 0.000570
460 0.000577
461 0.000582
462 0.000584
463 0.000592
464 0.000587
465 0.000577
466 0.000558
467 0.000550
468 0.000548
469 0.000551
470 0.000547
471 0.000538
472 0.000529
473 0.000522
474 0.000527
475 0.000531
476 0.000541
477 0.000543
478 0.000545
479 0.000539
480 0.000545
481 0.000554
482 0.000553
483 0.000545
484 0.000538
485 0.000530
486 0.000520
487 0.000506
488 0.000497
489 0.000493
490 0.000490
491 0.000482
492 0.000487
493 0.000503
494 0.000515
495 0.000521
496 0.000512
497 0.000496
498 0.000488
499 0.000486
500 0.000486
501 0.000488
502 0.000486
503 0.000483
504 0.000480
505 0.000481
506 0.000477
507 0.000477
508 0.000467
509 0.000452
510 0.000449
511 0.000447
512 0.000447
513 0.000451
514 0.000463
515 0.000482
516 0.000494
517 0.000494
518 0.000494
519 0.000501
520 0.000507
521 0.000510
522 0.000507
523 0.000516
524 0.000524
525 0.000524
526 0.000539
527 0.000553
528 0.000571
529 0.000585
530 0.000591
531 0.000591
532 0.000595
533 0.000602
534 0.000621
535 0.000634
536 0.000642
537 0.000641
538 0.000634
539 0.000621
540 0.000602
541 0.000583
542 0.000563
543 0.000542
544 0.000521
545 0.000504
546 0.000487
547 0.000477
548 0.000466
549 0.000452
550 0.000445
551 0.000439
552 0.000432
553 0.000433
554 0.000440
555 0.000444
556 0.000450
557 0.000453
558 0.000459
559 0.000470
560 0.000477
561 0.000483
562 0.000482
563 0.000478
564 0.000474
565 0.000475
566 0.000489
567 0.000500
568 0.000498
569 0.000501
570 0.000504
571 0.000505
572 0.000503
573 0.000496
574 0.000483
575 0.000477
576 0.000464
577 0.000444
578 0.000441
579 0.000443
580 0.000444
581 0.000443
582 0.000436
583 0.000427
584 0.000431
585 0.000434
586 0.000429
587 0.000430
588 0.000427
589 0.000426
590 0.000429
591 0.000437
592 0.000447
593 0.000452
594 0.000447
595 0.000444
596 0.000440
597 0.000429
598 0.000416
599 0.000410
600 0.000409
601 0.000403
602 0.000393
603 0.000379
604 0.000365
605 0.000356
606 0.000350
607 0.000348
608 0.000354
609 0.000365
610 0.000366
611 0.000368
612 0.000377
613 0.000386
614 0.000383
615 0.000375
616 0.000365
617 0.000356
618 0.000342
619 0.000328
620 0.000317
621 0.000311
622 0.000306
623 0.000303
624 0.000299
625 0.000298
626 0.000299
627 0.000304
628 0.000316
629 0.000323
630 0.000333
631 0.000341
632 0.000346
633 0.000347
634 0.000342
635 0.000333
636 0.000323
637 0.000310
638 0.000299
639 0.000290
640 0.000279
641 0.000277
642 0.000277
643 0.000277
644 0.000280
645 0.000287
646 0.000290
647 0.000293
648 0.000295
649 0.000298
650 0.000300
651 0.000303
652 0.000304
653 0.000303
654 0.000291
655 0.000281
656 0.000275
657 0.000276
658 0.000271
659 0.000267
660 0.000265
661 0.000271
662 0.000274
663 0.000277
664 0.000289
665 0.000300
666 0.000310
667 0.000313
668 0.000318
669 0.000319
670 0.000313
671 0.000301
672 0.000291
673 0.000276
674 0.000265
675 0.000254
676 0.000245
677 0.000242
678 0.000243
679 0.000243
680 0.000238
681 0.000238
682 0.000241
683 0.000244
684 0.000251
685 0.000261
686 0.000266
687 0.000274
688 0.000282
689 0.000289
690 0.000298
691 0.000304
692 0.000301
693 0.000297
694 0.000292
695 0.000282
696 0.000270
697 0.000265
698 0.000266
699 0.000270
700 0.000280
701 0.000287
702 0.000292
703 0.000301
704 0.000302
705 0.000294
706 0.000283
707 0.000271
708 0.000255
709 0.000242
710 0.000238
711 0.000236
712 0.000238
713 0.000227
714 0.000220
715 0.000215
716 0.000213
717 0.000213
718 0.000213
719 0.000213
720 0.000223
721 0.000231
722 0.000234
723 0.000233
724 0.000228
725 0.000220
726 0.000210
727 0.000200
728 0.000194
729 0.000181
730 0.000167
731 0.000153
732 0.000135
733 0.000121
734 0.000107
735 0.000095
736 0.000086
737 0.000079
738 0.000066
739 0.000057
740 0.000051
741 0.000042
742 0.000040
743 0.000035
744 0.000028
745 0.000026
746 0.000024
747 0.000018
748 0.000012
749 0.000005
750 0.000004
751 0.000009
752 0.000013
753 0.000023
754 0.000036
755 0.000049
756 0.000057
757 0.000061
758 0.000067
759 0.000072
760 0.000072
761 0.000080
762 0.000087
763 0.000095
764 0.000099
765 0.000102
766 0.000100
767 0.000096
768 0.000090
769 0.000084
770 0.000081
771 0.000074
772 0.000068
773 0.000064
774 0.000056
775 0.000054
776 0.000058
777 0.000061
778 0.000060
779 0.000060
780 0.000063
781 0.000067
782 0.000063
783 0.000056
784 0.000051
785 0.000046
786 0.000046
787 0.000048
788 0.000053
789 0.000065
790 0.000072
791 0.000079
792 0.000083
793 0.000086
794 0.000089
795 0.000099
796 0.000104
797 0.000109
798 0.000108
799 0.000097
800 0.000089
801 0.000077
802 0.000066
803 0.000055
804 0.000045
805 0.000035
806 0.000032
807 0.000029
808 0.000026
809 0.000029
