# i correlation
1 0.002131
2 0.002019
3 0.001939
4 0.001871
5 0.001812
6 0.001767
7 0.001729
8 0.001698
9 0.001671
10 0.001655
11 0.001648
12 0.001641
13 0.001630
14 0.001616
15 0.001606
16 0.001589
17 0.001567
18 0.001529
19 0.001495
20 0.001476
21 0.001459
22 0.001453
23 0.001440
24 0.001414
25 0.001391
26 0.001368
27 0.001355
28 0.001342
29 0.001322
30 0.001292
31 0.001264
32 0.001252
33 0.001244
34 0.001236
35 0.001228
36 0.001232
37 0.001233
38 0.001230
39 0.001232
40 0.001239
41 0.001248
42 0.001247
43 0.001242
44 0.001224
45 0.001217
46 0.001206
47 0.001195
48 0.001185
49 0.001189
50 0.001193
51 0.001201
52 0.001207
53 0.001217
54 0.001233
55 0.001246
56 0.001256
57 0.001259
58 0.001258
59 0.001251
60 0.001239
61 0.001234
62 0.001228
63 0.001221
64 0.001223
65 0.001210
66 0.001199
67 0.001183
68 0.001167
69 0.001161
70 0.001162
71 0.001159
72 0.001157
73 0.001151
74 0.001149
75 0.001152
76 0.001146
77 0.001133
78 0.001131
79 0.001124
80 0.001102
81 0.001087
82 0.001069
83 0.001049
84 0.001029
85 0.001000
86 0.000974
87 0.000952
88 0.000939
89 0.000929
90 0.000922
91 0.000924
92 0.000930
93 0.000931
94 0.000932
95 0.000939
96 0.000940
97 0.000947
98 0.000949
99 0.000956
100 0.000960
101 0.000951
102 0.000949
103 0.000940
104 0.000926
105 0.000918
106 0.000909
107 0.000906
108 0.000881
109 0.000868
110 0.000866
111 0.000868
112 0.000874
113 0.000882
114 0.000891
115 0.000907
116 0.000923
117 0.000935
118 0.000944
119 0.000953
120 0.000964
121 0.000974
122 0.000986
123 0.000980
124 0.000973
125 0.000981
126 0.000983
127 0.000981
128 0.000983
129 0.000988
130 0.000988
131 0.000983
132 0.000979
133 0.000983
134 0.000981
135 0.000974
136 0.000971
137 0.000965
138 0.000964
139 0.000959
140 0.000945
141 0.000922
142 0.000910
143 0.000898
144 0.000887
145 0.000874
146 0.000859
147 0.000840
148 0.000836
149 0.000836
150 0.000837
151 0.000831
152 0.000822
153 0.000822
154 0.000820
155 0.000813
156 0.000798
157 0.000782
158 0.000768
159 0.000754
160 0.000747
161 0.000752
162 0.000749
163 0.000733
164 0.000722
165 0.000714
166 0.000708
167 0.000701
168 0.000695
169 0.000683
170 0.000682
171 0.000692
172 0.000695
173 0.000711
174 0.000732
175 0.000750
176 0.000770
177 0.000779
178 0.000775
179 0.000776
180 0.000765
181 0.000755
182 0.000740
183 0.000728
184 0.000722
185 0.000715
186 0.000707
187 0.000707
188 0.000715
189 0.000720
190 0.000734
191 0.000757
192 0.000760
193 0.000750
194 0.000745
195 0.000744
196 0.000737
197 0.000736
198 0.000731
199 0.000724
200 0.000730
201 0.000736
202 0.000749
203 0.000751
204 0.000750
205 0.000751
206 0.000753
207 0.000747
208 0.000745
209 0.000741
210 0.000746
211 0.000747
212 0.000744
213 0.000746
214 0.000748
215 0.000743
216 0.000739
217 0.000742
218 0.000744
219 0.000748
220 0.000748
221 0.000744
222 0.000749
223 0.000747
224 0.000739
225 0.000737
226 0.000736
227 0.000742
228 0.000755
229 0.000762
230 0.000773
231 0.000777
232 0.000785
233 0.000781
234 0.000763
235 0.000751
236 0.000734
237 0.000724
238 0.000720
239 0.000716
240 0.000715
241 0.000710
242 0.000694
243 0.000695
244 0.000698
245 0.000704
246 0.000708
247 0.000713
248 0.000718
249 0.000716
250 0.000714
251 0.000716
252 0.000719
253 0.000722
254 0.000719
255 0.000722
256 0.000712
257 0.000696
258 0.000679
259 0.000666
260 0.000651
261 0.000634
262 0.000616
263 0.000604
264 0.000602
265 0.000605
266 0.000600
267 0.000599
268 0.000604
269 0.000605
270 0.000607
271 0.000609
272 0.000609
273 0.000611
274 0.000606
275 0.000601
276 0.000600
277 0.000597
278 0.000595
279 0.000584
280 0.000578
281 0.000586
282 0.000583
283 0.000580
284 0.000571
285 0.000561
286 0.000550
287 0.000549
288 0.000554
289 0.000569
290 0.000576
291 0.000579
292 0.000586
293 0.000605
294 0.000616
295 0.000613
296 0.000611
297 0.000624
298 0.000637
299 0.000636
300 0.000626
301 0.000627
302 0.000629
303 0.000625
304 0.000637
305 0.000652
306 0.000666
307 0.000683
308 0.000695
309 0.000701
310 0.000713
311 0.000714
312 0.000710
313 0.000718
314 0.000725
315 0.000731
316 0.000731
317 0.000726
318 0.000704
319 0.000691
320 0.000677
321 0.000675
322 0.000676
323 0.000669
324 0.000664
325 0.000661
326 0.000655
327 0.000654
328 0.000660
329 0.000658
330 0.000667
331 0.000678
332 0.000678
333 0.000668
334 0.000671
335 0.000674
336 0.000672
337 0.000670
338 0.000665
339 0.000657
340 0.000646
341 0.000632
342 0.000628
343 0.000627
344 0.000634
345 0.000649
346 0.000658
347 0.000666
348 0.000672
349 0.000672
350 0.000683
351 0.000694
352 0.000711
353 0.000721
354 0.000712
355 0.000706
356 0.000700
357 0.000705
358 0.000715
359 0.000724
360 0.000723
361 0.000724
362 0.000716
363 0.000709
364 0.000711
365 0.000702
366 0.000695
367 0.000693
368 0.000699
369 0.000693
370 0.000689
371 0.000697
372 0.000698
373 0.000697
374 0.000700
375 0.000702
376 0.000695
377 0.000681
378 0.000666
379 0.000649
380 0.000634
381 0.000618
382 0.000600
383 0.000584
384 0.000561
385 0.000550
386 0.000546
387 0.000543
388 0.000537
389 0.000530
390 0.000522
391 0.000512
392 0.000507
393 0.000501
394 0.000492
395 0.000479
396 0.000462
397 0.000451
398 0.000443
399 0.000429
400 0.000424
401 0.000427
402 0.000430
403 0.000436
404 0.000439
405 0.000436
406 0.000424
407 0.000417
408 0.000416
409 0.000418
410 0.000419
411 0.000420
412 0.000418
413 0.000413
414 0.000422
415 0.000431
416 0.000443
417 0.000450
418 0.000450
419 0.000453
420 0.000460
421 0.000459
422 0.000456
423 0.000459
424 0.000454
425 0.000451
426 0.000445
427 0.000443
428 0.000437
429 0.000431
430 0.000430
431 0.000441
432 0.000455
433 0.000466
434 0.000468
435 0.000471
436 0.000479
437 0.000476
438 0.000475
439 0.000469
440 0.000458
441 0.000446
442 0.000445
443 0.000451
444 0.000451
445 0.000446
446 0.000445
447 0.000448
448 0.000446
449 0.000437
450 0.000435
451 0.000425
452 0.000419
453 0.000413
454 0.000400
455 0.000392
456 0.000382
457 0.000365
458 0.000356
459 0.000358
460 0.000361
461 0.000363
462 0.000349
463 0.000337
464 0.000332
465 0.000328
466 0.000329
467 0.000340
468 0.000349
469 0.000347
470 0.000351
471 0.000353
472 0.000344
473 0.000347
474 0.000356
475 0.000366
476 0.000375
477 0.000379
478 0.000391
479 0.000393
480 0.000396
481 0.000404
482 0.000411
483 0.000417
484 0.000425
485 0.000433
486 0.000442
487 0.000449
488 0.000448
489 0.000452
490 0.000452
491 0.000444
492 0.000450
493 0.000459
494 0.000460
495 0.000469
496 0.000480
497 0.000494
498 0.000499
499 0.000506
500 0.000510
501 0.000508
502 0.000501
503 0.000495
504 0.000490
505 0.000477
506 0.000463
507 0.000459
508 0.000460
509 0.000455
510 0.000446
511 0.000438
512 0.000429
513 0.000418
514 0.000408
515 0.000402
516 0.000394
517 0.000384
518 0.000373
519 0.000365
520 0.000357
521 0.000346
522 0.000337
523 0.000327
524 0.000315
525 0.000308
526 0.000303
527 0.000295
528 0.000293
529 0.000292
530 0.000288
531 0.000284
532 0.000290
533 0.000290
534 0.000290
535 0.000288
536 0.000294
537 0.000298
538 0.000306
539 0.000305
540 0.000307
541 0.000305
542 0.000311
543 0.000317
544 0.000316
545 0.000318
546 0.000312
547 0.000306
548 0.000312
549 0.000317
550 0.000325
551 0.000324
552 0.000332
553 0.000348
554 0.000360
555 0.000361
556 0.000357
557 0.000349
558 0.000347
559 0.000348
560 0.000343
561 0.000337
562 0.000342
563 0.000348
564 0.000347
565 0.000352
566 0.000362
567 0.000368
568 0.000374
569 0.000367
570 0.000361
571 0.000357
572 0.000351
573 0.000340
574 0.000332
575 0.000339
576 0.000340
577 0.000338
578 0.000344
579 0.000348
580 0.000344
581 0.000336
582 0.000332
583 0.000326
584 0.000314
585 0.000313
586 0.000316
587 0.000317
588 0.000310
589 0.000304
590 0.000306
591 0.000312
592 0.000312
593 0.000310
594 0.000307
595 0.000301
596 0.000301
597 0.000304
598 0.000310
599 0.000317
600 0.000326
601 0.000319
602 0.000312
603 0.000308
604 0.000313
605 0.000314
606 0.000314
607 0.000321
608 0.000328
609 0.000330
610 0.000330
611 0.000331
612 0.000333
613 0.000332
614 0.000339
615 0.000346
616 0.000339
617 0.000333
618 0.000327
619 0.000324
620 0.000330
621 0.000336
622 0.000335
623 0.000344
624 0.000350
625 0.000348
626 0.000351
627 0.000356
628 0.000360
629 0.000370
630 0.000372
631 0.000373
632 0.000374
633 0.000370
634 0.000367
635 0.000363
636 0.000357
637 0.000346
638 0.000336
639 0.000328
640 0.000321
641 0.000320
642 0.000323
643 0.000324
644 0.000325
645 0.000331
646 0.000331
647 0.000329
648 0.000329
649 0.000333
650 0.000336
651 0.000339
652 0.000338
653 0.000336
654 0.000335
655 0.000335
656 0.000336
657 0.000342
658 0.000349
659 0.000351
660 0.000352
661 0.000357
662 0.000360
663 0.000362
664 0.000356
665 0.000350
666 0.000353
667 0.000349
668 0.000352
669 0.000362
670 0.000375
671 0.000380
672 0.000382
673 0.000386
674 0.000387
675 0.000385
676 0.000383
677 0.000373
678 0.000368
679 0.000363
680 0.000356
681 0.000356
682 0.000351
683 0.000351
684 0.000352
685 0.000352
686 0.000350
687 0.000350
688 0.000353
689 0.000355
690 0.000358
691 0.000363
692 0.000363
693 0.000361
694 0.000356
695 0.000349
696 0.000350
697 0.000346
698 0.000347
699 0.000347
700 0.000346
701 0.000343
702 0.000338
703 0.000338
704 0.000340
705 0.000341
706 0.000344
707 0.000342
708 0.000339
709 0.000341
710 0.000349
711 0.000359
712 0.000361
713 0.000361
714 0.000365
715 0.000365
716 0.000369
717 0.000373
718 0.000376
719 0.000378
720 0.000379
721 0.000382
722 0.000378
723 0.000377
724 0.000377
725 0.000383
726 0.000394
727 0.000406
728 0.000414
729 0.000424
730 0.000435
731 0.000439
732 0.000444
733 0.000451
734 0.000451
735 0.000442
736 0.000436
737 0.000429
738 0.000417
739 0.000408
740 0.000405
741 0.000404
742 0.000408
743 0.000405
744 0.000403
745 0.000401
746 0.000402
747 0.000396
748 0.000398
749 0.000400
750 0.000405
751 0.000407
752 0.000410
753 0.000419
754 0.000427
755 0.000429
756 0.000425
757 0.000418
758 0.000407
759 0.000398
760 0.000389
761 0.000381
762 0.000373
763 0.000363
764 0.000361
765 0.000363
766 0.000363
767 0.000359
768 0.000360
769 0.000359
770 0.000358
771 0.000351
772 0.000343
773 0.000336
774 0.000327
775 0.000322
776 0.000322
777 0.000323
778 0.000326
779 0.000319
780 0.000313
781 0.000308
782 0.000309
783 0.000312
784 0.000317
785 0.000320
786 0.000321
787 0.000321
788 0.000323
789 0.000324
790 0.000325
791 0.000333
792 0.000335
793 0.000333
794 0.000333
795 0.000338
796 0.000343
797 0.000344
798 0.000347
799 0.000345
800 0.000340
801 0.000334
802 0.000326
803 0.000322
804 0.000315
805 0.000320
806 0.000326
807 0.000336
808 0.000343
809 0.000345
