# i correlation
1 0.001896
2 0.001780
3 0.001672
4 0.001580
5 0.001504
6 0.001442
7 0.001385
8 0.001338
9 0.001297
10 0.001270
11 0.001241
12 0.001207
13 0.001166
14 0.001121
15 0.001088
16 0.001046
17 0.001009
18 0.000983
19 0.000959
20 0.000940
21 0.000937
22 0.000927
23 0.000907
24 0.000898
25 0.000893
26 0.000889
27 0.000888
28 0.000883
29 0.000861
30 0.000843
31 0.000822
32 0.000805
33 0.000791
34 0.000795
35 0.000787
36 0.000777
37 0.000763
38 0.000774
39 0.000762
40 0.000750
41 0.000727
42 0.000714
43 0.000705
44 0.000689
45 0.000684
46 0.000677
47 0.000666
48 0.000645
49 0.000620
50 0.000606
51 0.000584
52 0.000563
53 0.000564
54 0.000564
55 0.000565
56 0.000563
57 0.000554
58 0.000549
59 0.000552
60 0.000548
61 0.000533
62 0.000516
63 0.000506
64 0.000502
65 0.000493
66 0.000493
67 0.000491
68 0.000483
69 0.000477
70 0.000485
71 0.000486
72 0.000478
73 0.000475
74 0.000464
75 0.000457
76 0.000442
77 0.000425
78 0.000396
79 0.000366
80 0.000347
81 0.000333
82 0.000316
83 0.000292
84 0.000274
85 0.000267
86 0.000273
87 0.000269
88 0.000276
89 0.000269
90 0.000273
91 0.000288
92 0.000306
93 0.000329
94 0.000352
95 0.000367
96 0.000376
97 0.000393
98 0.000415
99 0.000438
100 0.000459
101 0.000486
102 0.000497
103 0.000504
104 0.000509
105 0.000516
106 0.000527
107 0.000537
108 0.000530
109 0.000530
110 0.000528
111 0.000535
112 0.000522
113 0.000510
114 0.000494
115 0.000470
116 0.000445
117 0.000424
118 0.000396
119 0.000378
120 0.000372
121 0.000362
122 0.000353
123 0.000329
124 0.000317
125 0.000302
126 0.000295
127 0.000299
128 0.000307
129 0.000316
130 0.000318
131 0.000326
132 0.000332
133 0.000329
134 0.000322
135 0.000321
136 0.000320
137 0.000339
138 0.000355
139 0.000376
140 0.000401
141 0.000410
142 0.000414
143 0.000419
144 0.000410
145 0.000402
146 0.000395
147 0.000386
148 0.000385
149 0.000388
150 0.000377
151 0.000381
152 0.000385
153 0.000401
154 0.000410
155 0.000426
156 0.000429
157 0.000421
158 0.000417
159 0.000416
160 0.000408
161 0.000408
162 0.000404
163 0.000395
164 0.000380
165 0.000378
166 0.000378
167 0.000376
168 0.000367
169 0.000358
170 0.000367
171 0.000364
172 0.000352
173 0.000341
174 0.000341
175 0.000333
176 0.000319
177 0.000321
178 0.000321
179 0.000309
180 0.000291
181 0.000273
182 0.000263
183 0.000258
184 0.000261
185 0.000266
186 0.000272
187 0.000274
188 0.000275
189 0.000273
190 0.000271
191 0.000260
192 0.000253
193 0.000245
194 0.000242
195 0.000238
196 0.000233
197 0.000229
198 0.000235
199 0.000251
200 0.000260
201 0.000284
202 0.000303
203 0.000318
204 0.000345
205 0.000362
206 0.000360
207 0.000357
208 0.000369
209 0.000366
210 0.000360
211 0.000355
212 0.000361
213 0.000377
214 0.000398
215 0.000416
216 0.000434
217 0.000435
218 0.000427
219 0.000419
220 0.000418
221 0.000412
222 0.000403
223 0.000399
224 0.000389
225 0.000379
226 0.000388
227 0.000372
228 0.000365
229 0.000359
230 0.000347
231 0.000346
232 0.000354
233 0.000360
234 0.000348
235 0.000323
236 0.000307
237 0.000282
238 0.000258
239 0.000236
240 0.000213
241 0.000195
242 0.000184
243 0.000194
244 0.000209
245 0.000199
246 0.000185
247 0.000173
248 0.000168
249 0.000167
250 0.000162
251 0.000158
252 0.000148
253 0.000138
254 0.000156
255 0.000179
256 0.000195
257 0.000194
258 0.000209
259 0.000215
260 0.000225
261 0.000232
262 0.000237
263 0.000234
264 0.000231
265 0.000223
266 0.000216
267 0.000207
268 0.000207
269 0.000202
270 0.000186
271 0.000167
272 0.000141
273 0.000120
274 0.000097
275 0.000078
276 0.000064
277 0.000053
278 0.000047
279 0.000038
280 0.000037
281 0.000039
282 0.000042
283 0.000051
284 0.000044
285 0.000030
286 0.000020
287 0.000010
288 -0.000000
289 0.000007
290 0.000021
291 0.000035
292 0.000047
293 0.000054
294 0.000061
295 0.000061
296 0.000062
297 0.000060
298 0.000064
299 0.000071
300 0.000063
301 0.000075
302 0.000093
303 0.000117
304 0.000144
305 0.000165
306 0.000177
307 0.000190
308 0.000203
309 0.000209
310 0.000208
311 0.000214
312 0.000218
313 0.000226
314 0.000243
315 0.000246
316 0.000244
317 0.000238
318 0.000234
319 0.000230
320 0.000224
321 0.000222
322 0.000217
323 0.000212
324 0.000223
325 0.000231
326 0.000242
327 0.000253
328 0.000251
329 0.000256
330 0.000265
331 0.000272
332 0.000284
333 0.000294
334 0.000293
335 0.000292
336 0.000293
337 0.000298
338 0.000280
339 0.000262
340 0.000251
341 0.000233
342 0.000221
343 0.000212
344 0.000206
345 0.000204
346 0.000200
347 0.000190
348 0.000191
349 0.000193
350 0.000203
351 0.000205
352 0.000207
353 0.000215
354 0.000219
355 0.000228
356 0.000236
357 0.000249
358 0.000263
359 0.000274
360 0.000291
361 0.000311
362 0.000326
363 0.000347
364 0.000363
365 0.000381
366 0.000382
367 0.000387
368 0.000385
369 0.000400
370 0.000410
371 0.000419
372 0.000429
373 0.000433
374 0.000442
375 0.000456
376 0.000457
377 0.000444
378 0.000431
379 0.000420
380 0.000410
381 0.000393
382 0.000381
383 0.000364
384 0.000346
385 0.000319
386 0.000294
387 0.000272
388 0.000254
389 0.000234
390 0.000211
391 0.000195
392 0.000179
393 0.000155
394 0.000130
395 0.000109
396 0.000091
397 0.000086
398 0.000078
399 0.000081
400 0.000093
401 0.000103
402 0.000114
403 0.000129
404 0.000137
405 0.000137
406 0.000135
407 0.000136
408 0.000132
409 0.000138
410 0.000145
411 0.000142
412 0.000132
413 0.000124
414 0.000113
415 0.000100
416 0.000086
417 0.000079
418 0.000084
419 0.000092
420 0.000107
421 0.000119
422 0.000138
423 0.000149
424 0.000157
425 0.000159
426 0.000166
427 0.000171
428 0.000184
429 0.000191
430 0.000199
431 0.000201
432 0.000193
433 0.000193
434 0.000199
435 0.000201
436 0.000202
437 0.000205
438 0.000205
439 0.000200
440 0.000190
441 0.000181
442 0.000170
443 0.000154
444 0.000148
445 0.000148
446 0.000150
447 0.000163
448 0.000180
449 0.000190
450 0.000190
451 0.000184
452 0.000178
453 0.000167
454 0.000162
455 0.000158
456 0.000156
457 0.000161
458 0.000160
459 0.000164
460 0.000166
461 0.000170
462 0.000184
463 0.000193
464 0.000208
465 0.000214
466 0.000219
467 0.000226
468 0.000235
469 0.000247
470 0.000259
471 0.000264
472 0.000268
473 0.000282
474 0.000289
475 0.000296
476 0.000305
477 0.000322
478 0.000322
479 0.000328
480 0.000329
481 0.000330
482 0.000332
483 0.000338
484 0.000340
485 0.000334
486 0.000323
487 0.000312
488 0.000308
489 0.000296
490 0.000285
491 0.000272
492 0.000252
493 0.000238
494 0.000226
495 0.000226
496 0.000212
497 0.000195
498 0.000181
499 0.000166
500 0.000143
501 0.000120
502 0.000096
503 0.000074
504 0.000057
505 0.000038
506 0.000018
507 0.000005
508 -0.000008
509 -0.000013
510 -0.000017
511 -0.000022
512 -0.000023
513 -0.000023
514 -0.000020
515 -0.000027
516 -0.000030
517 -0.000040
518 -0.000047
519 -0.000055
520 -0.000061
521 -0.000059
522 -0.000053
523 -0.000043
524 -0.000034
525 -0.000029
526 -0.000032
527 -0.000031
528 -0.000027
529 -0.000022
530 -0.000017
531 -0.000011
532 -0.000013
533 -0.000012
534 -0.000008
535 -0.000000
536 0.000004
537 0.000008
538 0.000004
539 0.000003
540 0.000002
541 0.000003
542 -0.000002
543 -0.000012
544 -0.000025
545 -0.000035
546 -0.000054
547 -0.000070
548 -0.000078
549 -0.000084
550 -0.000079
551 -0.000081
552 -0.000083
553 -0.000082
554 -0.000083
555 -0.000091
556 -0.000097
557 -0.000097
558 -0.000092
559 -0.000081
560 -0.000074
561 -0.000068
562 -0.000064
563 -0.000053
564 -0.000049
565 -0.000042
566 -0.000030
567 -0.000027
568 -0.000020
569 -0.000000
570 0.000016
571 0.000028
572 0.000032
573 0.000025
574 0.000025
575 0.000022
576 0.000016
577 0.000010
578 -0.000003
579 -0.000008
580 -0.000018
581 -0.000014
582 -0.000013
583 -0.000015
584 -0.000008
585 0.000003
586 0.000007
587 0.000013
588 0.000019
589 0.000026
590 0.000037
591 0.000049
592 0.000057
593 0.000067
594 0.000080
595 0.000094
596 0.000114
597 0.000124
598 0.000128
599 0.000128
600 0.000128
601 0.000128
602 0.000124
603 0.000111
604 0.000106
605 0.000105
606 0.000111
607 0.000113
608 0.000124
609 0.000132
610 0.000130
611 0.000125
612 0.000114
613 0.000103
614 0.000093
615 0.000089
616 0.000087
617 0.000086
618 0.000080
619 0.000081
620 0.000079
621 0.000078
622 0.000075
623 0.000077
624 0.000080
625 0.000085
626 0.000084
627 0.000086
628 0.000087
629 0.000091
630 0.000090
631 0.000086
632 0.000088
633 0.000092
634 0.000101
635 0.000115
636 0.000135
637 0.000143
638 0.000156
639 0.000157
640 0.000154
641 0.000151
642 0.000142
643 0.000139
644 0.000138
645 0.000134
646 0.000126
647 0.000116
648 0.000107
649 0.000096
650 0.000081
651 0.000072
652 0.000067
653 0.000062
654 0.000059
655 0.000052
656 0.000052
657 0.000049
658 0.000047
659 0.000035
660 0.000030
661 0.000029
662 0.000030
663 0.000034
664 0.000039
665 0.000057
666 0.000069
667 0.000080
668 0.000094
669 0.000105
670 0.000116
671 0.000127
672 0.000129
673 0.000132
674 0.000133
675 0.000126
676 0.000120
677 0.000118
678 0.000120
679 0.000120
680 0.000119
681 0.000115
682 0.000117
683 0.000122
684 0.000118
685 0.000110
686 0.000104
687 0.000100
688 0.000103
689 0.000099
690 0.000097
691 0.000096
692 0.000096
693 0.000102
694 0.000105
695 0.000105
696 0.000114
697 0.000114
698 0.000113
699 0.000117
700 0.000118
701 0.000115
702 0.000109
703 0.000114
704 0.000111
705 0.000107
706 0.000104
707 0.000100
708 0.000095
709 0.000097
710 0.000091
711 0.000092
712 0.000096
713 0.000100
714 0.000099
715 0.000101
716 0.000096
717 0.000095
718 0.000090
719 0.000076
720 0.000059
721 0.000043
722 0.000027
723 0.000006
724 0.000001
725 -0.000008
726 -0.000015
727 -0.000024
728 -0.000028
729 -0.000038
730 -0.000042
731 -0.000044
732 -0.000043
733 -0.000045
734 -0.000048
735 -0.000051
736 -0.000055
737 -0.000052
738 -0.000043
739 -0.000026
740 -0.000012
741 -0.000002
742 0.000005
743 0.000010
744 0.000013
745 0.000023
746 0.000033
747 0.000042
748 0.000044
749 0.000045
750 0.000040
751 0.000040
752 0.000035
753 0.000034
754 0.000033
755 0.000031
756 0.000032
757 0.000033
758 0.000026
759 0.000021
760 0.000020
761 0.000012
762 0.000006
763 0.000001
764 -0.000001
765 -0.000001
766 0.000003
767 0.000010
768 0.000020
769 0.000030
770 0.000038
771 0.000049
772 0.000059
773 0.000068
774 0.000077
775 0.000085
776 0.000096
777 0.000100
778 0.000109
779 0.000115
780 0.000124
781 0.000130
782 0.000138
783 0.000142
784 0.000149
785 0.000159
786 0.000166
787 0.000171
788 0.000173
789 0.000177
790 0.000174
791 0.000177
792 0.000178
793 0.000177
794 0.000182
795 0.000188
796 0.000188
797 0.000192
798 0.000198
799 0.000204
800 0.000212
801 0.000218
802 0.000220
803 0.000224
804 0.000230
805 0.000232
806 0.000233
807 0.000236
808 0.000236
809 0.000238
