# i correlation
1 0.001910
2 0.001811
3 0.001718
4 0.001637
5 0.001584
6 0.001534
7 0.001502
8 0.001470
9 0.001448
10 0.001434
11 0.001408
12 0.001388
13 0.001367
14 0.001337
15 0.001311
16 0.001289
17 0.001274
18 0.001259
19 0.001245
20 0.001222
21 0.001201
22 0.001190
23 0.001183
24 0.001186
25 0.001199
26 0.001210
27 0.001214
28 0.001209
29 0.001194
30 0.001173
31 0.001154
32 0.001142
33 0.001112
34 0.001092
35 0.001078
36 0.001064
37 0.001052
38 0.001033
39 0.001022
40 0.001015
41 0.000997
42 0.000997
43 0.000986
44 0.000975
45 0.000966
46 0.000958
47 0.000949
48 0.000947
49 0.000946
50 0.000951
51 0.000958
52 0.000955
53 0.000963
54 0.000962
55 0.000958
56 0.000936
57 0.000929
58 0.000924
59 0.000939
60 0.000936
61 0.000925
62 0.000923
63 0.000911
64 0.000920
65 0.000905
66 0.000889
67 0.000884
68 0.000862
69 0.000861
70 0.000849
71 0.000845
72 0.000853
73 0.000844
74 0.000834
75 0.000836
76 0.000841
77 0.000848
78 0.000850
79 0.000847
80 0.000846
81 0.000839
82 0.000830
83 0.000831
84 0.000811
85 0.000805
86 0.000793
87 0.000780
88 0.000773
89 0.000770
90 0.000776
91 0.000785
92 0.000799
93 0.000792
94 0.000781
95 0.000772
96 0.000757
97 0.000737
98 0.000721
99 0.000715
100 0.000717
101 0.000714
102 0.000714
103 0.000711
104 0.000725
105 0.000731
106 0.000719
107 0.000698
108 0.000697
109 0.000706
110 0.000712
111 0.000711
112 0.000707
113 0.000695
114 0.000682
115 0.000671
116 0.000654
117 0.000646
118 0.000653
119 0.000670
120 0.000683
121 0.000695
122 0.000699
123 0.000703
124 0.000704
125 0.000704
126 0.000702
127 0.000682
128 0.000678
129 0.000664
130 0.000651
131 0.000657
132 0.000644
133 0.000625
134 0.000623
135 0.000618
136 0.000625
137 0.000628
138 0.000633
139 0.000640
140 0.000637
141 0.000624
142 0.000615
143 0.000611
144 0.000621
145 0.000637
146 0.000646
147 0.000664
148 0.000666
149 0.000660
150 0.000654
151 0.000649
152 0.000658
153 0.000658
154 0.000658
155 0.000664
156 0.000660
157 0.000651
158 0.000643
159 0.000636
160 0.000626
161 0.000606
162 0.000597
163 0.000596
164 0.000601
165 0.000601
166 0.000599
167 0.000593
168 0.000590
169 0.000589
170 0.000589
171 0.000598
172 0.000615
173 0.000637
174 0.000662
175 0.000681
176 0.000697
177 0.000699
178 0.000697
179 0.000700
180 0.000700
181 0.000695
182 0.000691
183 0.000693
184 0.000689
185 0.000694
186 0.000689
187 0.000695
188 0.000699
189 0.000707
190 0.000729
191 0.000739
192 0.000747
193 0.000746
194 0.000736
195 0.000744
196 0.000734
197 0.000739
198 0.000745
199 0.000734
200 0.000730
201 0.000723
202 0.000725
203 0.000732
204 0.000740
205 0.000745
206 0.000738
207 0.000725
208 0.000703
209 0.000680
210 0.000643
211 0.000620
212 0.000602
213 0.000584
214 0.000587
215 0.000592
216 0.000591
217 0.000585
218 0.000578
219 0.000580
220 0.000574
221 0.000576
222 0.000576
223 0.000571
224 0.000579
225 0.000578
226 0.000562
227 0.000552
228 0.000540
229 0.000538
230 0.000543
231 0.000547
232 0.000554
233 0.000555
234 0.000555
235 0.000557
236 0.000543
237 0.000533
238 0.000515
239 0.000500
240 0.000493
241 0.000486
242 0.000475
243 0.000477
244 0.000477
245 0.000478
246 0.000483
247 0.000499
248 0.000511
249 0.000518
250 0.000532
251 0.000539
252 0.000545
253 0.000542
254 0.000534
255 0.000515
256 0.000508
257 0.000515
258 0.000513
259 0.000523
260 0.000535
261 0.000539
262 0.000540
263 0.000528
264 0.000529
265 0.000523
266 0.000512
267 0.000507
268 0.000502
269 0.000499
270 0.000499
271 0.000500
272 0.000501
273 0.000503
274 0.000506
275 0.000520
276 0.000526
277 0.000527
278 0.000536
279 0.000538
280 0.000538
281 0.000536
282 0.000524
283 0.000534
284 0.000550
285 0.000560
286 0.000565
287 0.000562
288 0.000549
289 0.000537
290 0.000534
291 0.000529
292 0.000530
293 0.000521
294 0.000529
295 0.000533
296 0.000550
297 0.000568
298 0.000576
299 0.000588
300 0.000598
301 0.000611
302 0.000618
303 0.000616
304 0.000622
305 0.000616
306 0.000615
307 0.000616
308 0.000602
309 0.000596
310 0.000595
311 0.000607
312 0.000611
313 0.000612
314 0.000616
315 0.000622
316 0.000625
317 0.000614
318 0.000599
319 0.000593
320 0.000573
321 0.000571
322 0.000561
323 0.000554
324 0.000557
325 0.000559
326 0.000573
327 0.000589
328 0.000596
329 0.000613
330 0.000616
331 0.000615
332 0.000608
333 0.000603
334 0.000609
335 0.000602
336 0.000596
337 0.000595
338 0.000599
339 0.000601
340 0.000603
341 0.000595
342 0.000594
343 0.000609
344 0.000610
345 0.000613
346 0.000609
347 0.000602
348 0.000596
349 0.000583
350 0.000580
351 0.000582
352 0.000580
353 0.000590
354 0.000592
355 0.000601
356 0.000598
357 0.000594
358 0.000587
359 0.000581
360 0.000561
361 0.000559
362 0.000554
363 0.000557
364 0.000555
365 0.000548
366 0.000549
367 0.000541
368 0.000542
369 0.000559
370 0.000559
371 0.000567
372 0.000566
373 0.000571
374 0.000575
375 0.000578
376 0.000583
377 0.000580
378 0.000580
379 0.000573
380 0.000576
381 0.000580
382 0.000582
383 0.000584
384 0.000582
385 0.000585
386 0.000587
387 0.000590
388 0.000603
389 0.000607
390 0.000603
391 0.000598
392 0.000582
393 0.000574
394 0.000566
395 0.000559
396 0.000556
397 0.000550
398 0.000546
399 0.000541
400 0.000529
401 0.000525
402 0.000520
403 0.000517
404 0.000519
405 0.000525
406 0.000538
407 0.000546
408 0.000540
409 0.000530
410 0.000527
411 0.000512
412 0.000507
413 0.000477
414 0.000446
415 0.000427
416 0.000408
417 0.000402
418 0.000385
419 0.000386
420 0.000395
421 0.000391
422 0.000391
423 0.000389
424 0.000388
425 0.000381
426 0.000387
427 0.000384
428 0.000382
429 0.000381
430 0.000385
431 0.000378
432 0.000369
433 0.000362
434 0.000347
435 0.000354
436 0.000361
437 0.000367
438 0.000381
439 0.000385
440 0.000387
441 0.000381
442 0.000377
443 0.000367
444 0.000360
445 0.000354
446 0.000349
447 0.000353
448 0.000355
449 0.000361
450 0.000363
451 0.000361
452 0.000373
453 0.000362
454 0.000352
455 0.000346
456 0.000340
457 0.000332
458 0.000332
459 0.000335
460 0.000325
461 0.000317
462 0.000307
463 0.000306
464 0.000306
465 0.000318
466 0.000334
467 0.000340
468 0.000351
469 0.000366
470 0.000372
471 0.000379
472 0.000377
473 0.000378
474 0.000394
475 0.000402
476 0.000412
477 0.000420
478 0.000430
479 0.000449
480 0.000453
481 0.000462
482 0.000469
483 0.000472
484 0.000479
485 0.000471
486 0.000471
487 0.000470
488 0.000466
489 0.000462
490 0.000465
491 0.000470
492 0.000467
493 0.000464
494 0.000466
495 0.000473
496 0.000474
497 0.000477
498 0.000476
499 0.000475
500 0.000478
501 0.000486
502 0.000494
503 0.000493
504 0.000482
505 0.000477
506 0.000478
507 0.000479
508 0.000483
509 0.000491
510 0.000491
511 0.000498
512 0.000499
513 0.000495
514 0.000488
515 0.000471
516 0.000467
517 0.000447
518 0.000438
519 0.000433
520 0.000428
521 0.000437
522 0.000442
523 0.000445
524 0.000446
525 0.000449
526 0.000450
527 0.000453
528 0.000463
529 0.000464
530 0.000469
531 0.000477
532 0.000474
533 0.000476
534 0.000475
535 0.000479
536 0.000476
537 0.000475
538 0.000478
539 0.000462
540 0.000452
541 0.000443
542 0.000427
543 0.000421
544 0.000411
545 0.000400
546 0.000399
547 0.000398
548 0.000401
549 0.000400
550 0.000404
551 0.000404
552 0.000399
553 0.000387
554 0.000382
555 0.000374
556 0.000373
557 0.000369
558 0.000372
559 0.000378
560 0.000386
561 0.000396
562 0.000404
563 0.000404
564 0.000407
565 0.000402
566 0.000401
567 0.000406
568 0.000403
569 0.000398
570 0.000387
571 0.000383
572 0.000369
573 0.000362
574 0.000355
575 0.000359
576 0.000359
577 0.000357
578 0.000364
579 0.000358
580 0.000354
581 0.000343
582 0.000331
583 0.000329
584 0.000325
585 0.000320
586 0.000326
587 0.000321
588 0.000317
589 0.000310
590 0.000308
591 0.000305
592 0.000301
593 0.000299
594 0.000298
595 0.000300
596 0.000307
597 0.000315
598 0.000315
599 0.000311
600 0.000306
601 0.000301
602 0.000304
603 0.000307
604 0.000308
605 0.000311
606 0.000307
607 0.000303
608 0.000292
609 0.000284
610 0.000285
611 0.000286
612 0.000292
613 0.000299
614 0.000302
615 0.000308
616 0.000306
617 0.000295
618 0.000291
619 0.000285
620 0.000277
621 0.000269
622 0.000265
623 0.000266
624 0.000268
625 0.000270
626 0.000281
627 0.000287
628 0.000295
629 0.000295
630 0.000297
631 0.000305
632 0.000306
633 0.000308
634 0.000304
635 0.000306
636 0.000303
637 0.000296
638 0.000289
639 0.000286
640 0.000282
641 0.000284
642 0.000293
643 0.000294
644 0.000298
645 0.000302
646 0.000297
647 0.000298
648 0.000285
649 0.000279
650 0.000277
651 0.000275
652 0.000272
653 0.000270
654 0.000275
655 0.000282
656 0.000288
657 0.000290
658 0.000294
659 0.000300
660 0.000303
661 0.000305
662 0.000301
663 0.000299
664 0.000293
665 0.000285
666 0.000281
667 0.000277
668 0.000269
669 0.000271
670 0.000271
671 0.000277
672 0.000287
673 0.000299
674 0.000306
675 0.000308
676 0.000310
677 0.000314
678 0.000316
679 0.000315
680 0.000312
681 0.000314
682 0.000323
683 0.000327
684 0.000338
685 0.000344
686 0.000349
687 0.000352
688 0.000359
689 0.000363
690 0.000371
691 0.000371
692 0.000363
693 0.000348
694 0.000329
695 0.000322
696 0.000317
697 0.000316
698 0.000310
699 0.000306
700 0.000299
701 0.000296
702 0.000295
703 0.000298
704 0.000304
705 0.000305
706 0.000313
707 0.000315
708 0.000314
709 0.000314
710 0.000311
711 0.000312
712 0.000308
713 0.000302
714 0.000307
715 0.000303
716 0.000308
717 0.000311
718 0.000311
719 0.000307
720 0.000305
721 0.000301
722 0.000303
723 0.000309
724 0.000315
725 0.000314
726 0.000314
727 0.000317
728 0.000316
729 0.000307
730 0.000304
731 0.000302
732 0.000304
733 0.000307
734 0.000306
735 0.000307
736 0.000309
737 0.000314
738 0.000311
739 0.000310
740 0.000301
741 0.000301
742 0.000301
743 0.000302
744 0.000304
745 0.000303
746 0.000305
747 0.000298
748 0.000289
749 0.000284
750 0.000278
751 0.000274
752 0.000268
753 0.000263
754 0.000264
755 0.000259
756 0.000253
757 0.000248
758 0.000236
759 0.000235
760 0.000227
761 0.000220
762 0.000213
763 0.000208
764 0.000200
765 0.000193
766 0.000187
767 0.000182
768 0.000174
769 0.000167
770 0.000159
771 0.000156
772 0.000144
773 0.000137
774 0.000131
775 0.000129
776 0.000130
777 0.000126
778 0.000126
779 0.000120
780 0.000113
781 0.000114
782 0.000111
783 0.000109
784 0.000101
785 0.000092
786 0.000084
787 0.000079
788 0.000081
789 0.000083
790 0.000083
791 0.000079
792 0.000077
793 0.000077
794 0.000079
795 0.000083
796 0.000086
797 0.000084
798 0.000080
799 0.000077
800 0.000074
801 0.000073
802 0.000071
803 0.000074
804 0.000072
805 0.000069
806 0.000067
807 0.000067
808 0.000072
809 0.000074
