# i correlation
1 0.002287
2 0.002175
3 0.002082
4 0.002026
5 0.001991
6 0.001951
7 0.001919
8 0.001887
9 0.001873
10 0.001857
11 0.001834
12 0.001808
13 0.001776
14 0.001743
15 0.001719
16 0.001701
17 0.001686
18 0.001683
19 0.001666
20 0.001642
21 0.001617
22 0.001588
23 0.001570
24 0.001565
25 0.001561
26 0.001553
27 0.001534
28 0.001522
29 0.001513
30 0.001523
31 0.001522
32 0.001509
33 0.001499
34 0.001493
35 0.001485
36 0.001484
37 0.001480
38 0.001463
39 0.001432
40 0.001415
41 0.001415
42 0.001418
43 0.001431
44 0.001447
45 0.001453
46 0.001457
47 0.001456
48 0.001449
49 0.001452
50 0.001453
51 0.001441
52 0.001429
53 0.001430
54 0.001441
55 0.001454
56 0.001443
57 0.001421
58 0.001403
59 0.001382
60 0.001369
61 0.001342
62 0.001323
63 0.001300
64 0.001305
65 0.001300
66 0.001294
67 0.001280
68 0.001265
69 0.001257
70 0.001250
71 0.001241
72 0.001223
73 0.001211
74 0.001206
75 0.001198
76 0.001194
77 0.001182
78 0.001163
79 0.001157
80 0.001161
81 0.001159
82 0.001142
83 0.001124
84 0.001110
85 0.001110
86 0.001105
87 0.001104
88 0.001101
89 0.001105
90 0.001097
91 0.001097
92 0.001095
93 0.001086
94 0.001075
95 0.001069
96 0.001069
97 0.001066
98 0.001081
99 0.001075
100 0.001074
101 0.001075
102 0.001077
103 0.001083
104 0.001088
105 0.001089
106 0.001094
107 0.001104
108 0.001106
109 0.001096
110 0.001082
111 0.001078
112 0.001069
113 0.001068
114 0.001077
115 0.001067
116 0.001057
117 0.001053
118 0.001039
119 0.001026
120 0.001026
121 0.001015
122 0.001014
123 0.001010
124 0.000999
125 0.000988
126 0.000980
127 0.000976
128 0.000967
129 0.000970
130 0.000977
131 0.000971
132 0.000969
133 0.000968
134 0.000959
135 0.000957
136 0.000947
137 0.000933
138 0.000919
139 0.000911
140 0.000902
141 0.000894
142 0.000886
143 0.000874
144 0.000876
145 0.000874
146 0.000870
147 0.000867
148 0.000852
149 0.000838
150 0.000830
151 0.000850
152 0.000848
153 0.000852
154 0.000847
155 0.000833
156 0.000825
157 0.000820
158 0.000826
159 0.000828
160 0.000831
161 0.000838
162 0.000845
163 0.000847
164 0.000849
165 0.000840
166 0.000830
167 0.000821
168 0.000817
169 0.000824
170 0.000812
171 0.000822
172 0.000825
173 0.000819
174 0.000817
175 0.000817
176 0.000812
177 0.000805
178 0.000794
179 0.000782
180 0.000768
181 0.000753
182 0.000740
183 0.000734
184 0.000719
185 0.000721
186 0.000715
187 0.000727
188 0.000736
189 0.000746
190 0.000748
191 0.000755
192 0.000756
193 0.000754
194 0.000763
195 0.000772
196 0.000779
197 0.000777
198 0.000758
199 0.000754
200 0.000748
201 0.000756
202 0.000765
203 0.000766
204 0.000764
205 0.000768
206 0.000779
207 0.000779
208 0.000774
209 0.000786
210 0.000781
211 0.000777
212 0.000772
213 0.000777
214 0.000770
215 0.000773
216 0.000777
217 0.000775
218 0.000781
219 0.000772
220 0.000770
221 0.000776
222 0.000781
223 0.000780
224 0.000768
225 0.000766
226 0.000762
227 0.000760
228 0.000764
229 0.000763
230 0.000759
231 0.000746
232 0.000734
233 0.000721
234 0.000709
235 0.000698
236 0.000686
237 0.000679
238 0.000670
239 0.000663
240 0.000662
241 0.000651
242 0.000647
243 0.000653
244 0.000643
245 0.000629
246 0.000613
247 0.000610
248 0.000600
249 0.000600
250 0.000584
251 0.000576
252 0.000571
253 0.000565
254 0.000555
255 0.000554
256 0.000559
257 0.000553
258 0.000540
259 0.000532
260 0.000534
261 0.000535
262 0.000536
263 0.000532
264 0.000525
265 0.000529
266 0.000541
267 0.000552
268 0.000557
269 0.000549
270 0.000545
271 0.000540
272 0.000531
273 0.000535
274 0.000542
275 0.000552
276 0.000551
277 0.000553
278 0.000549
279 0.000545
280 0.000540
281 0.000542
282 0.000539
283 0.000547
284 0.000540
285 0.000531
286 0.000526
287 0.000521
288 0.000513
289 0.000503
290 0.000488
291 0.000467
292 0.000459
293 0.000445
294 0.000441
295 0.000421
296 0.000393
297 0.000370
298 0.000370
299 0.000378
300 0.000382
301 0.000385
302 0.000386
303 0.000387
304 0.000389
305 0.000387
306 0.000369
307 0.000357
308 0.000345
309 0.000342
310 0.000336
311 0.000326
312 0.000309
313 0.000302
314 0.000290
315 0.000291
316 0.000301
317 0.000309
318 0.000311
319 0.000323
320 0.000335
321 0.000333
322 0.000330
323 0.000326
324 0.000337
325 0.000348
326 0.000356
327 0.000350
328 0.000340
329 0.000355
330 0.000373
331 0.000380
332 0.000382
333 0.000382
334 0.000387
335 0.000395
336 0.000418
337 0.000439
338 0.000459
339 0.000474
340 0.000474
341 0.000472
342 0.000466
343 0.000468
344 0.000469
345 0.000473
346 0.000478
347 0.000478
348 0.000488
349 0.000487
350 0.000492
351 0.000496
352 0.000497
353 0.000492
354 0.000495
355 0.000492
356 0.000490
357 0.000481
358 0.000467
359 0.000450
360 0.000453
361 0.000439
362 0.000429
363 0.000432
364 0.000436
365 0.000434
366 0.000437
367 0.000437
368 0.000439
369 0.000451
370 0.000466
371 0.000466
372 0.000462
373 0.000457
374 0.000463
375 0.000471
376 0.000472
377 0.000463
378 0.000449
379 0.000446
380 0.000448
381 0.000456
382 0.000459
383 0.000455
384 0.000466
385 0.000474
386 0.000477
387 0.000475
388 0.000477
389 0.000479
390 0.000490
391 0.000499
392 0.000507
393 0.000504
394 0.000506
395 0.000509
396 0.000515
397 0.000520
398 0.000524
399 0.000523
400 0.000535
401 0.000554
402 0.000558
403 0.000553
404 0.000543
405 0.000531
406 0.000539
407 0.000545
408 0.000545
409 0.000539
410 0.000541
411 0.000540
412 0.000541
413 0.000540
414 0.000538
415 0.000533
416 0.000534
417 0.000540
418 0.000557
419 0.000576
420 0.000582
421 0.000581
422 0.000580
423 0.000567
424 0.000564
425 0.000560
426 0.000550
427 0.000551
428 0.000552
429 0.000552
430 0.000549
431 0.000550
432 0.000551
433 0.000537
434 0.000537
435 0.000533
436 0.000541
437 0.000554
438 0.000562
439 0.000577
440 0.000577
441 0.000572
442 0.000560
443 0.000558
444 0.000563
445 0.000571
446 0.000584
447 0.000587
448 0.000587
449 0.000587
450 0.000591
451 0.000594
452 0.000606
453 0.000602
454 0.000601
455 0.000605
456 0.000613
457 0.000618
458 0.000615
459 0.000608
460 0.000601
461 0.000601
462 0.000606
463 0.000601
464 0.000592
465 0.000586
466 0.000584
467 0.000574
468 0.000571
469 0.000571
470 0.000579
471 0.000583
472 0.000593
473 0.000596
474 0.000596
475 0.000597
476 0.000598
477 0.000612
478 0.000617
479 0.000615
480 0.000616
481 0.000620
482 0.000622
483 0.000628
484 0.000632
485 0.000625
486 0.000610
487 0.000594
488 0.000586
489 0.000578
490 0.000578
491 0.000581
492 0.000588
493 0.000593
494 0.000584
495 0.000585
496 0.000590
497 0.000589
498 0.000593
499 0.000598
500 0.000601
501 0.000604
502 0.000608
503 0.000608
504 0.000602
505 0.000599
506 0.000596
507 0.000597
508 0.000600
509 0.000603
510 0.000608
511 0.000612
512 0.000610
513 0.000601
514 0.000598
515 0.000594
516 0.000590
517 0.000587
518 0.000578
519 0.000566
520 0.000557
521 0.000552
522 0.000543
523 0.000525
524 0.000506
525 0.000498
526 0.000506
527 0.000514
528 0.000517
529 0.000516
530 0.000512
531 0.000506
532 0.000509
533 0.000511
534 0.000506
535 0.000511
536 0.000509
537 0.000516
538 0.000515
539 0.000519
540 0.000510
541 0.000498
542 0.000491
543 0.000493
544 0.000487
545 0.000488
546 0.000485
547 0.000489
548 0.000490
549 0.000491
550 0.000491
551 0.000490
552 0.000490
553 0.000489
554 0.000477
555 0.000466
556 0.000460
557 0.000467
558 0.000465
559 0.000464
560 0.000463
561 0.000462
562 0.000459
563 0.000452
564 0.000450
565 0.000454
566 0.000469
567 0.000476
568 0.000482
569 0.000496
570 0.000502
571 0.000502
572 0.000497
573 0.000498
574 0.000489
575 0.000483
576 0.000483
577 0.000480
578 0.000479
579 0.000473
580 0.000463
581 0.000461
582 0.000466
583 0.000470
584 0.000467
585 0.000460
586 0.000455
587 0.000452
588 0.000441
589 0.000427
590 0.000422
591 0.000412
592 0.000406
593 0.000405
594 0.000407
595 0.000404
596 0.000396
597 0.000387
598 0.000372
599 0.000368
600 0.000362
601 0.000362
602 0.000355
603 0.000362
604 0.000362
605 0.000360
606 0.000361
607 0.000364
608 0.000365
609 0.000360
610 0.000355
611 0.000348
612 0.000354
613 0.000367
614 0.000381
615 0.000388
616 0.000394
617 0.000394
618 0.000392
619 0.000393
620 0.000390
621 0.000389
622 0.000387
623 0.000394
624 0.000401
625 0.000405
626 0.000410
627 0.000409
628 0.000412
629 0.000406
630 0.000396
631 0.000398
632 0.000396
633 0.000392
634 0.000383
635 0.000372
636 0.000360
637 0.000358
638 0.000350
639 0.000346
640 0.000345
641 0.000350
642 0.000351
643 0.000352
644 0.000350
645 0.000343
646 0.000336
647 0.000328
648 0.000320
649 0.000325
650 0.000326
651 0.000324
652 0.000317
653 0.000315
654 0.000320
655 0.000326
656 0.000328
657 0.000328
658 0.000322
659 0.000327
660 0.000326
661 0.000325
662 0.000318
663 0.000305
664 0.000297
665 0.000287
666 0.000275
667 0.000275
668 0.000274
669 0.000274
670 0.000271
671 0.000269
672 0.000271
673 0.000276
674 0.000287
675 0.000293
676 0.000289
677 0.000285
678 0.000278
679 0.000281
680 0.000283
681 0.000278
682 0.000271
683 0.000268
684 0.000266
685 0.000265
686 0.000264
687 0.000262
688 0.000255
689 0.000248
690 0.000246
691 0.000241
692 0.000240
693 0.000240
694 0.000233
695 0.000231
696 0.000224
697 0.000217
698 0.000210
699 0.000208
700 0.000201
701 0.000205
702 0.000204
703 0.000205
704 0.000213
705 0.000221
706 0.000228
707 0.000225
708 0.000225
709 0.000221
710 0.000214
711 0.000212
712 0.000213
713 0.000214
714 0.000211
715 0.000206
716 0.000200
717 0.000201
718 0.000198
719 0.000196
720 0.000202
721 0.000212
722 0.000217
723 0.000222
724 0.000223
725 0.000220
726 0.000224
727 0.000222
728 0.000221
729 0.000220
730 0.000225
731 0.000229
732 0.000226
733 0.000220
734 0.000212
735 0.000209
736 0.000210
737 0.000208
738 0.000215
739 0.000216
740 0.000222
741 0.000218
742 0.000206
743 0.000196
744 0.000189
745 0.000187
746 0.000186
747 0.000188
748 0.000190
749 0.000196
750 0.000194
751 0.000193
752 0.000189
753 0.000181
754 0.000175
755 0.000172
756 0.000172
757 0.000166
758 0.000164
759 0.000165
760 0.000167
761 0.000173
762 0.000178
763 0.000179
764 0.000175
765 0.000171
766 0.000164
767 0.000158
768 0.000151
769 0.000137
770 0.000127
771 0.000123
772 0.000123
773 0.000125
774 0.000123
775 0.000121
776 0.000117
777 0.000115
778 0.000114
779 0.000113
780 0.000104
781 0.000098
782 0.000095
783 0.000091
784 0.000085
785 0.000082
786 0.000080
787 0.000077
788 0.000075
789 0.000067
790 0.000060
791 0.000053
792 0.000051
793 0.000048
794 0.000044
795 0.000038
796 0.000035
797 0.000033
798 0.000028
799 0.000020
800 0.000012
801 0.000007
802 -0.000000
803 -0.000005
804 -0.000007
805 -0.000009
806 -0.000012
807 -0.000020
808 -0.000020
809 -0.000018
