# i correlation
1 0.001890
2 0.001774
3 0.001681
4 0.001596
5 0.001536
6 0.001483
7 0.001442
8 0.001411
9 0.001379
10 0.001348
11 0.001322
12 0.001304
13 0.001293
14 0.001289
15 0.001276
16 0.001267
17 0.001255
18 0.001251
19 0.001240
20 0.001222
21 0.001212
22 0.001198
23 0.001183
24 0.001162
25 0.001143
26 0.001119
27 0.001112
28 0.001094
29 0.001077
30 0.001076
31 0.001068
32 0.001061
33 0.001063
34 0.001064
35 0.001063
36 0.001059
37 0.001058
38 0.001042
39 0.001024
40 0.001015
41 0.001008
42 0.000989
43 0.000973
44 0.000960
45 0.000968
46 0.000980
47 0.000986
48 0.001000
49 0.001008
50 0.001014
51 0.001013
52 0.001000
53 0.000989
54 0.000992
55 0.001003
56 0.001016
57 0.001029
58 0.001032
59 0.001030
60 0.001009
61 0.000994
62 0.000974
63 0.000953
64 0.000951
65 0.000945
66 0.000924
67 0.000911
68 0.000898
69 0.000889
70 0.000884
71 0.000889
72 0.000899
73 0.000892
74 0.000891
75 0.000878
76 0.000864
77 0.000842
78 0.000823
79 0.000802
80 0.000787
81 0.000784
82 0.000791
83 0.000795
84 0.000793
85 0.000799
86 0.000802
87 0.000796
88 0.000789
89 0.000781
90 0.000777
91 0.000792
92 0.000811
93 0.000814
94 0.000816
95 0.000819
96 0.000807
97 0.000804
98 0.000791
99 0.000775
100 0.000769
101 0.000760
102 0.000753
103 0.000751
104 0.000754
105 0.000757
106 0.000754
107 0.000753
108 0.000748
109 0.000745
110 0.000743
111 0.000736
112 0.000725
113 0.000721
114 0.000714
115 0.000709
116 0.000700
117 0.000676
118 0.000667
119 0.000654
120 0.000643
121 0.000645
122 0.000656
123 0.000655
124 0.000651
125 0.000649
126 0.000644
127 0.000649
128 0.000655
129 0.000668
130 0.000685
131 0.000698
132 0.000715
133 0.000726
134 0.000732
135 0.000727
136 0.000712
137 0.000691
138 0.000686
139 0.000694
140 0.000705
141 0.000699
142 0.000686
143 0.000684
144 0.000682
145 0.000681
146 0.000686
147 0.000692
148 0.000681
149 0.000669
150 0.000667
151 0.000672
152 0.000687
153 0.000695
154 0.000695
155 0.000694
156 0.000693
157 0.000690
158 0.000682
159 0.000688
160 0.000685
161 0.000675
162 0.000664
163 0.000645
164 0.000635
165 0.000634
166 0.000629
167 0.000629
168 0.000631
169 0.000631
170 0.000624
171 0.000611
172 0.000587
173 0.000570
174 0.000555
175 0.000544
176 0.000537
177 0.000544
178 0.000558
179 0.000566
180 0.000568
181 0.000560
182 0.000553
183 0.000546
184 0.000537
185 0.000525
186 0.000528
187 0.000528
188 0.000527
189 0.000540
190 0.000552
191 0.000557
192 0.000562
193 0.000569
194 0.000574
195 0.000577
196 0.000583
197 0.000578
198 0.000569
199 0.000552
200 0.000544
201 0.000533
202 0.000524
203 0.000507
204 0.000496
205 0.000496
206 0.000488
207 0.000477
208 0.000475
209 0.000465
210 0.000471
211 0.000471
212 0.000467
213 0.000461
214 0.000450
215 0.000447
216 0.000441
217 0.000430
218 0.000425
219 0.000417
220 0.000413
221 0.000407
222 0.000401
223 0.000389
224 0.000390
225 0.000398
226 0.000412
227 0.000423
228 0.000430
229 0.000439
230 0.000439
231 0.000444
232 0.000443
233 0.000451
234 0.000452
235 0.000440
236 0.000437
237 0.000438
238 0.000437
239 0.000443
240 0.000452
241 0.000454
242 0.000447
243 0.000451
244 0.000447
245 0.000448
246 0.000446
247 0.000450
248 0.000450
249 0.000455
250 0.000466
251 0.000481
252 0.000492
253 0.000493
254 0.000498
255 0.000500
256 0.000491
257 0.000483
258 0.000472
259 0.000454
260 0.000441
261 0.000445
262 0.000453
263 0.000462
264 0.000455
265 0.000459
266 0.000466
267 0.000468
268 0.000469
269 0.000479
270 0.000497
271 0.000510
272 0.000516
273 0.000511
274 0.000502
275 0.000494
276 0.000472
277 0.000462
278 0.000450
279 0.000439
280 0.000439
281 0.000438
282 0.000444
283 0.000448
284 0.000448
285 0.000452
286 0.000455
287 0.000468
288 0.000463
289 0.000448
290 0.000434
291 0.000425
292 0.000425
293 0.000428
294 0.000421
295 0.000419
296 0.000413
297 0.000406
298 0.000401
299 0.000399
300 0.000409
301 0.000410
302 0.000416
303 0.000421
304 0.000422
305 0.000427
306 0.000429
307 0.000430
308 0.000435
309 0.000435
310 0.000443
311 0.000446
312 0.000442
313 0.000436
314 0.000422
315 0.000407
316 0.000390
317 0.000377
318 0.000372
319 0.000369
320 0.000368
321 0.000364
322 0.000372
323 0.000380
324 0.000376
325 0.000379
326 0.000387
327 0.000393
328 0.000402
329 0.000415
330 0.000425
331 0.000421
332 0.000409
333 0.000395
334 0.000384
335 0.000377
336 0.000364
337 0.000364
338 0.000361
339 0.000358
340 0.000356
341 0.000361
342 0.000366
343 0.000376
344 0.000384
345 0.000384
346 0.000382
347 0.000390
348 0.000392
349 0.000396
350 0.000387
351 0.000375
352 0.000369
353 0.000361
354 0.000361
355 0.000368
356 0.000379
357 0.000387
358 0.000399
359 0.000401
360 0.000400
361 0.000400
362 0.000391
363 0.000390
364 0.000387
365 0.000384
366 0.000381
367 0.000386
368 0.000389
369 0.000382
370 0.000380
371 0.000377
372 0.000379
373 0.000382
374 0.000382
375 0.000389
376 0.000380
377 0.000377
378 0.000374
379 0.000375
380 0.000383
381 0.000384
382 0.000376
383 0.000367
384 0.000365
385 0.000359
386 0.000357
387 0.000354
388 0.000350
389 0.000339
390 0.000327
391 0.000314
392 0.000305
393 0.000300
394 0.000299
395 0.000297
396 0.000297
397 0.000297
398 0.000309
399 0.000316
400 0.000318
401 0.000320
402 0.000324
403 0.000327
404 0.000335
405 0.000348
406 0.000364
407 0.000371
408 0.000369
409 0.000360
410 0.000338
411 0.000324
412 0.000315
413 0.000313
414 0.000309
415 0.000315
416 0.000318
417 0.000327
418 0.000337
419 0.000344
420 0.000354
421 0.000368
422 0.000381
423 0.000390
424 0.000381
425 0.000373
426 0.000377
427 0.000381
428 0.000380
429 0.000379
430 0.000374
431 0.000360
432 0.000355
433 0.000353
434 0.000350
435 0.000343
436 0.000343
437 0.000337
438 0.000331
439 0.000333
440 0.000334
441 0.000341
442 0.000341
443 0.000332
444 0.000335
445 0.000331
446 0.000323
447 0.000315
448 0.000307
449 0.000303
450 0.000290
451 0.000286
452 0.000289
453 0.000289
454 0.000284
455 0.000287
456 0.000285
457 0.000288
458 0.000296
459 0.000292
460 0.000296
461 0.000303
462 0.000316
463 0.000343
464 0.000356
465 0.000367
466 0.000370
467 0.000371
468 0.000366
469 0.000356
470 0.000349
471 0.000349
472 0.000349
473 0.000352
474 0.000346
475 0.000331
476 0.000317
477 0.000311
478 0.000312
479 0.000320
480 0.000328
481 0.000333
482 0.000339
483 0.000336
484 0.000329
485 0.000323
486 0.000315
487 0.000308
488 0.000300
489 0.000292
490 0.000287
491 0.000284
492 0.000276
493 0.000263
494 0.000258
495 0.000260
496 0.000252
497 0.000253
498 0.000250
499 0.000246
500 0.000255
501 0.000255
502 0.000253
503 0.000251
504 0.000239
505 0.000224
506 0.000220
507 0.000213
508 0.000221
509 0.000232
510 0.000245
511 0.000250
512 0.000260
513 0.000277
514 0.000287
515 0.000297
516 0.000304
517 0.000302
518 0.000295
519 0.000290
520 0.000298
521 0.000303
522 0.000301
523 0.000292
524 0.000284
525 0.000280
526 0.000267
527 0.000264
528 0.000263
529 0.000256
530 0.000259
531 0.000259
532 0.000264
533 0.000270
534 0.000274
535 0.000275
536 0.000277
537 0.000282
538 0.000293
539 0.000300
540 0.000302
541 0.000297
542 0.000286
543 0.000277
544 0.000268
545 0.000258
546 0.000250
547 0.000244
548 0.000234
549 0.000226
550 0.000219
551 0.000209
552 0.000206
553 0.000201
554 0.000195
555 0.000187
556 0.000177
557 0.000175
558 0.000175
559 0.000180
560 0.000180
561 0.000179
562 0.000178
563 0.000175
564 0.000169
565 0.000168
566 0.000172
567 0.000180
568 0.000188
569 0.000194
570 0.000197
571 0.000206
572 0.000209
573 0.000216
574 0.000224
575 0.000220
576 0.000215
577 0.000210
578 0.000206
579 0.000199
580 0.000199
581 0.000198
582 0.000201
583 0.000197
584 0.000200
585 0.000212
586 0.000223
587 0.000232
588 0.000240
589 0.000240
590 0.000237
591 0.000229
592 0.000231
593 0.000230
594 0.000234
595 0.000250
596 0.000262
597 0.000274
598 0.000287
599 0.000287
600 0.000291
601 0.000299
602 0.000293
603 0.000289
604 0.000285
605 0.000275
606 0.000259
607 0.000251
608 0.000246
609 0.000237
610 0.000236
611 0.000233
612 0.000234
613 0.000235
614 0.000237
615 0.000238
616 0.000238
617 0.000240
618 0.000248
619 0.000258
620 0.000264
621 0.000257
622 0.000255
623 0.000252
624 0.000250
625 0.000247
626 0.000238
627 0.000230
628 0.000215
629 0.000202
630 0.000192
631 0.000187
632 0.000180
633 0.000176
634 0.000173
635 0.000171
636 0.000166
637 0.000160
638 0.000161
639 0.000152
640 0.000138
641 0.000130
642 0.000128
643 0.000129
644 0.000126
645 0.000120
646 0.000118
647 0.000115
648 0.000114
649 0.000109
650 0.000100
651 0.000093
652 0.000093
653 0.000096
654 0.000105
655 0.000108
656 0.000116
657 0.000125
658 0.000123
659 0.000123
660 0.000138
661 0.000143
662 0.000147
663 0.000143
664 0.000129
665 0.000119
666 0.000118
667 0.000118
668 0.000122
669 0.000128
670 0.000133
671 0.000139
672 0.000135
673 0.000138
674 0.000139
675 0.000136
676 0.000133
677 0.000130
678 0.000130
679 0.000130
680 0.000123
681 0.000122
682 0.000115
683 0.000103
684 0.000099
685 0.000093
686 0.000083
687 0.000074
688 0.000059
689 0.000049
690 0.000043
691 0.000033
692 0.000031
693 0.000039
694 0.000044
695 0.000041
696 0.000040
697 0.000032
698 0.000024
699 0.000023
700 0.000022
701 0.000023
702 0.000025
703 0.000024
704 0.000018
705 0.000011
706 0.000007
707 0.000005
708 0.000004
709 0.000002
710 0.000001
711 0.000005
712 0.000009
713 0.000008
714 0.000014
715 0.000021
716 0.000031
717 0.000037
718 0.000041
719 0.000044
720 0.000042
721 0.000044
722 0.000036
723 0.000029
724 0.000028
725 0.000030
726 0.000038
727 0.000042
728 0.000051
729 0.000064
730 0.000080
731 0.000088
732 0.000099
733 0.000107
734 0.000112
735 0.000122
736 0.000129
737 0.000125
738 0.000127
739 0.000130
740 0.000128
741 0.000122
742 0.000120
743 0.000121
744 0.000120
745 0.000116
746 0.000107
747 0.000099
748 0.000103
749 0.000106
750 0.000115
751 0.000122
752 0.000128
753 0.000134
754 0.000134
755 0.000134
756 0.000129
757 0.000126
758 0.000128
759 0.000126
760 0.000124
761 0.000117
762 0.000111
763 0.000107
764 0.000107
765 0.000112
766 0.000122
767 0.000136
768 0.000140
769 0.000143
770 0.000140
771 0.000146
772 0.000144
773 0.000141
774 0.000136
775 0.000129
776 0.000122
777 0.000116
778 0.000116
779 0.000110
780 0.000106
781 0.000108
782 0.000110
783 0.000111
784 0.000111
785 0.000110
786 0.000109
787 0.000108
788 0.000107
789 0.000104
790 0.000107
791 0.000108
792 0.000106
793 0.000111
794 0.000115
795 0.000118
796 0.000119
797 0.000119
798 0.000118
799 0.000109
800 0.000109
801 0.000108
802 0.000106
803 0.000101
804 0.000093
805 0.000082
806 0.000074
807 0.000071
808 0.000069
809 0.000065
