# i correlation
1 0.001975
2 0.001868
3 0.001769
4 0.001692
5 0.001626
6 0.001563
7 0.001501
8 0.001453
9 0.001403
10 0.001373
11 0.001354
12 0.001336
13 0.001327
14 0.001315
15 0.001302
16 0.001304
17 0.001297
18 0.001293
19 0.001307
20 0.001306
21 0.001297
22 0.001283
23 0.001278
24 0.001271
25 0.001254
26 0.001229
27 0.001213
28 0.001195
29 0.001175
30 0.001163
31 0.001157
32 0.001146
33 0.001137
34 0.001126
35 0.001125
36 0.001114
37 0.001106
38 0.001094
39 0.001084
40 0.001078
41 0.001070
42 0.001052
43 0.001039
44 0.001027
45 0.001012
46 0.001005
47 0.001008
48 0.001014
49 0.001008
50 0.000984
51 0.000975
52 0.000967
53 0.000953
54 0.000938
55 0.000919
56 0.000915
57 0.000911
58 0.000908
59 0.000910
60 0.000923
61 0.000922
62 0.000934
63 0.000944
64 0.000957
65 0.000976
66 0.000981
67 0.000980
68 0.000990
69 0.000997
70 0.001013
71 0.001026
72 0.001035
73 0.001030
74 0.001020
75 0.001020
76 0.001018
77 0.001008
78 0.000986
79 0.000980
80 0.000971
81 0.000966
82 0.000961
83 0.000959
84 0.000972
85 0.000977
86 0.000974
87 0.000969
88 0.000970
89 0.000967
90 0.000973
91 0.000969
92 0.000965
93 0.000948
94 0.000936
95 0.000934
96 0.000928
97 0.000918
98 0.000899
99 0.000877
100 0.000882
101 0.000884
102 0.000879
103 0.000887
104 0.000884
105 0.000898
106 0.000900
107 0.000904
108 0.000893
109 0.000887
110 0.000869
111 0.000871
112 0.000859
113 0.000855
114 0.000834
115 0.000829
116 0.000822
117 0.000821
118 0.000815
119 0.000823
120 0.000823
121 0.000815
122 0.000806
123 0.000788
124 0.000788
125 0.000786
126 0.000767
127 0.000741
128 0.000724
129 0.000697
130 0.000665
131 0.000629
132 0.000623
133 0.000611
134 0.000598
135 0.000595
136 0.000598
137 0.000606
138 0.000609
139 0.000608
140 0.000610
141 0.000598
142 0.000598
143 0.000593
144 0.000593
145 0.000600
146 0.000606
147 0.000612
148 0.000623
149 0.000625
150 0.000629
151 0.000633
152 0.000641
153 0.000639
154 0.000640
155 0.000640
156 0.000638
157 0.000630
158 0.000613
159 0.000596
160 0.000579
161 0.000559
162 0.000547
163 0.000546
164 0.000541
165 0.000548
166 0.000537
167 0.000533
168 0.000531
169 0.000534
170 0.000537
171 0.000550
172 0.000546
173 0.000543
174 0.000536
175 0.000528
176 0.000539
177 0.000550
178 0.000549
179 0.000548
180 0.000536
181 0.000532
182 0.000532
183 0.000525
184 0.000514
185 0.000497
186 0.000479
187 0.000459
188 0.000444
189 0.000434
190 0.000433
191 0.000415
192 0.000402
193 0.000381
194 0.000362
195 0.000354
196 0.000353
197 0.000361
198 0.000364
199 0.000369
200 0.000375
201 0.000377
202 0.000377
203 0.000384
204 0.000381
205 0.000377
206 0.000362
207 0.000343
208 0.000337
209 0.000328
210 0.000317
211 0.000308
212 0.000298
213 0.000285
214 0.000282
215 0.000277
216 0.000269
217 0.000275
218 0.000276
219 0.000278
220 0.000284
221 0.000287
222 0.000297
223 0.000313
224 0.000339
225 0.000357
226 0.000364
227 0.000378
228 0.000386
229 0.000388
230 0.000392
231 0.000379
232 0.000361
233 0.000355
234 0.000350
235 0.000359
236 0.000367
237 0.000367
238 0.000358
239 0.000359
240 0.000365
241 0.000381
242 0.000403
243 0.000428
244 0.000443
245 0.000453
246 0.000450
247 0.000446
248 0.000449
249 0.000454
250 0.000453
251 0.000445
252 0.000439
253 0.000431
254 0.000423
255 0.000417
256 0.000408
257 0.000388
258 0.000373
259 0.000364
260 0.000353
261 0.000349
262 0.000355
263 0.000360
264 0.000358
265 0.000375
266 0.000393
267 0.000412
268 0.000426
269 0.000433
270 0.000438
271 0.000437
272 0.000445
273 0.000446
274 0.000456
275 0.000454
276 0.000457
277 0.000446
278 0.000428
279 0.000409
280 0.000392
281 0.000365
282 0.000348
283 0.000332
284 0.000329
285 0.000315
286 0.000293
287 0.000277
288 0.000254
289 0.000257
290 0.000265
291 0.000276
292 0.000291
293 0.000304
294 0.000308
295 0.000316
296 0.000331
297 0.000342
298 0.000349
299 0.000354
300 0.000356
301 0.000360
302 0.000366
303 0.000377
304 0.000387
305 0.000404
306 0.000412
307 0.000406
308 0.000406
309 0.000413
310 0.000419
311 0.000425
312 0.000426
313 0.000417
314 0.000415
315 0.000422
316 0.000428
317 0.000432
318 0.000430
319 0.000438
320 0.000435
321 0.000438
322 0.000436
323 0.000419
324 0.000414
325 0.000413
326 0.000412
327 0.000415
328 0.000413
329 0.000400
330 0.000405
331 0.000415
332 0.000424
333 0.000436
334 0.000434
335 0.000437
336 0.000442
337 0.000448
338 0.000451
339 0.000458
340 0.000465
341 0.000469
342 0.000475
343 0.000478
344 0.000470
345 0.000469
346 0.000474
347 0.000475
348 0.000468
349 0.000462
350 0.000460
351 0.000454
352 0.000450
353 0.000451
354 0.000452
355 0.000455
356 0.000448
357 0.000438
358 0.000416
359 0.000414
360 0.000413
361 0.000417
362 0.000416
363 0.000409
364 0.000389
365 0.000372
366 0.000360
367 0.000353
368 0.000341
369 0.000335
370 0.000326
371 0.000314
372 0.000296
373 0.000283
374 0.000272
375 0.000275
376 0.000276
377 0.000281
378 0.000284
379 0.000298
380 0.000320
381 0.000335
382 0.000345
383 0.000343
384 0.000333
385 0.000325
386 0.000306
387 0.000302
388 0.000291
389 0.000286
390 0.000279
391 0.000284
392 0.000290
393 0.000294
394 0.000298
395 0.000304
396 0.000305
397 0.000302
398 0.000298
399 0.000305
400 0.000319
401 0.000333
402 0.000345
403 0.000350
404 0.000355
405 0.000360
406 0.000369
407 0.000380
408 0.000395
409 0.000407
410 0.000413
411 0.000423
412 0.000438
413 0.000443
414 0.000449
415 0.000459
416 0.000468
417 0.000480
418 0.000492
419 0.000502
420 0.000506
421 0.000511
422 0.000524
423 0.000529
424 0.000536
425 0.000548
426 0.000549
427 0.000557
428 0.000561
429 0.000558
430 0.000557
431 0.000559
432 0.000564
433 0.000564
434 0.000558
435 0.000552
436 0.000546
437 0.000535
438 0.000532
439 0.000525
440 0.000520
441 0.000518
442 0.000512
443 0.000512
444 0.000513
445 0.000510
446 0.000504
447 0.000498
448 0.000496
449 0.000487
450 0.000477
451 0.000480
452 0.000484
453 0.000478
454 0.000472
455 0.000470
456 0.000462
457 0.000454
458 0.000433
459 0.000416
460 0.000403
461 0.000383
462 0.000364
463 0.000353
464 0.000349
465 0.000336
466 0.000333
467 0.000334
468 0.000340
469 0.000333
470 0.000335
471 0.000327
472 0.000332
473 0.000332
474 0.000337
475 0.000343
476 0.000343
477 0.000335
478 0.000324
479 0.000313
480 0.000317
481 0.000314
482 0.000313
483 0.000309
484 0.000306
485 0.000300
486 0.000303
487 0.000315
488 0.000317
489 0.000316
490 0.000314
491 0.000324
492 0.000331
493 0.000328
494 0.000314
495 0.000307
496 0.000304
497 0.000301
498 0.000301
499 0.000307
500 0.000316
501 0.000322
502 0.000327
503 0.000330
504 0.000346
505 0.000344
506 0.000340
507 0.000336
508 0.000334
509 0.000332
510 0.000321
511 0.000315
512 0.000306
513 0.000299
514 0.000299
515 0.000304
516 0.000308
517 0.000319
518 0.000329
519 0.000342
520 0.000356
521 0.000369
522 0.000371
523 0.000374
524 0.000377
525 0.000384
526 0.000382
527 0.000375
528 0.000379
529 0.000384
530 0.000381
531 0.000370
532 0.000362
533 0.000351
534 0.000349
535 0.000350
536 0.000355
537 0.000354
538 0.000350
539 0.000358
540 0.000360
541 0.000361
542 0.000362
543 0.000354
544 0.000348
545 0.000351
546 0.000349
547 0.000353
548 0.000352
549 0.000355
550 0.000351
551 0.000347
552 0.000354
553 0.000344
554 0.000334
555 0.000320
556 0.000313
557 0.000312
558 0.000313
559 0.000309
560 0.000313
561 0.000316
562 0.000321
563 0.000324
564 0.000326
565 0.000323
566 0.000318
567 0.000306
568 0.000299
569 0.000294
570 0.000298
571 0.000300
572 0.000306
573 0.000310
574 0.000303
575 0.000295
576 0.000297
577 0.000305
578 0.000305
579 0.000305
580 0.000310
581 0.000321
582 0.000323
583 0.000333
584 0.000338
585 0.000347
586 0.000343
587 0.000339
588 0.000338
589 0.000339
590 0.000339
591 0.000335
592 0.000331
593 0.000323
594 0.000313
595 0.000308
596 0.000304
597 0.000293
598 0.000279
599 0.000265
600 0.000256
601 0.000244
602 0.000231
603 0.000215
604 0.000209
605 0.000213
606 0.000221
607 0.000223
608 0.000227
609 0.000242
610 0.000252
611 0.000262
612 0.000270
613 0.000261
614 0.000250
615 0.000241
616 0.000231
617 0.000218
618 0.000196
619 0.000180
620 0.000171
621 0.000161
622 0.000154
623 0.000146
624 0.000143
625 0.000142
626 0.000147
627 0.000143
628 0.000145
629 0.000153
630 0.000166
631 0.000171
632 0.000173
633 0.000169
634 0.000158
635 0.000144
636 0.000140
637 0.000139
638 0.000127
639 0.000113
640 0.000095
641 0.000080
642 0.000069
643 0.000068
644 0.000066
645 0.000068
646 0.000075
647 0.000089
648 0.000104
649 0.000111
650 0.000113
651 0.000112
652 0.000121
653 0.000127
654 0.000136
655 0.000136
656 0.000134
657 0.000136
658 0.000139
659 0.000138
660 0.000137
661 0.000135
662 0.000131
663 0.000125
664 0.000118
665 0.000111
666 0.000099
667 0.000100
668 0.000099
669 0.000100
670 0.000096
671 0.000103
672 0.000108
673 0.000117
674 0.000128
675 0.000135
676 0.000138
677 0.000146
678 0.000155
679 0.000154
680 0.000147
681 0.000151
682 0.000151
683 0.000154
684 0.000155
685 0.000163
686 0.000170
687 0.000174
688 0.000171
689 0.000167
690 0.000164
691 0.000159
692 0.000165
693 0.000160
694 0.000157
695 0.000146
696 0.000139
697 0.000139
698 0.000133
699 0.000130
700 0.000127
701 0.000132
702 0.000137
703 0.000134
704 0.000128
705 0.000129
706 0.000126
707 0.000129
708 0.000127
709 0.000123
710 0.000125
711 0.000118
712 0.000117
713 0.000114
714 0.000107
715 0.000101
716 0.000101
717 0.000098
718 0.000102
719 0.000100
720 0.000108
721 0.000113
722 0.000113
723 0.000114
724 0.000112
725 0.000105
726 0.000101
727 0.000099
728 0.000098
729 0.000095
730 0.000089
731 0.000086
732 0.000084
733 0.000082
734 0.000087
735 0.000087
736 0.000087
737 0.000087
738 0.000084
739 0.000080
740 0.000080
741 0.000084
742 0.000088
743 0.000089
744 0.000091
745 0.000086
746 0.000080
747 0.000076
748 0.000076
749 0.000079
750 0.000086
751 0.000090
752 0.000094
753 0.000097
754 0.000108
755 0.000112
756 0.000113
757 0.000120
758 0.000127
759 0.000138
760 0.000144
761 0.000149
762 0.000156
763 0.000158
764 0.000155
765 0.000150
766 0.000143
767 0.000142
768 0.000136
769 0.000135
770 0.000133
771 0.000129
772 0.000129
773 0.000130
774 0.000130
775 0.000127
776 0.000124
777 0.000117
778 0.000115
779 0.000104
780 0.000098
781 0.000092
782 0.000089
783 0.000090
784 0.000085
785 0.000082
786 0.000077
787 0.000071
788 0.000069
789 0.000066
790 0.000058
791 0.000053
792 0.000052
793 0.000055
794 0.000064
795 0.000073
796 0.000076
797 0.000083
798 0.000084
799 0.000086
800 0.000088
801 0.000089
802 0.000091
803 0.000088
804 0.000074
805 0.000067
806 0.000061
807 0.000053
808 0.000055
809 0.000047
