# i correlation
1 0.002260
2 0.002164
3 0.002071
4 0.001998
5 0.001924
6 0.001871
7 0.001837
8 0.001826
9 0.001800
10 0.001775
11 0.001763
12 0.001759
13 0.001747
14 0.001732
15 0.001712
16 0.001695
17 0.001665
18 0.001642
19 0.001627
20 0.001616
21 0.001611
22 0.001597
23 0.001591
24 0.001584
25 0.001581
26 0.001586
27 0.001577
28 0.001562
29 0.001538
30 0.001512
31 0.001481
32 0.001471
33 0.001463
34 0.001452
35 0.001446
36 0.001450
37 0.001443
38 0.001437
39 0.001426
40 0.001425
41 0.001418
42 0.001410
43 0.001403
44 0.001408
45 0.001402
46 0.001390
47 0.001364
48 0.001338
49 0.001304
50 0.001272
51 0.001258
52 0.001263
53 0.001265
54 0.001261
55 0.001254
56 0.001253
57 0.001245
58 0.001247
59 0.001255
60 0.001280
61 0.001305
62 0.001319
63 0.001332
64 0.001335
65 0.001337
66 0.001330
67 0.001319
68 0.001308
69 0.001292
70 0.001280
71 0.001265
72 0.001264
73 0.001265
74 0.001275
75 0.001279
76 0.001286
77 0.001290
78 0.001299
79 0.001303
80 0.001296
81 0.001285
82 0.001276
83 0.001258
84 0.001242
85 0.001236
86 0.001221
87 0.001209
88 0.001212
89 0.001216
90 0.001223
91 0.001223
92 0.001216
93 0.001208
94 0.001192
95 0.001169
96 0.001156
97 0.001149
98 0.001149
99 0.001145
100 0.001137
101 0.001134
102 0.001128
103 0.001119
104 0.001115
105 0.001111
106 0.001118
107 0.001121
108 0.001122
109 0.001130
110 0.001133
111 0.001147
112 0.001147
113 0.001145
114 0.001141
115 0.001132
116 0.001120
117 0.001116
118 0.001111
119 0.001107
120 0.001100
121 0.001088
122 0.001080
123 0.001061
124 0.001055
125 0.001039
126 0.001030
127 0.001026
128 0.001020
129 0.001016
130 0.001016
131 0.001022
132 0.001030
133 0.001041
134 0.001049
135 0.001057
136 0.001057
137 0.001051
138 0.001037
139 0.001036
140 0.001029
141 0.001023
142 0.001024
143 0.001031
144 0.001039
145 0.001055
146 0.001043
147 0.001032
148 0.001030
149 0.001008
150 0.000983
151 0.000963
152 0.000945
153 0.000939
154 0.000938
155 0.000944
156 0.000954
157 0.000962
158 0.000967
159 0.000968
160 0.000965
161 0.000951
162 0.000935
163 0.000929
164 0.000922
165 0.000909
166 0.000891
167 0.000880
168 0.000876
169 0.000885
170 0.000880
171 0.000887
172 0.000884
173 0.000885
174 0.000884
175 0.000890
176 0.000898
177 0.000902
178 0.000890
179 0.000880
180 0.000881
181 0.000879
182 0.000870
183 0.000857
184 0.000848
185 0.000841
186 0.000834
187 0.000830
188 0.000824
189 0.000831
190 0.000840
191 0.000841
192 0.000847
193 0.000842
194 0.000843
195 0.000843
196 0.000852
197 0.000852
198 0.000849
199 0.000839
200 0.000837
201 0.000825
202 0.000816
203 0.000812
204 0.000815
205 0.000816
206 0.000808
207 0.000807
208 0.000805
209 0.000815
210 0.000816
211 0.000820
212 0.000817
213 0.000817
214 0.000817
215 0.000819
216 0.000829
217 0.000832
218 0.000835
219 0.000844
220 0.000850
221 0.000854
222 0.000857
223 0.000870
224 0.000877
225 0.000882
226 0.000877
227 0.000872
228 0.000870
229 0.000863
230 0.000869
231 0.000854
232 0.000844
233 0.000836
234 0.000821
235 0.000798
236 0.000779
237 0.000771
238 0.000760
239 0.000755
240 0.000743
241 0.000743
242 0.000739
243 0.000730
244 0.000710
245 0.000684
246 0.000664
247 0.000650
248 0.000640
249 0.000630
250 0.000631
251 0.000634
252 0.000634
253 0.000635
254 0.000645
255 0.000662
256 0.000680
257 0.000694
258 0.000701
259 0.000701
260 0.000696
261 0.000689
262 0.000677
263 0.000665
264 0.000638
265 0.000626
266 0.000617
267 0.000616
268 0.000615
269 0.000628
270 0.000647
271 0.000653
272 0.000653
273 0.000645
274 0.000649
275 0.000649
276 0.000657
277 0.000659
278 0.000664
279 0.000667
280 0.000668
281 0.000659
282 0.000660
283 0.000664
284 0.000674
285 0.000672
286 0.000677
287 0.000675
288 0.000684
289 0.000675
290 0.000676
291 0.000677
292 0.000674
293 0.000671
294 0.000664
295 0.000666
296 0.000661
297 0.000646
298 0.000634
299 0.000622
300 0.000614
301 0.000608
302 0.000613
303 0.000621
304 0.000637
305 0.000645
306 0.000649
307 0.000646
308 0.000649
309 0.000646
310 0.000623
311 0.000609
312 0.000590
313 0.000573
314 0.000570
315 0.000571
316 0.000585
317 0.000590
318 0.000595
319 0.000593
320 0.000597
321 0.000592
322 0.000587
323 0.000580
324 0.000577
325 0.000571
326 0.000547
327 0.000529
328 0.000513
329 0.000505
330 0.000504
331 0.000510
332 0.000529
333 0.000538
334 0.000548
335 0.000559
336 0.000569
337 0.000577
338 0.000577
339 0.000575
340 0.000576
341 0.000575
342 0.000563
343 0.000562
344 0.000568
345 0.000569
346 0.000575
347 0.000574
348 0.000584
349 0.000590
350 0.000595
351 0.000599
352 0.000605
353 0.000611
354 0.000612
355 0.000607
356 0.000601
357 0.000595
358 0.000592
359 0.000583
360 0.000582
361 0.000590
362 0.000599
363 0.000599
364 0.000602
365 0.000611
366 0.000601
367 0.000604
368 0.000609
369 0.000618
370 0.000624
371 0.000622
372 0.000626
373 0.000626
374 0.000625
375 0.000620
376 0.000625
377 0.000632
378 0.000641
379 0.000646
380 0.000653
381 0.000655
382 0.000654
383 0.000658
384 0.000660
385 0.000668
386 0.000667
387 0.000668
388 0.000665
389 0.000660
390 0.000651
391 0.000651
392 0.000641
393 0.000636
394 0.000632
395 0.000633
396 0.000633
397 0.000638
398 0.000633
399 0.000632
400 0.000626
401 0.000615
402 0.000595
403 0.000572
404 0.000557
405 0.000555
406 0.000553
407 0.000544
408 0.000536
409 0.000529
410 0.000537
411 0.000534
412 0.000532
413 0.000535
414 0.000535
415 0.000535
416 0.000526
417 0.000528
418 0.000530
419 0.000528
420 0.000521
421 0.000514
422 0.000501
423 0.000497
424 0.000487
425 0.000485
426 0.000479
427 0.000475
428 0.000471
429 0.000462
430 0.000444
431 0.000434
432 0.000418
433 0.000411
434 0.000406
435 0.000405
436 0.000402
437 0.000408
438 0.000407
439 0.000411
440 0.000411
441 0.000403
442 0.000383
443 0.000374
444 0.000362
445 0.000351
446 0.000346
447 0.000355
448 0.000362
449 0.000371
450 0.000382
451 0.000397
452 0.000413
453 0.000425
454 0.000433
455 0.000437
456 0.000431
457 0.000426
458 0.000419
459 0.000420
460 0.000412
461 0.000405
462 0.000404
463 0.000406
464 0.000404
465 0.000397
466 0.000392
467 0.000391
468 0.000379
469 0.000360
470 0.000346
471 0.000339
472 0.000332
473 0.000335
474 0.000339
475 0.000344
476 0.000353
477 0.000357
478 0.000361
479 0.000366
480 0.000376
481 0.000380
482 0.000379
483 0.000369
484 0.000371
485 0.000371
486 0.000356
487 0.000337
488 0.000323
489 0.000324
490 0.000315
491 0.000315
492 0.000313
493 0.000315
494 0.000312
495 0.000310
496 0.000315
497 0.000312
498 0.000313
499 0.000316
500 0.000325
501 0.000330
502 0.000330
503 0.000331
504 0.000335
505 0.000323
506 0.000316
507 0.000312
508 0.000303
509 0.000294
510 0.000291
511 0.000299
512 0.000312
513 0.000325
514 0.000339
515 0.000355
516 0.000367
517 0.000381
518 0.000387
519 0.000390
520 0.000390
521 0.000385
522 0.000383
523 0.000377
524 0.000373
525 0.000379
526 0.000377
527 0.000381
528 0.000384
529 0.000382
530 0.000384
531 0.000376
532 0.000369
533 0.000359
534 0.000347
535 0.000333
536 0.000329
537 0.000328
538 0.000328
539 0.000337
540 0.000338
541 0.000346
542 0.000347
543 0.000344
544 0.000341
545 0.000348
546 0.000346
547 0.000346
548 0.000343
549 0.000339
550 0.000330
551 0.000323
552 0.000316
553 0.000317
554 0.000310
555 0.000311
556 0.000310
557 0.000315
558 0.000320
559 0.000328
560 0.000333
561 0.000332
562 0.000332
563 0.000328
564 0.000325
565 0.000324
566 0.000323
567 0.000319
568 0.000317
569 0.000312
570 0.000310
571 0.000307
572 0.000304
573 0.000300
574 0.000303
575 0.000301
576 0.000308
577 0.000308
578 0.000306
579 0.000304
580 0.000299
581 0.000299
582 0.000301
583 0.000306
584 0.000303
585 0.000311
586 0.000313
587 0.000320
588 0.000322
589 0.000319
590 0.000315
591 0.000324
592 0.000339
593 0.000354
594 0.000364
595 0.000382
596 0.000391
597 0.000400
598 0.000400
599 0.000400
600 0.000404
601 0.000401
602 0.000404
603 0.000407
604 0.000409
605 0.000401
606 0.000396
607 0.000390
608 0.000389
609 0.000390
610 0.000393
611 0.000395
612 0.000399
613 0.000403
614 0.000403
615 0.000409
616 0.000411
617 0.000415
618 0.000415
619 0.000412
620 0.000410
621 0.000411
622 0.000404
623 0.000398
624 0.000394
625 0.000392
626 0.000383
627 0.000374
628 0.000373
629 0.000378
630 0.000377
631 0.000370
632 0.000363
633 0.000358
634 0.000349
635 0.000344
636 0.000350
637 0.000358
638 0.000372
639 0.000389
640 0.000396
641 0.000402
642 0.000395
643 0.000384
644 0.000378
645 0.000371
646 0.000360
647 0.000353
648 0.000353
649 0.000362
650 0.000361
651 0.000355
652 0.000350
653 0.000346
654 0.000342
655 0.000339
656 0.000343
657 0.000346
658 0.000347
659 0.000341
660 0.000338
661 0.000342
662 0.000340
663 0.000337
664 0.000332
665 0.000330
666 0.000322
667 0.000318
668 0.000309
669 0.000305
670 0.000305
671 0.000309
672 0.000308
673 0.000312
674 0.000312
675 0.000319
676 0.000325
677 0.000327
678 0.000323
679 0.000316
680 0.000313
681 0.000311
682 0.000305
683 0.000299
684 0.000299
685 0.000301
686 0.000294
687 0.000288
688 0.000281
689 0.000277
690 0.000272
691 0.000264
692 0.000259
693 0.000259
694 0.000259
695 0.000255
696 0.000257
697 0.000262
698 0.000261
699 0.000254
700 0.000245
701 0.000245
702 0.000241
703 0.000234
704 0.000229
705 0.000230
706 0.000229
707 0.000224
708 0.000215
709 0.000213
710 0.000213
711 0.000210
712 0.000203
713 0.000199
714 0.000198
715 0.000197
716 0.000190
717 0.000187
718 0.000185
719 0.000184
720 0.000176
721 0.000175
722 0.000175
723 0.000176
724 0.000172
725 0.000167
726 0.000166
727 0.000165
728 0.000166
729 0.000169
730 0.000174
731 0.000180
732 0.000184
733 0.000191
734 0.000196
735 0.000200
736 0.000208
737 0.000216
738 0.000219
739 0.000227
740 0.000228
741 0.000232
742 0.000238
743 0.000243
744 0.000237
745 0.000242
746 0.000238
747 0.000238
748 0.000239
749 0.000241
750 0.000242
751 0.000245
752 0.000247
753 0.000244
754 0.000241
755 0.000237
756 0.000235
757 0.000233
758 0.000237
759 0.000238
760 0.000232
761 0.000232
762 0.000231
763 0.000227
764 0.000221
765 0.000215
766 0.000210
767 0.000205
768 0.000202
769 0.000204
770 0.000203
771 0.000198
772 0.000195
773 0.000197
774 0.000200
775 0.000203
776 0.000202
777 0.000198
778 0.000197
779 0.000188
780 0.000179
781 0.000168
782 0.000159
783 0.000158
784 0.000156
785 0.000156
786 0.000154
787 0.000154
788 0.000149
789 0.000145
790 0.000140
791 0.000137
792 0.000134
793 0.000127
794 0.000124
795 0.000122
796 0.000118
797 0.000111
798 0.000106
799 0.000101
800 0.000096
801 0.000092
802 0.000093
803 0.000089
804 0.000090
805 0.000086
806 0.000083
807 0.000079
808 0.000075
809 0.000076
