# i correlation
1 0.001952
2 0.001834
3 0.001743
4 0.001660
5 0.001597
6 0.001550
7 0.001511
8 0.001471
9 0.001438
10 0.001405
11 0.001371
12 0.001343
13 0.001335
14 0.001324
15 0.001307
16 0.001280
17 0.001269
18 0.001260
19 0.001244
20 0.001236
21 0.001224
22 0.001230
23 0.001240
24 0.001245
25 0.001264
26 0.001280
27 0.001285
28 0.001281
29 0.001257
30 0.001229
31 0.001209
32 0.001187
33 0.001169
34 0.001150
35 0.001144
36 0.001137
37 0.001122
38 0.001105
39 0.001098
40 0.001090
41 0.001090
42 0.001093
43 0.001087
44 0.001080
45 0.001077
46 0.001076
47 0.001074
48 0.001070
49 0.001074
50 0.001073
51 0.001080
52 0.001075
53 0.001067
54 0.001068
55 0.001075
56 0.001075
57 0.001059
58 0.001051
59 0.001057
60 0.001058
61 0.001058
62 0.001062
63 0.001060
64 0.001050
65 0.001034
66 0.001022
67 0.001009
68 0.000997
69 0.000997
70 0.001005
71 0.001009
72 0.001014
73 0.001023
74 0.001018
75 0.001020
76 0.001032
77 0.001031
78 0.001028
79 0.001030
80 0.001051
81 0.001060
82 0.001060
83 0.001054
84 0.001053
85 0.001051
86 0.001046
87 0.001051
88 0.001050
89 0.001038
90 0.001041
91 0.001029
92 0.001004
93 0.000987
94 0.000980
95 0.000972
96 0.000970
97 0.000961
98 0.000961
99 0.000969
100 0.000970
101 0.000973
102 0.000981
103 0.000989
104 0.000985
105 0.000980
106 0.000975
107 0.000972
108 0.000967
109 0.000964
110 0.000962
111 0.000952
112 0.000947
113 0.000937
114 0.000925
115 0.000925
116 0.000922
117 0.000913
118 0.000903
119 0.000885
120 0.000861
121 0.000835
122 0.000829
123 0.000820
124 0.000807
125 0.000810
126 0.000820
127 0.000828
128 0.000833
129 0.000838
130 0.000838
131 0.000842
132 0.000854
133 0.000859
134 0.000865
135 0.000871
136 0.000874
137 0.000882
138 0.000889
139 0.000894
140 0.000899
141 0.000906
142 0.000906
143 0.000903
144 0.000895
145 0.000893
146 0.000890
147 0.000874
148 0.000855
149 0.000842
150 0.000842
151 0.000842
152 0.000835
153 0.000832
154 0.000835
155 0.000836
156 0.000827
157 0.000814
158 0.000815
159 0.000816
160 0.000813
161 0.000816
162 0.000806
163 0.000789
164 0.000774
165 0.000764
166 0.000752
167 0.000741
168 0.000749
169 0.000751
170 0.000745
171 0.000735
172 0.000726
173 0.000723
174 0.000722
175 0.000714
176 0.000708
177 0.000715
178 0.000721
179 0.000718
180 0.000713
181 0.000732
182 0.000746
183 0.000752
184 0.000755
185 0.000749
186 0.000751
187 0.000759
188 0.000770
189 0.000764
190 0.000762
191 0.000759
192 0.000757
193 0.000750
194 0.000747
195 0.000748
196 0.000738
197 0.000732
198 0.000728
199 0.000719
200 0.000705
201 0.000701
202 0.000687
203 0.000668
204 0.000655
205 0.000653
206 0.000644
207 0.000642
208 0.000645
209 0.000654
210 0.000670
211 0.000667
212 0.000666
213 0.000674
214 0.000684
215 0.000686
216 0.000684
217 0.000685
218 0.000686
219 0.000691
220 0.000687
221 0.000677
222 0.000664
223 0.000655
224 0.000650
225 0.000651
226 0.000646
227 0.000646
228 0.000644
229 0.000642
230 0.000640
231 0.000637
232 0.000638
233 0.000640
234 0.000643
235 0.000642
236 0.000640
237 0.000650
238 0.000653
239 0.000650
240 0.000653
241 0.000671
242 0.000691
243 0.000708
244 0.000721
245 0.000728
246 0.000730
247 0.000714
248 0.000705
249 0.000712
250 0.000711
251 0.000705
252 0.000691
253 0.000685
254 0.000684
255 0.000684
256 0.000681
257 0.000681
258 0.000676
259 0.000670
260 0.000665
261 0.000653
262 0.000644
263 0.000648
264 0.000656
265 0.000650
266 0.000636
267 0.000618
268 0.000612
269 0.000603
270 0.000584
271 0.000580
272 0.000578
273 0.000566
274 0.000554
275 0.000537
276 0.000530
277 0.000531
278 0.000534
279 0.000535
280 0.000533
281 0.000546
282 0.000554
283 0.000553
284 0.000551
285 0.000543
286 0.000524
287 0.000511
288 0.000510
289 0.000507
290 0.000517
291 0.000532
292 0.000525
293 0.000517
294 0.000507
295 0.000491
296 0.000475
297 0.000464
298 0.000442
299 0.000425
300 0.000422
301 0.000416
302 0.000405
303 0.000406
304 0.000409
305 0.000408
306 0.000406
307 0.000409
308 0.000414
309 0.000417
310 0.000430
311 0.000437
312 0.000433
313 0.000432
314 0.000436
315 0.000441
316 0.000446
317 0.000453
318 0.000467
319 0.000484
320 0.000491
321 0.000493
322 0.000494
323 0.000496
324 0.000501
325 0.000514
326 0.000519
327 0.000523
328 0.000525
329 0.000525
330 0.000532
331 0.000536
332 0.000544
333 0.000556
334 0.000551
335 0.000547
336 0.000555
337 0.000567
338 0.000573
339 0.000588
340 0.000594
341 0.000586
342 0.000573
343 0.000564
344 0.000561
345 0.000568
346 0.000568
347 0.000574
348 0.000570
349 0.000570
350 0.000570
351 0.000574
352 0.000592
353 0.000605
354 0.000617
355 0.000621
356 0.000619
357 0.000606
358 0.000589
359 0.000576
360 0.000564
361 0.000549
362 0.000532
363 0.000518
364 0.000505
365 0.000484
366 0.000465
367 0.000460
368 0.000444
369 0.000445
370 0.000444
371 0.000442
372 0.000446
373 0.000447
374 0.000446
375 0.000450
376 0.000444
377 0.000435
378 0.000439
379 0.000445
380 0.000454
381 0.000465
382 0.000474
383 0.000473
384 0.000473
385 0.000464
386 0.000446
387 0.000434
388 0.000430
389 0.000418
390 0.000407
391 0.000394
392 0.000388
393 0.000384
394 0.000391
395 0.000400
396 0.000406
397 0.000402
398 0.000396
399 0.000390
400 0.000389
401 0.000378
402 0.000368
403 0.000372
404 0.000369
405 0.000361
406 0.000359
407 0.000363
408 0.000358
409 0.000357
410 0.000355
411 0.000355
412 0.000353
413 0.000358
414 0.000355
415 0.000355
416 0.000352
417 0.000348
418 0.000355
419 0.000364
420 0.000382
421 0.000389
422 0.000390
423 0.000405
424 0.000413
425 0.000412
426 0.000414
427 0.000416
428 0.000414
429 0.000414
430 0.000420
431 0.000424
432 0.000430
433 0.000436
434 0.000442
435 0.000445
436 0.000443
437 0.000443
438 0.000437
439 0.000433
440 0.000430
441 0.000432
442 0.000428
443 0.000430
444 0.000424
445 0.000423
446 0.000415
447 0.000393
448 0.000384
449 0.000382
450 0.000381
451 0.000377
452 0.000365
453 0.000346
454 0.000338
455 0.000337
456 0.000339
457 0.000338
458 0.000339
459 0.000347
460 0.000343
461 0.000335
462 0.000330
463 0.000329
464 0.000321
465 0.000319
466 0.000321
467 0.000311
468 0.000307
469 0.000313
470 0.000313
471 0.000312
472 0.000321
473 0.000323
474 0.000325
475 0.000325
476 0.000328
477 0.000324
478 0.000324
479 0.000327
480 0.000333
481 0.000332
482 0.000337
483 0.000347
484 0.000354
485 0.000361
486 0.000370
487 0.000377
488 0.000364
489 0.000352
490 0.000340
491 0.000339
492 0.000347
493 0.000350
494 0.000349
495 0.000349
496 0.000348
497 0.000352
498 0.000356
499 0.000351
500 0.000359
501 0.000367
502 0.000358
503 0.000342
504 0.000324
505 0.000308
506 0.000301
507 0.000303
508 0.000305
509 0.000309
510 0.000316
511 0.000313
512 0.000309
513 0.000308
514 0.000310
515 0.000316
516 0.000302
517 0.000290
518 0.000277
519 0.000261
520 0.000255
521 0.000252
522 0.000253
523 0.000256
524 0.000250
525 0.000248
526 0.000243
527 0.000235
528 0.000230
529 0.000219
530 0.000206
531 0.000197
532 0.000188
533 0.000184
534 0.000179
535 0.000182
536 0.000181
537 0.000179
538 0.000180
539 0.000184
540 0.000189
541 0.000194
542 0.000200
543 0.000199
544 0.000194
545 0.000186
546 0.000180
547 0.000170
548 0.000163
549 0.000157
550 0.000148
551 0.000134
552 0.000121
553 0.000116
554 0.000107
555 0.000097
556 0.000100
557 0.000101
558 0.000096
559 0.000090
560 0.000085
561 0.000077
562 0.000079
563 0.000079
564 0.000084
565 0.000090
566 0.000103
567 0.000116
568 0.000133
569 0.000144
570 0.000147
571 0.000153
572 0.000157
573 0.000163
574 0.000174
575 0.000178
576 0.000177
577 0.000180
578 0.000177
579 0.000173
580 0.000162
581 0.000158
582 0.000171
583 0.000177
584 0.000182
585 0.000187
586 0.000193
587 0.000188
588 0.000192
589 0.000197
590 0.000197
591 0.000203
592 0.000203
593 0.000203
594 0.000210
595 0.000219
596 0.000223
597 0.000226
598 0.000221
599 0.000215
600 0.000215
601 0.000222
602 0.000233
603 0.000239
604 0.000243
605 0.000239
606 0.000222
607 0.000207
608 0.000194
609 0.000184
610 0.000176
611 0.000169
612 0.000160
613 0.000155
614 0.000149
615 0.000146
616 0.000139
617 0.000135
618 0.000137
619 0.000143
620 0.000146
621 0.000152
622 0.000160
623 0.000164
624 0.000170
625 0.000170
626 0.000168
627 0.000173
628 0.000181
629 0.000189
630 0.000193
631 0.000190
632 0.000185
633 0.000186
634 0.000179
635 0.000169
636 0.000161
637 0.000159
638 0.000166
639 0.000168
640 0.000172
641 0.000173
642 0.000173
643 0.000175
644 0.000176
645 0.000169
646 0.000163
647 0.000156
648 0.000152
649 0.000147
650 0.000143
651 0.000141
652 0.000143
653 0.000147
654 0.000152
655 0.000155
656 0.000157
657 0.000162
658 0.000163
659 0.000168
660 0.000165
661 0.000156
662 0.000146
663 0.000143
664 0.000147
665 0.000148
666 0.000157
667 0.000160
668 0.000162
669 0.000168
670 0.000174
671 0.000177
672 0.000176
673 0.000182
674 0.000189
675 0.000202
676 0.000214
677 0.000223
678 0.000230
679 0.000234
680 0.000235
681 0.000231
682 0.000225
683 0.000218
684 0.000212
685 0.000215
686 0.000211
687 0.000204
688 0.000200
689 0.000195
690 0.000189
691 0.000185
692 0.000188
693 0.000183
694 0.000182
695 0.000179
696 0.000175
697 0.000165
698 0.000157
699 0.000159
700 0.000161
701 0.000167
702 0.000176
703 0.000189
704 0.000200
705 0.000208
706 0.000217
707 0.000219
708 0.000225
709 0.000228
710 0.000230
711 0.000235
712 0.000235
713 0.000230
714 0.000228
715 0.000221
716 0.000206
717 0.000195
718 0.000190
719 0.000184
720 0.000177
721 0.000168
722 0.000156
723 0.000146
724 0.000135
725 0.000124
726 0.000116
727 0.000114
728 0.000112
729 0.000116
730 0.000119
731 0.000118
732 0.000113
733 0.000111
734 0.000115
735 0.000118
736 0.000123
737 0.000126
738 0.000123
739 0.000123
740 0.000132
741 0.000140
742 0.000146
743 0.000145
744 0.000142
745 0.000133
746 0.000124
747 0.000112
748 0.000100
749 0.000088
750 0.000083
751 0.000078
752 0.000075
753 0.000075
754 0.000076
755 0.000080
756 0.000086
757 0.000089
758 0.000092
759 0.000096
760 0.000101
761 0.000100
762 0.000096
763 0.000099
764 0.000101
765 0.000106
766 0.000113
767 0.000115
768 0.000116
769 0.000119
770 0.000125
771 0.000123
772 0.000117
773 0.000117
774 0.000116
775 0.000116
776 0.000117
777 0.000115
778 0.000114
779 0.000111
780 0.000104
781 0.000099
782 0.000098
783 0.000104
784 0.000109
785 0.000106
786 0.000103
787 0.000097
788 0.000093
789 0.000094
790 0.000092
791 0.000101
792 0.000111
793 0.000121
794 0.000123
795 0.000125
796 0.000124
797 0.000123
798 0.000125
799 0.000132
800 0.000132
801 0.000129
802 0.000127
803 0.000121
804 0.000114
805 0.000109
806 0.000107
807 0.000101
808 0.000093
809 0.000082
