# i correlation
1 0.002184
2 0.002080
3 0.001984
4 0.001894
5 0.001814
6 0.001753
7 0.001703
8 0.001662
9 0.001621
10 0.001581
11 0.001552
12 0.001546
13 0.001528
14 0.001513
15 0.001504
16 0.001492
17 0.001486
18 0.001482
19 0.001479
20 0.001470
21 0.001449
22 0.001432
23 0.001422
24 0.001416
25 0.001416
26 0.001409
27 0.001407
28 0.001405
29 0.001400
30 0.001389
31 0.001379
32 0.001363
33 0.001342
34 0.001330
35 0.001320
36 0.001312
37 0.001308
38 0.001301
39 0.001304
40 0.001311
41 0.001309
42 0.001310
43 0.001299
44 0.001292
45 0.001293
46 0.001285
47 0.001287
48 0.001299
49 0.001305
50 0.001297
51 0.001297
52 0.001296
53 0.001284
54 0.001275
55 0.001261
56 0.001262
57 0.001262
58 0.001257
59 0.001258
60 0.001256
61 0.001253
62 0.001234
63 0.001224
64 0.001201
65 0.001189
66 0.001173
67 0.001156
68 0.001149
69 0.001141
70 0.001124
71 0.001118
72 0.001090
73 0.001063
74 0.001033
75 0.001017
76 0.001004
77 0.001005
78 0.001003
79 0.000999
80 0.000985
81 0.000979
82 0.000971
83 0.000957
84 0.000955
85 0.000949
86 0.000952
87 0.000959
88 0.000974
89 0.000981
90 0.000984
91 0.000977
92 0.000966
93 0.000960
94 0.000959
95 0.000961
96 0.000977
97 0.000987
98 0.000998
99 0.000986
100 0.000985
101 0.000984
102 0.000977
103 0.000975
104 0.000981
105 0.000995
106 0.001008
107 0.001018
108 0.001033
109 0.001040
110 0.001050
111 0.001045
112 0.001043
113 0.001051
114 0.001045
115 0.001031
116 0.001017
117 0.001003
118 0.000993
119 0.000987
120 0.000986
121 0.000976
122 0.000967
123 0.000964
124 0.000969
125 0.000962
126 0.000962
127 0.000967
128 0.000976
129 0.000975
130 0.000964
131 0.000946
132 0.000935
133 0.000917
134 0.000901
135 0.000887
136 0.000880
137 0.000873
138 0.000876
139 0.000879
140 0.000880
141 0.000883
142 0.000881
143 0.000880
144 0.000873
145 0.000864
146 0.000861
147 0.000854
148 0.000852
149 0.000859
150 0.000881
151 0.000886
152 0.000900
153 0.000910
154 0.000911
155 0.000920
156 0.000930
157 0.000941
158 0.000946
159 0.000954
160 0.000943
161 0.000936
162 0.000923
163 0.000899
164 0.000874
165 0.000857
166 0.000841
167 0.000827
168 0.000825
169 0.000839
170 0.000857
171 0.000873
172 0.000882
173 0.000887
174 0.000896
175 0.000887
176 0.000886
177 0.000893
178 0.000890
179 0.000883
180 0.000876
181 0.000872
182 0.000862
183 0.000859
184 0.000858
185 0.000849
186 0.000841
187 0.000821
188 0.000805
189 0.000799
190 0.000793
191 0.000789
192 0.000790
193 0.000789
194 0.000780
195 0.000774
196 0.000763
197 0.000765
198 0.000767
199 0.000771
200 0.000772
201 0.000784
202 0.000786
203 0.000783
204 0.000782
205 0.000779
206 0.000777
207 0.000777
208 0.000775
209 0.000777
210 0.000782
211 0.000802
212 0.000811
213 0.000829
214 0.000840
215 0.000846
216 0.000850
217 0.000854
218 0.000851
219 0.000849
220 0.000849
221 0.000850
222 0.000849
223 0.000845
224 0.000830
225 0.000816
226 0.000808
227 0.000803
228 0.000799
229 0.000807
230 0.000817
231 0.000816
232 0.000812
233 0.000798
234 0.000792
235 0.000788
236 0.000784
237 0.000781
238 0.000782
239 0.000774
240 0.000767
241 0.000763
242 0.000755
243 0.000753
244 0.000741
245 0.000728
246 0.000717
247 0.000706
248 0.000706
249 0.000707
250 0.000707
251 0.000715
252 0.000724
253 0.000725
254 0.000721
255 0.000709
256 0.000703
257 0.000697
258 0.000697
259 0.000692
260 0.000690
261 0.000694
262 0.000699
263 0.000706
264 0.000720
265 0.000727
266 0.000736
267 0.000738
268 0.000743
269 0.000753
270 0.000768
271 0.000772
272 0.000779
273 0.000779
274 0.000787
275 0.000780
276 0.000773
277 0.000762
278 0.000760
279 0.000760
280 0.000757
281 0.000755
282 0.000755
283 0.000753
284 0.000742
285 0.000725
286 0.000714
287 0.000705
288 0.000701
289 0.000701
290 0.000709
291 0.000710
292 0.000703
293 0.000697
294 0.000691
295 0.000682
296 0.000670
297 0.000671
298 0.000675
299 0.000680
300 0.000690
301 0.000696
302 0.000689
303 0.000681
304 0.000664
305 0.000649
306 0.000631
307 0.000614
308 0.000604
309 0.000599
310 0.000582
311 0.000580
312 0.000582
313 0.000584
314 0.000583
315 0.000575
316 0.000567
317 0.000562
318 0.000550
319 0.000545
320 0.000548
321 0.000553
322 0.000554
323 0.000564
324 0.000579
325 0.000595
326 0.000604
327 0.000623
328 0.000643
329 0.000663
330 0.000677
331 0.000690
332 0.000706
333 0.000711
334 0.000698
335 0.000682
336 0.000668
337 0.000651
338 0.000632
339 0.000627
340 0.000625
341 0.000627
342 0.000631
343 0.000634
344 0.000643
345 0.000648
346 0.000642
347 0.000634
348 0.000627
349 0.000624
350 0.000616
351 0.000607
352 0.000595
353 0.000584
354 0.000580
355 0.000572
356 0.000570
357 0.000573
358 0.000575
359 0.000574
360 0.000573
361 0.000571
362 0.000568
363 0.000560
364 0.000547
365 0.000526
366 0.000513
367 0.000495
368 0.000483
369 0.000478
370 0.000476
371 0.000477
372 0.000495
373 0.000510
374 0.000524
375 0.000534
376 0.000543
377 0.000546
378 0.000550
379 0.000555
380 0.000559
381 0.000565
382 0.000575
383 0.000568
384 0.000568
385 0.000568
386 0.000572
387 0.000572
388 0.000575
389 0.000568
390 0.000560
391 0.000555
392 0.000545
393 0.000541
394 0.000544
395 0.000541
396 0.000535
397 0.000532
398 0.000535
399 0.000532
400 0.000535
401 0.000539
402 0.000536
403 0.000530
404 0.000529
405 0.000528
406 0.000525
407 0.000522
408 0.000518
409 0.000522
410 0.000525
411 0.000530
412 0.000525
413 0.000531
414 0.000538
415 0.000541
416 0.000524
417 0.000511
418 0.000494
419 0.000476
420 0.000468
421 0.000469
422 0.000480
423 0.000484
424 0.000484
425 0.000481
426 0.000490
427 0.000498
428 0.000504
429 0.000515
430 0.000528
431 0.000533
432 0.000534
433 0.000539
434 0.000543
435 0.000552
436 0.000564
437 0.000569
438 0.000577
439 0.000571
440 0.000568
441 0.000562
442 0.000556
443 0.000551
444 0.000542
445 0.000539
446 0.000534
447 0.000533
448 0.000522
449 0.000518
450 0.000521
451 0.000521
452 0.000529
453 0.000543
454 0.000553
455 0.000556
456 0.000552
457 0.000546
458 0.000537
459 0.000523
460 0.000503
461 0.000485
462 0.000471
463 0.000455
464 0.000444
465 0.000433
466 0.000423
467 0.000411
468 0.000398
469 0.000386
470 0.000381
471 0.000383
472 0.000387
473 0.000395
474 0.000401
475 0.000405
476 0.000401
477 0.000396
478 0.000390
479 0.000381
480 0.000373
481 0.000367
482 0.000382
483 0.000405
484 0.000424
485 0.000434
486 0.000447
487 0.000449
488 0.000454
489 0.000459
490 0.000459
491 0.000451
492 0.000447
493 0.000435
494 0.000428
495 0.000420
496 0.000409
497 0.000396
498 0.000386
499 0.000378
500 0.000373
501 0.000386
502 0.000399
503 0.000407
504 0.000414
505 0.000412
506 0.000406
507 0.000402
508 0.000392
509 0.000386
510 0.000386
511 0.000386
512 0.000382
513 0.000385
514 0.000388
515 0.000391
516 0.000392
517 0.000386
518 0.000386
519 0.000380
520 0.000374
521 0.000362
522 0.000360
523 0.000352
524 0.000346
525 0.000338
526 0.000325
527 0.000316
528 0.000316
529 0.000307
530 0.000297
531 0.000288
532 0.000282
533 0.000277
534 0.000286
535 0.000299
536 0.000315
537 0.000322
538 0.000327
539 0.000322
540 0.000324
541 0.000335
542 0.000349
543 0.000377
544 0.000408
545 0.000427
546 0.000442
547 0.000448
548 0.000445
549 0.000441
550 0.000439
551 0.000432
552 0.000434
553 0.000441
554 0.000443
555 0.000448
556 0.000447
557 0.000443
558 0.000434
559 0.000437
560 0.000439
561 0.000442
562 0.000442
563 0.000445
564 0.000445
565 0.000447
566 0.000443
567 0.000441
568 0.000434
569 0.000417
570 0.000410
571 0.000400
572 0.000402
573 0.000402
574 0.000401
575 0.000391
576 0.000378
577 0.000363
578 0.000353
579 0.000351
580 0.000351
581 0.000351
582 0.000348
583 0.000347
584 0.000349
585 0.000349
586 0.000348
587 0.000347
588 0.000345
589 0.000338
590 0.000330
591 0.000327
592 0.000329
593 0.000333
594 0.000333
595 0.000338
596 0.000334
597 0.000336
598 0.000340
599 0.000353
600 0.000358
601 0.000363
602 0.000367
603 0.000370
604 0.000367
605 0.000358
606 0.000355
607 0.000355
608 0.000349
609 0.000339
610 0.000328
611 0.000324
612 0.000329
613 0.000328
614 0.000333
615 0.000338
616 0.000336
617 0.000328
618 0.000322
619 0.000312
620 0.000305
621 0.000293
622 0.000289
623 0.000292
624 0.000298
625 0.000305
626 0.000313
627 0.000321
628 0.000333
629 0.000332
630 0.000335
631 0.000339
632 0.000343
633 0.000347
634 0.000343
635 0.000337
636 0.000329
637 0.000320
638 0.000308
639 0.000295
640 0.000291
641 0.000289
642 0.000292
643 0.000294
644 0.000298
645 0.000298
646 0.000291
647 0.000285
648 0.000282
649 0.000277
650 0.000272
651 0.000277
652 0.000285
653 0.000292
654 0.000297
655 0.000299
656 0.000305
657 0.000311
658 0.000318
659 0.000319
660 0.000329
661 0.000336
662 0.000342
663 0.000352
664 0.000358
665 0.000363
666 0.000364
667 0.000355
668 0.000351
669 0.000337
670 0.000327
671 0.000311
672 0.000308
673 0.000305
674 0.000300
675 0.000300
676 0.000295
677 0.000291
678 0.000288
679 0.000284
680 0.000277
681 0.000270
682 0.000258
683 0.000247
684 0.000236
685 0.000233
686 0.000226
687 0.000224
688 0.000228
689 0.000229
690 0.000233
691 0.000232
692 0.000230
693 0.000231
694 0.000230
695 0.000230
696 0.000235
697 0.000235
698 0.000232
699 0.000225
700 0.000220
701 0.000215
702 0.000216
703 0.000220
704 0.000224
705 0.000234
706 0.000242
707 0.000246
708 0.000248
709 0.000248
710 0.000244
711 0.000242
712 0.000244
713 0.000248
714 0.000252
715 0.000257
716 0.000262
717 0.000266
718 0.000270
719 0.000272
720 0.000276
721 0.000279
722 0.000278
723 0.000276
724 0.000277
725 0.000271
726 0.000271
727 0.000273
728 0.000271
729 0.000270
730 0.000270
731 0.000271
732 0.000267
733 0.000267
734 0.000259
735 0.000255
736 0.000253
737 0.000249
738 0.000246
739 0.000243
740 0.000237
741 0.000230
742 0.000227
743 0.000224
744 0.000222
745 0.000219
746 0.000214
747 0.000211
748 0.000203
749 0.000195
750 0.000189
751 0.000189
752 0.000190
753 0.000190
754 0.000197
755 0.000204
756 0.000216
757 0.000225
758 0.000238
759 0.000245
760 0.000246
761 0.000249
762 0.000245
763 0.000239
764 0.000237
765 0.000235
766 0.000235
767 0.000233
768 0.000230
769 0.000222
770 0.000215
771 0.000213
772 0.000212
773 0.000216
774 0.000222
775 0.000225
776 0.000233
777 0.000241
778 0.000248
779 0.000252
780 0.000257
781 0.000260
782 0.000262
783 0.000266
784 0.000268
785 0.000274
786 0.000285
787 0.000290
788 0.000287
789 0.000287
790 0.000283
791 0.000276
792 0.000273
793 0.000269
794 0.000262
795 0.000254
796 0.000250
797 0.000240
798 0.000229
799 0.000218
800 0.000204
801 0.000193
802 0.000184
803 0.000172
804 0.000166
805 0.000160
806 0.000154
807 0.000146
808 0.000142
809 0.000139
