# i correlation
1 0.002319
2 0.002195
3 0.002085
4 0.001977
5 0.001890
6 0.001817
7 0.001768
8 0.001740
9 0.001720
10 0.001704
11 0.001683
12 0.001660
13 0.001634
14 0.001600
15 0.001563
16 0.001515
17 0.001471
18 0.001439
19 0.001431
20 0.001433
21 0.001433
22 0.001429
23 0.001423
24 0.001417
25 0.001406
26 0.001389
27 0.001376
28 0.001358
29 0.001344
30 0.001338
31 0.001323
32 0.001323
33 0.001325
34 0.001340
35 0.001355
36 0.001362
37 0.001369
38 0.001368
39 0.001365
40 0.001362
41 0.001371
42 0.001369
43 0.001371
44 0.001372
45 0.001379
46 0.001382
47 0.001383
48 0.001381
49 0.001393
50 0.001391
51 0.001382
52 0.001374
53 0.001353
54 0.001331
55 0.001312
56 0.001283
57 0.001270
58 0.001267
59 0.001264
60 0.001264
61 0.001255
62 0.001256
63 0.001242
64 0.001221
65 0.001177
66 0.001148
67 0.001123
68 0.001101
69 0.001088
70 0.001094
71 0.001105
72 0.001116
73 0.001123
74 0.001135
75 0.001137
76 0.001139
77 0.001132
78 0.001105
79 0.001082
80 0.001069
81 0.001068
82 0.001081
83 0.001084
84 0.001093
85 0.001112
86 0.001108
87 0.001107
88 0.001092
89 0.001069
90 0.001046
91 0.001029
92 0.001006
93 0.000991
94 0.001007
95 0.001035
96 0.001063
97 0.001084
98 0.001096
99 0.001095
100 0.001086
101 0.001075
102 0.001047
103 0.001029
104 0.001023
105 0.001021
106 0.001012
107 0.001024
108 0.001031
109 0.001032
110 0.001029
111 0.001021
112 0.001011
113 0.000992
114 0.000970
115 0.000952
116 0.000917
117 0.000899
118 0.000891
119 0.000906
120 0.000909
121 0.000922
122 0.000937
123 0.000950
124 0.000954
125 0.000958
126 0.000955
127 0.000959
128 0.000952
129 0.000946
130 0.000940
131 0.000936
132 0.000919
133 0.000898
134 0.000884
135 0.000868
136 0.000869
137 0.000880
138 0.000891
139 0.000901
140 0.000912
141 0.000903
142 0.000891
143 0.000881
144 0.000873
145 0.000866
146 0.000858
147 0.000848
148 0.000856
149 0.000862
150 0.000860
151 0.000854
152 0.000840
153 0.000826
154 0.000804
155 0.000770
156 0.000748
157 0.000748
158 0.000736
159 0.000727
160 0.000721
161 0.000719
162 0.000720
163 0.000719
164 0.000714
165 0.000722
166 0.000731
167 0.000740
168 0.000745
169 0.000739
170 0.000744
171 0.000746
172 0.000755
173 0.000761
174 0.000768
175 0.000765
176 0.000764
177 0.000766
178 0.000775
179 0.000777
180 0.000774
181 0.000783
182 0.000797
183 0.000819
184 0.000828
185 0.000843
186 0.000863
187 0.000861
188 0.000847
189 0.000854
190 0.000853
191 0.000835
192 0.000828
193 0.000825
194 0.000828
195 0.000838
196 0.000833
197 0.000814
198 0.000794
199 0.000774
200 0.000755
201 0.000737
202 0.000726
203 0.000717
204 0.000718
205 0.000708
206 0.000698
207 0.000686
208 0.000678
209 0.000683
210 0.000692
211 0.000691
212 0.000697
213 0.000702
214 0.000704
215 0.000717
216 0.000722
217 0.000722
218 0.000716
219 0.000721
220 0.000727
221 0.000737
222 0.000744
223 0.000755
224 0.000769
225 0.000787
226 0.000794
227 0.000801
228 0.000791
229 0.000777
230 0.000768
231 0.000750
232 0.000733
233 0.000727
234 0.000739
235 0.000747
236 0.000752
237 0.000743
238 0.000721
239 0.000701
240 0.000675
241 0.000647
242 0.000624
243 0.000596
244 0.000584
245 0.000575
246 0.000574
247 0.000578
248 0.000577
249 0.000582
250 0.000576
251 0.000564
252 0.000546
253 0.000533
254 0.000515
255 0.000493
256 0.000472
257 0.000464
258 0.000457
259 0.000458
260 0.000462
261 0.000469
262 0.000481
263 0.000485
264 0.000491
265 0.000492
266 0.000497
267 0.000508
268 0.000531
269 0.000548
270 0.000571
271 0.000607
272 0.000636
273 0.000654
274 0.000664
275 0.000665
276 0.000664
277 0.000666
278 0.000660
279 0.000654
280 0.000656
281 0.000666
282 0.000660
283 0.000643
284 0.000635
285 0.000626
286 0.000606
287 0.000594
288 0.000583
289 0.000579
290 0.000574
291 0.000585
292 0.000591
293 0.000606
294 0.000622
295 0.000630
296 0.000621
297 0.000629
298 0.000630
299 0.000613
300 0.000595
301 0.000581
302 0.000567
303 0.000546
304 0.000544
305 0.000545
306 0.000544
307 0.000546
308 0.000553
309 0.000563
310 0.000569
311 0.000581
312 0.000590
313 0.000597
314 0.000605
315 0.000600
316 0.000590
317 0.000585
318 0.000578
319 0.000577
320 0.000580
321 0.000582
322 0.000589
323 0.000603
324 0.000623
325 0.000630
326 0.000629
327 0.000618
328 0.000597
329 0.000582
330 0.000565
331 0.000557
332 0.000561
333 0.000570
334 0.000596
335 0.000609
336 0.000612
337 0.000596
338 0.000573
339 0.000549
340 0.000533
341 0.000514
342 0.000497
343 0.000488
344 0.000493
345 0.000489
346 0.000490
347 0.000494
348 0.000499
349 0.000503
350 0.000483
351 0.000451
352 0.000426
353 0.000406
354 0.000387
355 0.000378
356 0.000374
357 0.000378
358 0.000377
359 0.000371
360 0.000364
361 0.000375
362 0.000381
363 0.000391
364 0.000398
365 0.000397
366 0.000396
367 0.000393
368 0.000396
369 0.000401
370 0.000393
371 0.000383
372 0.000387
373 0.000385
374 0.000384
375 0.000388
376 0.000401
377 0.000414
378 0.000428
379 0.000434
380 0.000437
381 0.000431
382 0.000435
383 0.000435
384 0.000435
385 0.000436
386 0.000434
387 0.000431
388 0.000429
389 0.000430
390 0.000425
391 0.000426
392 0.000421
393 0.000418
394 0.000413
395 0.000413
396 0.000419
397 0.000422
398 0.000432
399 0.000453
400 0.000465
401 0.000471
402 0.000486
403 0.000491
404 0.000494
405 0.000495
406 0.000494
407 0.000494
408 0.000502
409 0.000510
410 0.000521
411 0.000531
412 0.000532
413 0.000525
414 0.000524
415 0.000513
416 0.000513
417 0.000503
418 0.000495
419 0.000508
420 0.000523
421 0.000550
422 0.000560
423 0.000572
424 0.000573
425 0.000579
426 0.000572
427 0.000547
428 0.000531
429 0.000522
430 0.000514
431 0.000512
432 0.000510
433 0.000501
434 0.000502
435 0.000502
436 0.000504
437 0.000506
438 0.000512
439 0.000522
440 0.000521
441 0.000517
442 0.000510
443 0.000500
444 0.000510
445 0.000523
446 0.000543
447 0.000549
448 0.000554
449 0.000567
450 0.000574
451 0.000578
452 0.000571
453 0.000560
454 0.000548
455 0.000539
456 0.000527
457 0.000522
458 0.000523
459 0.000539
460 0.000555
461 0.000573
462 0.000588
463 0.000603
464 0.000602
465 0.000595
466 0.000578
467 0.000548
468 0.000510
469 0.000476
470 0.000457
471 0.000448
472 0.000437
473 0.000436
474 0.000442
475 0.000442
476 0.000446
477 0.000441
478 0.000430
479 0.000415
480 0.000404
481 0.000398
482 0.000392
483 0.000395
484 0.000399
485 0.000405
486 0.000407
487 0.000425
488 0.000432
489 0.000430
490 0.000437
491 0.000437
492 0.000434
493 0.000447
494 0.000460
495 0.000469
496 0.000485
497 0.000504
498 0.000526
499 0.000544
500 0.000560
501 0.000567
502 0.000570
503 0.000571
504 0.000569
505 0.000565
506 0.000569
507 0.000574
508 0.000585
509 0.000599
510 0.000610
511 0.000614
512 0.000616
513 0.000609
514 0.000599
515 0.000591
516 0.000579
517 0.000568
518 0.000555
519 0.000550
520 0.000552
521 0.000554
522 0.000559
523 0.000565
524 0.000559
525 0.000543
526 0.000531
527 0.000514
528 0.000504
529 0.000499
530 0.000490
531 0.000483
532 0.000470
533 0.000464
534 0.000457
535 0.000453
536 0.000450
537 0.000438
538 0.000421
539 0.000414
540 0.000399
541 0.000386
542 0.000380
543 0.000370
544 0.000370
545 0.000379
546 0.000386
547 0.000403
548 0.000418
549 0.000430
550 0.000438
551 0.000445
552 0.000448
553 0.000446
554 0.000437
555 0.000422
556 0.000416
557 0.000416
558 0.000422
559 0.000443
560 0.000458
561 0.000476
562 0.000485
563 0.000482
564 0.000477
565 0.000467
566 0.000459
567 0.000448
568 0.000442
569 0.000447
570 0.000457
571 0.000464
572 0.000470
573 0.000471
574 0.000465
575 0.000450
576 0.000431
577 0.000402
578 0.000385
579 0.000367
580 0.000347
581 0.000334
582 0.000333
583 0.000335
584 0.000337
585 0.000335
586 0.000339
587 0.000339
588 0.000339
589 0.000340
590 0.000341
591 0.000347
592 0.000350
593 0.000355
594 0.000368
595 0.000382
596 0.000389
597 0.000401
598 0.000412
599 0.000424
600 0.000433
601 0.000430
602 0.000433
603 0.000437
604 0.000440
605 0.000449
606 0.000459
607 0.000466
608 0.000467
609 0.000473
610 0.000472
611 0.000476
612 0.000470
613 0.000465
614 0.000454
615 0.000452
616 0.000451
617 0.000447
618 0.000451
619 0.000454
620 0.000452
621 0.000459
622 0.000455
623 0.000446
624 0.000440
625 0.000433
626 0.000429
627 0.000426
628 0.000420
629 0.000417
630 0.000423
631 0.000433
632 0.000440
633 0.000452
634 0.000461
635 0.000466
636 0.000473
637 0.000473
638 0.000469
639 0.000466
640 0.000459
641 0.000461
642 0.000465
643 0.000464
644 0.000466
645 0.000467
646 0.000475
647 0.000477
648 0.000483
649 0.000486
650 0.000491
651 0.000489
652 0.000482
653 0.000478
654 0.000473
655 0.000467
656 0.000466
657 0.000468
658 0.000461
659 0.000458
660 0.000455
661 0.000451
662 0.000437
663 0.000414
664 0.000386
665 0.000367
666 0.000348
667 0.000333
668 0.000324
669 0.000320
670 0.000318
671 0.000326
672 0.000334
673 0.000343
674 0.000346
675 0.000346
676 0.000352
677 0.000355
678 0.000354
679 0.000358
680 0.000368
681 0.000377
682 0.000387
683 0.000397
684 0.000395
685 0.000394
686 0.000388
687 0.000384
688 0.000375
689 0.000365
690 0.000367
691 0.000372
692 0.000381
693 0.000392
694 0.000398
695 0.000405
696 0.000410
697 0.000417
698 0.000425
699 0.000423
700 0.000426
701 0.000424
702 0.000420
703 0.000414
704 0.000398
705 0.000386
706 0.000382
707 0.000375
708 0.000367
709 0.000363
710 0.000368
711 0.000370
712 0.000369
713 0.000366
714 0.000365
715 0.000358
716 0.000352
717 0.000346
718 0.000349
719 0.000351
720 0.000349
721 0.000345
722 0.000346
723 0.000353
724 0.000357
725 0.000363
726 0.000369
727 0.000374
728 0.000369
729 0.000359
730 0.000354
731 0.000353
732 0.000356
733 0.000362
734 0.000376
735 0.000385
736 0.000393
737 0.000398
738 0.000396
739 0.000396
740 0.000395
741 0.000390
742 0.000388
743 0.000388
744 0.000395
745 0.000399
746 0.000400
747 0.000396
748 0.000396
749 0.000393
750 0.000382
751 0.000369
752 0.000358
753 0.000349
754 0.000342
755 0.000342
756 0.000348
757 0.000359
758 0.000366
759 0.000368
760 0.000374
761 0.000367
762 0.000349
763 0.000338
764 0.000326
765 0.000310
766 0.000293
767 0.000276
768 0.000272
769 0.000274
770 0.000274
771 0.000275
772 0.000287
773 0.000301
774 0.000313
775 0.000322
776 0.000325
777 0.000319
778 0.000316
779 0.000311
780 0.000310
781 0.000311
782 0.000313
783 0.000316
784 0.000322
785 0.000328
786 0.000336
787 0.000342
788 0.000350
789 0.000351
790 0.000343
791 0.000334
792 0.000320
793 0.000307
794 0.000308
795 0.000309
796 0.000314
797 0.000317
798 0.000324
799 0.000330
800 0.000329
801 0.000326
802 0.000315
803 0.000306
804 0.000297
805 0.000287
806 0.000275
807 0.000265
808 0.000256
809 0.000246
