# i correlation
1 0.001772
2 0.001674
3 0.001584
4 0.001505
5 0.001441
6 0.001382
7 0.001348
8 0.001324
9 0.001292
10 0.001268
11 0.001250
12 0.001231
13 0.001218
14 0.001202
15 0.001188
16 0.001161
17 0.001134
18 0.001105
19 0.001079
20 0.001063
21 0.001049
22 0.001031
23 0.001013
24 0.000995
25 0.000975
26 0.000965
27 0.000950
28 0.000923
29 0.000904
30 0.000882
31 0.000854
32 0.000825
33 0.000793
34 0.000769
35 0.000753
36 0.000735
37 0.000725
38 0.000717
39 0.000708
40 0.000722
41 0.000730
42 0.000733
43 0.000741
44 0.000759
45 0.000773
46 0.000786
47 0.000799
48 0.000822
49 0.000838
50 0.000829
51 0.000828
52 0.000823
53 0.000834
54 0.000833
55 0.000839
56 0.000830
57 0.000826
58 0.000824
59 0.000819
60 0.000826
61 0.000839
62 0.000844
63 0.000851
64 0.000861
65 0.000880
66 0.000894
67 0.000903
68 0.000905
69 0.000901
70 0.000902
71 0.000885
72 0.000873
73 0.000858
74 0.000851
75 0.000847
76 0.000847
77 0.000846
78 0.000838
79 0.000836
80 0.000831
81 0.000822
82 0.000813
83 0.000801
84 0.000782
85 0.000777
86 0.000765
87 0.000751
88 0.000731
89 0.000726
90 0.000717
91 0.000710
92 0.000703
93 0.000698
94 0.000713
95 0.000722
96 0.000728
97 0.000729
98 0.000729
99 0.000720
100 0.000711
101 0.000696
102 0.000692
103 0.000690
104 0.000686
105 0.000681
106 0.000680
107 0.000671
108 0.000660
109 0.000660
110 0.000659
111 0.000660
112 0.000668
113 0.000662
114 0.000669
115 0.000678
116 0.000693
117 0.000704
118 0.000712
119 0.000721
120 0.000721
121 0.000726
122 0.000719
123 0.000721
124 0.000707
125 0.000702
126 0.000685
127 0.000671
128 0.000648
129 0.000646
130 0.000653
131 0.000640
132 0.000637
133 0.000643
134 0.000640
135 0.000641
136 0.000634
137 0.000629
138 0.000628
139 0.000610
140 0.000597
141 0.000580
142 0.000566
143 0.000563
144 0.000570
145 0.000577
146 0.000587
147 0.000587
148 0.000577
149 0.000567
150 0.000559
151 0.000543
152 0.000532
153 0.000534
154 0.000521
155 0.000512
156 0.000497
157 0.000488
158 0.000474
159 0.000467
160 0.000470
161 0.000466
162 0.000467
163 0.000468
164 0.000482
165 0.000507
166 0.000512
167 0.000523
168 0.000520
169 0.000508
170 0.000499
171 0.000495
172 0.000495
173 0.000494
174 0.000497
175 0.000489
176 0.000486
177 0.000487
178 0.000486
179 0.000489
180 0.000494
181 0.000507
182 0.000514
183 0.000513
184 0.000519
185 0.000525
186 0.000545
187 0.000560
188 0.000564
189 0.000565
190 0.000566
191 0.000579
192 0.000586
193 0.000592
194 0.000600
195 0.000602
196 0.000592
197 0.000591
198 0.000585
199 0.000579
200 0.000579
201 0.000569
202 0.000557
203 0.000551
204 0.000540
205 0.000535
206 0.000531
207 0.000529
208 0.000541
209 0.000536
210 0.000531
211 0.000536
212 0.000538
213 0.000541
214 0.000548
215 0.000553
216 0.000555
217 0.000543
218 0.000532
219 0.000526
220 0.000520
221 0.000521
222 0.000506
223 0.000499
224 0.000489
225 0.000467
226 0.000462
227 0.000461
228 0.000459
229 0.000461
230 0.000455
231 0.000457
232 0.000462
233 0.000456
234 0.000453
235 0.000447
236 0.000437
237 0.000427
238 0.000420
239 0.000421
240 0.000420
241 0.000430
242 0.000447
243 0.000452
244 0.000458
245 0.000453
246 0.000445
247 0.000432
248 0.000422
249 0.000415
250 0.000407
251 0.000390
252 0.000387
253 0.000375
254 0.000376
255 0.000368
256 0.000368
257 0.000361
258 0.000347
259 0.000346
260 0.000353
261 0.000357
262 0.000360
263 0.000364
264 0.000370
265 0.000372
266 0.000364
267 0.000371
268 0.000372
269 0.000385
270 0.000385
271 0.000391
272 0.000402
273 0.000407
274 0.000415
275 0.000415
276 0.000424
277 0.000429
278 0.000430
279 0.000422
280 0.000417
281 0.000420
282 0.000414
283 0.000408
284 0.000402
285 0.000407
286 0.000411
287 0.000415
288 0.000414
289 0.000419
290 0.000425
291 0.000426
292 0.000420
293 0.000415
294 0.000420
295 0.000416
296 0.000414
297 0.000410
298 0.000410
299 0.000398
300 0.000387
301 0.000386
302 0.000383
303 0.000395
304 0.000399
305 0.000401
306 0.000403
307 0.000396
308 0.000387
309 0.000392
310 0.000397
311 0.000411
312 0.000423
313 0.000427
314 0.000426
315 0.000418
316 0.000400
317 0.000387
318 0.000383
319 0.000370
320 0.000362
321 0.000359
322 0.000360
323 0.000350
324 0.000343
325 0.000342
326 0.000351
327 0.000366
328 0.000365
329 0.000366
330 0.000368
331 0.000371
332 0.000370
333 0.000369
334 0.000364
335 0.000360
336 0.000363
337 0.000366
338 0.000373
339 0.000381
340 0.000380
341 0.000388
342 0.000384
343 0.000373
344 0.000369
345 0.000353
346 0.000346
347 0.000329
348 0.000313
349 0.000296
350 0.000288
351 0.000286
352 0.000282
353 0.000283
354 0.000287
355 0.000290
356 0.000293
357 0.000292
358 0.000305
359 0.000321
360 0.000328
361 0.000341
362 0.000343
363 0.000343
364 0.000341
365 0.000337
366 0.000349
367 0.000361
368 0.000375
369 0.000368
370 0.000356
371 0.000355
372 0.000352
373 0.000349
374 0.000346
375 0.000352
376 0.000367
377 0.000369
378 0.000367
379 0.000375
380 0.000367
381 0.000369
382 0.000369
383 0.000354
384 0.000350
385 0.000351
386 0.000351
387 0.000353
388 0.000358
389 0.000360
390 0.000360
391 0.000359
392 0.000367
393 0.000363
394 0.000370
395 0.000365
396 0.000357
397 0.000361
398 0.000360
399 0.000364
400 0.000351
401 0.000334
402 0.000317
403 0.000303
404 0.000292
405 0.000287
406 0.000291
407 0.000302
408 0.000318
409 0.000327
410 0.000339
411 0.000349
412 0.000355
413 0.000356
414 0.000353
415 0.000346
416 0.000337
417 0.000325
418 0.000306
419 0.000293
420 0.000287
421 0.000296
422 0.000302
423 0.000300
424 0.000308
425 0.000306
426 0.000310
427 0.000308
428 0.000305
429 0.000304
430 0.000301
431 0.000308
432 0.000313
433 0.000316
434 0.000321
435 0.000317
436 0.000329
437 0.000334
438 0.000337
439 0.000339
440 0.000342
441 0.000346
442 0.000354
443 0.000363
444 0.000360
445 0.000347
446 0.000332
447 0.000321
448 0.000312
449 0.000293
450 0.000279
451 0.000273
452 0.000268
453 0.000268
454 0.000268
455 0.000276
456 0.000274
457 0.000271
458 0.000275
459 0.000277
460 0.000273
461 0.000271
462 0.000271
463 0.000271
464 0.000265
465 0.000262
466 0.000264
467 0.000263
468 0.000261
469 0.000253
470 0.000254
471 0.000263
472 0.000261
473 0.000260
474 0.000250
475 0.000242
476 0.000236
477 0.000234
478 0.000235
479 0.000232
480 0.000232
481 0.000238
482 0.000240
483 0.000234
484 0.000233
485 0.000233
486 0.000227
487 0.000219
488 0.000211
489 0.000208
490 0.000199
491 0.000199
492 0.000208
493 0.000214
494 0.000224
495 0.000228
496 0.000233
497 0.000238
498 0.000237
499 0.000230
500 0.000217
501 0.000213
502 0.000205
503 0.000192
504 0.000179
505 0.000166
506 0.000163
507 0.000152
508 0.000154
509 0.000167
510 0.000169
511 0.000178
512 0.000184
513 0.000189
514 0.000191
515 0.000188
516 0.000177
517 0.000175
518 0.000169
519 0.000166
520 0.000163
521 0.000159
522 0.000159
523 0.000157
524 0.000154
525 0.000150
526 0.000146
527 0.000143
528 0.000138
529 0.000136
530 0.000130
531 0.000124
532 0.000127
533 0.000127
534 0.000128
535 0.000125
536 0.000122
537 0.000118
538 0.000120
539 0.000114
540 0.000110
541 0.000113
542 0.000117
543 0.000121
544 0.000125
545 0.000131
546 0.000137
547 0.000144
548 0.000147
549 0.000149
550 0.000148
551 0.000138
552 0.000135
553 0.000137
554 0.000144
555 0.000143
556 0.000138
557 0.000143
558 0.000153
559 0.000164
560 0.000168
561 0.000180
562 0.000190
563 0.000198
564 0.000195
565 0.000192
566 0.000195
567 0.000198
568 0.000196
569 0.000191
570 0.000185
571 0.000180
572 0.000172
573 0.000170
574 0.000171
575 0.000175
576 0.000175
577 0.000175
578 0.000177
579 0.000184
580 0.000183
581 0.000178
582 0.000170
583 0.000158
584 0.000145
585 0.000138
586 0.000125
587 0.000111
588 0.000099
589 0.000097
590 0.000097
591 0.000094
592 0.000095
593 0.000091
594 0.000086
595 0.000074
596 0.000062
597 0.000046
598 0.000029
599 0.000015
600 0.000018
601 0.000015
602 0.000014
603 0.000022
604 0.000022
605 0.000026
606 0.000031
607 0.000043
608 0.000064
609 0.000074
610 0.000081
611 0.000093
612 0.000093
613 0.000093
614 0.000094
615 0.000108
616 0.000119
617 0.000128
618 0.000143
619 0.000154
620 0.000168
621 0.000179
622 0.000185
623 0.000190
624 0.000192
625 0.000198
626 0.000201
627 0.000209
628 0.000226
629 0.000234
630 0.000248
631 0.000257
632 0.000273
633 0.000283
634 0.000293
635 0.000299
636 0.000303
637 0.000300
638 0.000305
639 0.000304
640 0.000311
641 0.000320
642 0.000324
643 0.000323
644 0.000321
645 0.000316
646 0.000302
647 0.000288
648 0.000283
649 0.000279
650 0.000271
651 0.000262
652 0.000258
653 0.000253
654 0.000246
655 0.000244
656 0.000238
657 0.000232
658 0.000227
659 0.000222
660 0.000212
661 0.000193
662 0.000180
663 0.000166
664 0.000156
665 0.000145
666 0.000136
667 0.000128
668 0.000119
669 0.000106
670 0.000102
671 0.000097
672 0.000090
673 0.000087
674 0.000082
675 0.000078
676 0.000078
677 0.000074
678 0.000075
679 0.000078
680 0.000082
681 0.000088
682 0.000096
683 0.000103
684 0.000104
685 0.000112
686 0.000125
687 0.000133
688 0.000138
689 0.000140
690 0.000141
691 0.000136
692 0.000133
693 0.000131
694 0.000133
695 0.000138
696 0.000146
697 0.000158
698 0.000169
699 0.000173
700 0.000187
701 0.000197
702 0.000206
703 0.000217
704 0.000224
705 0.000232
706 0.000234
707 0.000236
708 0.000241
709 0.000246
710 0.000247
711 0.000247
712 0.000248
713 0.000243
714 0.000234
715 0.000233
716 0.000225
717 0.000213
718 0.000200
719 0.000196
720 0.000195
721 0.000186
722 0.000180
723 0.000177
724 0.000175
725 0.000175
726 0.000178
727 0.000188
728 0.000192
729 0.000194
730 0.000197
731 0.000191
732 0.000190
733 0.000187
734 0.000184
735 0.000184
736 0.000183
737 0.000180
738 0.000180
739 0.000172
740 0.000170
741 0.000165
742 0.000158
743 0.000152
744 0.000151
745 0.000152
746 0.000160
747 0.000167
748 0.000169
749 0.000178
750 0.000186
751 0.000193
752 0.000196
753 0.000204
754 0.000210
755 0.000214
756 0.000217
757 0.000222
758 0.000222
759 0.000214
760 0.000206
761 0.000208
762 0.000206
763 0.000207
764 0.000206
765 0.000204
766 0.000202
767 0.000197
768 0.000192
769 0.000186
770 0.000185
771 0.000184
772 0.000182
773 0.000185
774 0.000185
775 0.000186
776 0.000189
777 0.000189
778 0.000185
779 0.000177
780 0.000170
781 0.000163
782 0.000157
783 0.000151
784 0.000142
785 0.000132
786 0.000120
787 0.000113
788 0.000105
789 0.000094
790 0.000086
791 0.000074
792 0.000067
793 0.000061
794 0.000055
795 0.000052
796 0.000043
797 0.000037
798 0.000036
799 0.000037
800 0.000037
801 0.000034
802 0.000035
803 0.000037
804 0.000038
805 0.000045
806 0.000051
807 0.000057
808 0.000059
809 0.000064
