# i correlation
1 0.002196
2 0.002085
3 0.001994
4 0.001914
5 0.001848
6 0.001777
7 0.001703
8 0.001640
9 0.001591
10 0.001562
11 0.001534
12 0.001519
13 0.001498
14 0.001481
15 0.001459
16 0.001435
17 0.001429
18 0.001413
19 0.001386
20 0.001370
21 0.001361
22 0.001346
23 0.001324
24 0.001314
25 0.001304
26 0.001294
27 0.001299
28 0.001301
29 0.001301
30 0.001293
31 0.001281
32 0.001286
33 0.001276
34 0.001273
35 0.001266
36 0.001257
37 0.001263
38 0.001265
39 0.001254
40 0.001225
41 0.001215
42 0.001214
43 0.001210
44 0.001216
45 0.001218
46 0.001214
47 0.001216
48 0.001209
49 0.001212
50 0.001210
51 0.001203
52 0.001189
53 0.001174
54 0.001161
55 0.001149
56 0.001138
57 0.001130
58 0.001120
59 0.001112
60 0.001099
61 0.001095
62 0.001090
63 0.001086
64 0.001084
65 0.001086
66 0.001090
67 0.001084
68 0.001086
69 0.001074
70 0.001056
71 0.001047
72 0.001038
73 0.001024
74 0.001003
75 0.000990
76 0.000992
77 0.000992
78 0.000986
79 0.000988
80 0.000986
81 0.000975
82 0.000960
83 0.000952
84 0.000946
85 0.000939
86 0.000935
87 0.000925
88 0.000914
89 0.000912
90 0.000908
91 0.000892
92 0.000879
93 0.000873
94 0.000868
95 0.000865
96 0.000856
97 0.000856
98 0.000856
99 0.000854
100 0.000856
101 0.000860
102 0.000848
103 0.000845
104 0.000856
105 0.000869
106 0.000884
107 0.000899
108 0.000895
109 0.000894
110 0.000908
111 0.000920
112 0.000937
113 0.000947
114 0.000957
115 0.000967
116 0.000970
117 0.000975
118 0.000970
119 0.000967
120 0.000958
121 0.000960
122 0.000968
123 0.000969
124 0.000959
125 0.000952
126 0.000949
127 0.000955
128 0.000965
129 0.000965
130 0.000967
131 0.000973
132 0.000976
133 0.000978
134 0.000968
135 0.000964
136 0.000941
137 0.000919
138 0.000905
139 0.000879
140 0.000861
141 0.000856
142 0.000853
143 0.000835
144 0.000811
145 0.000785
146 0.000755
147 0.000727
148 0.000697
149 0.000673
150 0.000648
151 0.000646
152 0.000639
153 0.000635
154 0.000637
155 0.000659
156 0.000672
157 0.000695
158 0.000707
159 0.000731
160 0.000747
161 0.000760
162 0.000785
163 0.000798
164 0.000793
165 0.000794
166 0.000793
167 0.000790
168 0.000789
169 0.000785
170 0.000779
171 0.000766
172 0.000763
173 0.000758
174 0.000747
175 0.000742
176 0.000736
177 0.000725
178 0.000716
179 0.000714
180 0.000731
181 0.000733
182 0.000720
183 0.000717
184 0.000700
185 0.000695
186 0.000682
187 0.000665
188 0.000641
189 0.000626
190 0.000614
191 0.000603
192 0.000585
193 0.000564
194 0.000549
195 0.000538
196 0.000535
197 0.000529
198 0.000528
199 0.000527
200 0.000536
201 0.000542
202 0.000541
203 0.000545
204 0.000554
205 0.000553
206 0.000553
207 0.000562
208 0.000575
209 0.000576
210 0.000585
211 0.000587
212 0.000595
213 0.000589
214 0.000584
215 0.000566
216 0.000540
217 0.000543
218 0.000551
219 0.000559
220 0.000560
221 0.000564
222 0.000566
223 0.000562
224 0.000557
225 0.000551
226 0.000540
227 0.000532
228 0.000528
229 0.000525
230 0.000521
231 0.000514
232 0.000504
233 0.000499
234 0.000489
235 0.000486
236 0.000488
237 0.000488
238 0.000502
239 0.000514
240 0.000516
241 0.000524
242 0.000542
243 0.000554
244 0.000559
245 0.000557
246 0.000546
247 0.000545
248 0.000559
249 0.000561
250 0.000567
251 0.000568
252 0.000575
253 0.000573
254 0.000580
255 0.000577
256 0.000584
257 0.000588
258 0.000583
259 0.000582
260 0.000585
261 0.000578
262 0.000574
263 0.000567
264 0.000563
265 0.000556
266 0.000548
267 0.000541
268 0.000544
269 0.000555
270 0.000566
271 0.000572
272 0.000574
273 0.000574
274 0.000572
275 0.000573
276 0.000579
277 0.000588
278 0.000594
279 0.000598
280 0.000604
281 0.000607
282 0.000605
283 0.000589
284 0.000575
285 0.000557
286 0.000551
287 0.000540
288 0.000524
289 0.000522
290 0.000519
291 0.000516
292 0.000526
293 0.000543
294 0.000560
295 0.000576
296 0.000582
297 0.000597
298 0.000614
299 0.000632
300 0.000643
301 0.000644
302 0.000651
303 0.000654
304 0.000656
305 0.000646
306 0.000645
307 0.000648
308 0.000639
309 0.000631
310 0.000625
311 0.000624
312 0.000612
313 0.000599
314 0.000588
315 0.000576
316 0.000570
317 0.000555
318 0.000548
319 0.000550
320 0.000544
321 0.000539
322 0.000537
323 0.000537
324 0.000542
325 0.000551
326 0.000538
327 0.000528
328 0.000526
329 0.000512
330 0.000494
331 0.000489
332 0.000482
333 0.000473
334 0.000459
335 0.000439
336 0.000424
337 0.000409
338 0.000412
339 0.000407
340 0.000412
341 0.000410
342 0.000409
343 0.000413
344 0.000407
345 0.000413
346 0.000415
347 0.000405
348 0.000404
349 0.000409
350 0.000408
351 0.000402
352 0.000412
353 0.000412
354 0.000407
355 0.000409
356 0.000389
357 0.000380
358 0.000374
359 0.000367
360 0.000372
361 0.000379
362 0.000380
363 0.000384
364 0.000375
365 0.000365
366 0.000365
367 0.000353
368 0.000339
369 0.000328
370 0.000328
371 0.000331
372 0.000335
373 0.000337
374 0.000345
375 0.000352
376 0.000364
377 0.000386
378 0.000390
379 0.000396
380 0.000401
381 0.000389
382 0.000380
383 0.000379
384 0.000384
385 0.000384
386 0.000386
387 0.000398
388 0.000401
389 0.000408
390 0.000418
391 0.000421
392 0.000426
393 0.000424
394 0.000414
395 0.000394
396 0.000365
397 0.000345
398 0.000317
399 0.000299
400 0.000281
401 0.000267
402 0.000255
403 0.000243
404 0.000244
405 0.000246
406 0.000252
407 0.000255
408 0.000265
409 0.000285
410 0.000294
411 0.000308
412 0.000325
413 0.000326
414 0.000326
415 0.000323
416 0.000319
417 0.000314
418 0.000301
419 0.000294
420 0.000281
421 0.000285
422 0.000293
423 0.000304
424 0.000315
425 0.000320
426 0.000336
427 0.000347
428 0.000358
429 0.000371
430 0.000380
431 0.000389
432 0.000392
433 0.000393
434 0.000393
435 0.000391
436 0.000393
437 0.000398
438 0.000412
439 0.000430
440 0.000450
441 0.000460
442 0.000453
443 0.000448
444 0.000452
445 0.000450
446 0.000437
447 0.000411
448 0.000383
449 0.000351
450 0.000332
451 0.000318
452 0.000306
453 0.000298
454 0.000285
455 0.000275
456 0.000274
457 0.000271
458 0.000269
459 0.000269
460 0.000272
461 0.000276
462 0.000280
463 0.000282
464 0.000273
465 0.000265
466 0.000272
467 0.000272
468 0.000263
469 0.000260
470 0.000250
471 0.000241
472 0.000235
473 0.000238
474 0.000241
475 0.000243
476 0.000240
477 0.000241
478 0.000249
479 0.000248
480 0.000254
481 0.000252
482 0.000243
483 0.000237
484 0.000230
485 0.000234
486 0.000221
487 0.000223
488 0.000213
489 0.000217
490 0.000221
491 0.000229
492 0.000235
493 0.000239
494 0.000241
495 0.000240
496 0.000234
497 0.000226
498 0.000212
499 0.000192
500 0.000177
501 0.000161
502 0.000143
503 0.000133
504 0.000131
505 0.000124
506 0.000121
507 0.000120
508 0.000124
509 0.000125
510 0.000122
511 0.000116
512 0.000111
513 0.000099
514 0.000093
515 0.000079
516 0.000064
517 0.000058
518 0.000048
519 0.000037
520 0.000029
521 0.000029
522 0.000032
523 0.000036
524 0.000042
525 0.000044
526 0.000035
527 0.000027
528 0.000021
529 0.000008
530 0.000003
531 0.000002
532 0.000006
533 0.000006
534 0.000009
535 0.000011
536 0.000008
537 0.000001
538 0.000004
539 0.000002
540 0.000001
541 0.000000
542 0.000001
543 0.000003
544 0.000008
545 0.000019
546 0.000035
547 0.000043
548 0.000045
549 0.000047
550 0.000053
551 0.000067
552 0.000089
553 0.000106
554 0.000114
555 0.000121
556 0.000124
557 0.000132
558 0.000132
559 0.000127
560 0.000124
561 0.000117
562 0.000113
563 0.000108
564 0.000106
565 0.000090
566 0.000084
567 0.000086
568 0.000085
569 0.000086
570 0.000086
571 0.000077
572 0.000088
573 0.000096
574 0.000103
575 0.000104
576 0.000108
577 0.000106
578 0.000101
579 0.000097
580 0.000088
581 0.000081
582 0.000079
583 0.000075
584 0.000074
585 0.000074
586 0.000068
587 0.000059
588 0.000058
589 0.000054
590 0.000047
591 0.000046
592 0.000044
593 0.000037
594 0.000041
595 0.000043
596 0.000055
597 0.000065
598 0.000069
599 0.000079
600 0.000094
601 0.000115
602 0.000140
603 0.000149
604 0.000158
605 0.000165
606 0.000170
607 0.000176
608 0.000172
609 0.000167
610 0.000162
611 0.000166
612 0.000174
613 0.000183
614 0.000180
615 0.000178
616 0.000174
617 0.000171
618 0.000166
619 0.000160
620 0.000162
621 0.000160
622 0.000161
623 0.000157
624 0.000149
625 0.000146
626 0.000140
627 0.000131
628 0.000117
629 0.000108
630 0.000107
631 0.000109
632 0.000113
633 0.000119
634 0.000123
635 0.000124
636 0.000118
637 0.000111
638 0.000110
639 0.000114
640 0.000114
641 0.000106
642 0.000102
643 0.000090
644 0.000089
645 0.000091
646 0.000089
647 0.000090
648 0.000089
649 0.000090
650 0.000095
651 0.000097
652 0.000098
653 0.000096
654 0.000090
655 0.000084
656 0.000081
657 0.000085
658 0.000087
659 0.000091
660 0.000091
661 0.000088
662 0.000082
663 0.000081
664 0.000080
665 0.000083
666 0.000096
667 0.000107
668 0.000111
669 0.000119
670 0.000126
671 0.000132
672 0.000136
673 0.000143
674 0.000151
675 0.000145
676 0.000145
677 0.000146
678 0.000146
679 0.000144
680 0.000139
681 0.000136
682 0.000136
683 0.000139
684 0.000141
685 0.000141
686 0.000143
687 0.000148
688 0.000155
689 0.000167
690 0.000174
691 0.000182
692 0.000187
693 0.000186
694 0.000183
695 0.000190
696 0.000182
697 0.000168
698 0.000150
699 0.000137
700 0.000124
701 0.000118
702 0.000109
703 0.000103
704 0.000104
705 0.000101
706 0.000093
707 0.000088
708 0.000089
709 0.000092
710 0.000094
711 0.000099
712 0.000105
713 0.000111
714 0.000114
715 0.000126
716 0.000140
717 0.000152
718 0.000165
719 0.000175
720 0.000173
721 0.000176
722 0.000177
723 0.000184
724 0.000179
725 0.000176
726 0.000172
727 0.000168
728 0.000165
729 0.000167
730 0.000165
731 0.000167
732 0.000174
733 0.000182
734 0.000189
735 0.000200
736 0.000202
737 0.000212
738 0.000220
739 0.000231
740 0.000243
741 0.000239
742 0.000238
743 0.000236
744 0.000230
745 0.000231
746 0.000228
747 0.000229
748 0.000223
749 0.000215
750 0.000203
751 0.000200
752 0.000195
753 0.000189
754 0.000188
755 0.000191
756 0.000187
757 0.000184
758 0.000181
759 0.000175
760 0.000171
761 0.000161
762 0.000153
763 0.000150
764 0.000150
765 0.000152
766 0.000149
767 0.000150
768 0.000150
769 0.000152
770 0.000146
771 0.000135
772 0.000127
773 0.000118
774 0.000108
775 0.000100
776 0.000095
777 0.000088
778 0.000079
779 0.000069
780 0.000065
781 0.000064
782 0.000063
783 0.000060
784 0.000061
785 0.000054
786 0.000052
787 0.000049
788 0.000044
789 0.000038
790 0.000035
791 0.000026
792 0.000025
793 0.000022
794 0.000019
795 0.000015
796 0.000015
797 0.000010
798 0.000007
799 -0.000000
800 -0.000007
801 -0.000006
802 -0.000006
803 -0.000009
804 -0.000013
805 -0.000014
806 -0.000014
807 -0.000017
808 -0.000018
809 -0.000025
