# i correlation
1 0.002370
2 0.002256
3 0.002146
4 0.002052
5 0.001980
6 0.001910
7 0.001843
8 0.001795
9 0.001749
10 0.001694
11 0.001662
12 0.001624
13 0.001588
14 0.001564
15 0.001542
16 0.001530
17 0.001528
18 0.001514
19 0.001503
20 0.001488
21 0.001484
22 0.001480
23 0.001477
24 0.001471
25 0.001460
26 0.001447
27 0.001432
28 0.001424
29 0.001415
30 0.001418
31 0.001402
32 0.001386
33 0.001371
34 0.001345
35 0.001319
36 0.001309
37 0.001287
38 0.001284
39 0.001282
40 0.001277
41 0.001272
42 0.001271
43 0.001263
44 0.001245
45 0.001232
46 0.001234
47 0.001253
48 0.001264
49 0.001262
50 0.001264
51 0.001252
52 0.001230
53 0.001211
54 0.001206
55 0.001206
56 0.001214
57 0.001221
58 0.001220
59 0.001226
60 0.001234
61 0.001241
62 0.001243
63 0.001251
64 0.001262
65 0.001277
66 0.001288
67 0.001291
68 0.001295
69 0.001295
70 0.001285
71 0.001271
72 0.001262
73 0.001242
74 0.001219
75 0.001202
76 0.001182
77 0.001167
78 0.001146
79 0.001128
80 0.001123
81 0.001109
82 0.001102
83 0.001094
84 0.001079
85 0.001062
86 0.001061
87 0.001062
88 0.001070
89 0.001075
90 0.001080
91 0.001097
92 0.001104
93 0.001104
94 0.001089
95 0.001074
96 0.001065
97 0.001059
98 0.001052
99 0.001042
100 0.001023
101 0.001000
102 0.000981
103 0.000965
104 0.000953
105 0.000944
106 0.000929
107 0.000916
108 0.000905
109 0.000896
110 0.000885
111 0.000894
112 0.000899
113 0.000902
114 0.000901
115 0.000905
116 0.000911
117 0.000918
118 0.000908
119 0.000903
120 0.000901
121 0.000895
122 0.000910
123 0.000926
124 0.000935
125 0.000943
126 0.000958
127 0.000959
128 0.000959
129 0.000956
130 0.000942
131 0.000935
132 0.000914
133 0.000889
134 0.000874
135 0.000859
136 0.000842
137 0.000816
138 0.000793
139 0.000784
140 0.000772
141 0.000761
142 0.000749
143 0.000746
144 0.000734
145 0.000720
146 0.000707
147 0.000706
148 0.000703
149 0.000695
150 0.000690
151 0.000681
152 0.000685
153 0.000682
154 0.000684
155 0.000690
156 0.000679
157 0.000677
158 0.000673
159 0.000676
160 0.000671
161 0.000674
162 0.000680
163 0.000709
164 0.000717
165 0.000724
166 0.000724
167 0.000719
168 0.000708
169 0.000710
170 0.000714
171 0.000712
172 0.000715
173 0.000721
174 0.000727
175 0.000713
176 0.000696
177 0.000676
178 0.000663
179 0.000658
180 0.000654
181 0.000647
182 0.000645
183 0.000638
184 0.000633
185 0.000624
186 0.000612
187 0.000605
188 0.000594
189 0.000581
190 0.000577
191 0.000581
192 0.000577
193 0.000575
194 0.000576
195 0.000588
196 0.000614
197 0.000630
198 0.000635
199 0.000645
200 0.000638
201 0.000617
202 0.000607
203 0.000585
204 0.000581
205 0.000581
206 0.000589
207 0.000593
208 0.000598
209 0.000595
210 0.000587
211 0.000580
212 0.000585
213 0.000590
214 0.000593
215 0.000597
216 0.000593
217 0.000589
218 0.000589
219 0.000592
220 0.000601
221 0.000604
222 0.000615
223 0.000624
224 0.000622
225 0.000620
226 0.000617
227 0.000618
228 0.000610
229 0.000601
230 0.000602
231 0.000593
232 0.000582
233 0.000557
234 0.000544
235 0.000536
236 0.000525
237 0.000508
238 0.000497
239 0.000489
240 0.000483
241 0.000475
242 0.000466
243 0.000458
244 0.000454
245 0.000454
246 0.000471
247 0.000486
248 0.000495
249 0.000490
250 0.000493
251 0.000502
252 0.000514
253 0.000510
254 0.000506
255 0.000502
256 0.000498
257 0.000488
258 0.000474
259 0.000468
260 0.000464
261 0.000455
262 0.000448
263 0.000438
264 0.000435
265 0.000431
266 0.000437
267 0.000437
268 0.000428
269 0.000411
270 0.000389
271 0.000367
272 0.000354
273 0.000340
274 0.000331
275 0.000320
276 0.000305
277 0.000297
278 0.000294
279 0.000297
280 0.000291
281 0.000282
282 0.000284
283 0.000295
284 0.000297
285 0.000305
286 0.000315
287 0.000324
288 0.000336
289 0.000349
290 0.000367
291 0.000384
292 0.000395
293 0.000402
294 0.000404
295 0.000411
296 0.000419
297 0.000424
298 0.000434
299 0.000433
300 0.000426
301 0.000406
302 0.000397
303 0.000387
304 0.000379
305 0.000375
306 0.000356
307 0.000349
308 0.000340
309 0.000336
310 0.000329
311 0.000325
312 0.000318
313 0.000328
314 0.000341
315 0.000350
316 0.000363
317 0.000363
318 0.000364
319 0.000367
320 0.000367
321 0.000373
322 0.000387
323 0.000402
324 0.000416
325 0.000426
326 0.000429
327 0.000431
328 0.000433
329 0.000423
330 0.000418
331 0.000408
332 0.000402
333 0.000408
334 0.000409
335 0.000420
336 0.000422
337 0.000420
338 0.000426
339 0.000438
340 0.000438
341 0.000437
342 0.000431
343 0.000432
344 0.000434
345 0.000429
346 0.000425
347 0.000431
348 0.000429
349 0.000424
350 0.000414
351 0.000400
352 0.000384
353 0.000370
354 0.000369
355 0.000369
356 0.000373
357 0.000376
358 0.000371
359 0.000375
360 0.000372
361 0.000375
362 0.000378
363 0.000377
364 0.000372
365 0.000370
366 0.000365
367 0.000352
368 0.000347
369 0.000352
370 0.000364
371 0.000379
372 0.000379
373 0.000378
374 0.000374
375 0.000368
376 0.000363
377 0.000358
378 0.000357
379 0.000359
380 0.000357
381 0.000355
382 0.000359
383 0.000349
384 0.000336
385 0.000334
386 0.000336
387 0.000340
388 0.000334
389 0.000337
390 0.000346
391 0.000352
392 0.000352
393 0.000364
394 0.000372
395 0.000389
396 0.000393
397 0.000393
398 0.000394
399 0.000392
400 0.000377
401 0.000359
402 0.000347
403 0.000345
404 0.000357
405 0.000364
406 0.000362
407 0.000366
408 0.000358
409 0.000357
410 0.000347
411 0.000340
412 0.000335
413 0.000338
414 0.000333
415 0.000330
416 0.000335
417 0.000330
418 0.000338
419 0.000348
420 0.000359
421 0.000380
422 0.000396
423 0.000398
424 0.000401
425 0.000406
426 0.000409
427 0.000425
428 0.000426
429 0.000429
430 0.000437
431 0.000444
432 0.000447
433 0.000455
434 0.000462
435 0.000462
436 0.000469
437 0.000480
438 0.000486
439 0.000495
440 0.000497
441 0.000486
442 0.000485
443 0.000470
444 0.000451
445 0.000436
446 0.000426
447 0.000420
448 0.000415
449 0.000404
450 0.000399
451 0.000396
452 0.000402
453 0.000406
454 0.000407
455 0.000413
456 0.000416
457 0.000424
458 0.000427
459 0.000436
460 0.000447
461 0.000463
462 0.000476
463 0.000492
464 0.000506
465 0.000512
466 0.000522
467 0.000535
468 0.000541
469 0.000545
470 0.000549
471 0.000539
472 0.000536
473 0.000524
474 0.000512
475 0.000498
476 0.000480
477 0.000462
478 0.000456
479 0.000446
480 0.000424
481 0.000409
482 0.000397
483 0.000391
484 0.000381
485 0.000377
486 0.000383
487 0.000398
488 0.000420
489 0.000432
490 0.000444
491 0.000459
492 0.000460
493 0.000459
494 0.000452
495 0.000449
496 0.000448
497 0.000454
498 0.000463
499 0.000471
500 0.000476
501 0.000472
502 0.000478
503 0.000482
504 0.000483
505 0.000487
506 0.000487
507 0.000487
508 0.000481
509 0.000475
510 0.000479
511 0.000489
512 0.000497
513 0.000507
514 0.000512
515 0.000514
516 0.000512
517 0.000512
518 0.000511
519 0.000509
520 0.000509
521 0.000516
522 0.000519
523 0.000511
524 0.000507
525 0.000503
526 0.000500
527 0.000492
528 0.000479
529 0.000472
530 0.000464
531 0.000454
532 0.000444
533 0.000438
534 0.000433
535 0.000431
536 0.000419
537 0.000406
538 0.000403
539 0.000403
540 0.000400
541 0.000395
542 0.000390
543 0.000389
544 0.000392
545 0.000392
546 0.000386
547 0.000375
548 0.000371
549 0.000365
550 0.000363
551 0.000368
552 0.000368
553 0.000374
554 0.000373
555 0.000370
556 0.000369
557 0.000374
558 0.000372
559 0.000375
560 0.000379
561 0.000384
562 0.000392
563 0.000390
564 0.000387
565 0.000386
566 0.000381
567 0.000379
568 0.000384
569 0.000387
570 0.000388
571 0.000386
572 0.000378
573 0.000366
574 0.000357
575 0.000339
576 0.000330
577 0.000322
578 0.000319
579 0.000322
580 0.000315
581 0.000311
582 0.000310
583 0.000310
584 0.000315
585 0.000316
586 0.000315
587 0.000316
588 0.000312
589 0.000322
590 0.000333
591 0.000342
592 0.000349
593 0.000349
594 0.000348
595 0.000354
596 0.000348
597 0.000339
598 0.000323
599 0.000306
600 0.000291
601 0.000287
602 0.000286
603 0.000284
604 0.000274
605 0.000257
606 0.000241
607 0.000230
608 0.000217
609 0.000208
610 0.000200
611 0.000191
612 0.000186
613 0.000179
614 0.000175
615 0.000177
616 0.000181
617 0.000188
618 0.000203
619 0.000207
620 0.000212
621 0.000212
622 0.000210
623 0.000211
624 0.000207
625 0.000203
626 0.000209
627 0.000214
628 0.000209
629 0.000209
630 0.000200
631 0.000196
632 0.000192
633 0.000197
634 0.000198
635 0.000201
636 0.000197
637 0.000200
638 0.000205
639 0.000215
640 0.000219
641 0.000223
642 0.000227
643 0.000230
644 0.000234
645 0.000234
646 0.000239
647 0.000231
648 0.000231
649 0.000228
650 0.000223
651 0.000220
652 0.000218
653 0.000211
654 0.000209
655 0.000199
656 0.000196
657 0.000205
658 0.000207
659 0.000213
660 0.000219
661 0.000219
662 0.000217
663 0.000210
664 0.000201
665 0.000201
666 0.000201
667 0.000198
668 0.000192
669 0.000189
670 0.000185
671 0.000179
672 0.000171
673 0.000166
674 0.000167
675 0.000166
676 0.000167
677 0.000168
678 0.000167
679 0.000167
680 0.000162
681 0.000154
682 0.000152
683 0.000141
684 0.000144
685 0.000150
686 0.000152
687 0.000170
688 0.000179
689 0.000187
690 0.000188
691 0.000186
692 0.000181
693 0.000179
694 0.000174
695 0.000172
696 0.000175
697 0.000168
698 0.000165
699 0.000161
700 0.000149
701 0.000140
702 0.000123
703 0.000108
704 0.000099
705 0.000085
706 0.000074
707 0.000071
708 0.000067
709 0.000069
710 0.000062
711 0.000050
712 0.000036
713 0.000023
714 0.000018
715 0.000012
716 0.000003
717 -0.000002
718 0.000000
719 -0.000001
720 0.000006
721 0.000014
722 0.000018
723 0.000026
724 0.000026
725 0.000032
726 0.000038
727 0.000042
728 0.000044
729 0.000045
730 0.000042
731 0.000038
732 0.000035
733 0.000027
734 0.000024
735 0.000024
736 0.000019
737 0.000021
738 0.000023
739 0.000025
740 0.000027
741 0.000026
742 0.000028
743 0.000031
744 0.000034
745 0.000037
746 0.000040
747 0.000046
748 0.000051
749 0.000056
750 0.000060
751 0.000064
752 0.000069
753 0.000077
754 0.000081
755 0.000083
756 0.000079
757 0.000079
758 0.000075
759 0.000066
760 0.000052
761 0.000040
762 0.000031
763 0.000025
764 0.000020
765 0.000018
766 0.000017
767 0.000013
768 0.000011
769 0.000010
770 0.000007
771 0.000004
772 -0.000004
773 -0.000016
774 -0.000027
775 -0.000038
776 -0.000046
777 -0.000053
778 -0.000058
779 -0.000063
780 -0.000064
781 -0.000068
782 -0.000082
783 -0.000094
784 -0.000103
785 -0.000112
786 -0.000116
787 -0.000120
788 -0.000123
789 -0.000121
790 -0.000118
791 -0.000109
792 -0.000101
793 -0.000091
794 -0.000085
795 -0.000082
796 -0.000077
797 -0.000075
798 -0.000070
799 -0.000068
800 -0.000065
801 -0.000063
802 -0.000057
803 -0.000047
804 -0.000039
805 -0.000035
806 -0.000033
807 -0.000035
808 -0.000037
809 -0.000037
