# i correlation
1 0.001634
2 0.001510
3 0.001409
4 0.001324
5 0.001262
6 0.001200
7 0.001149
8 0.001117
9 0.001084
10 0.001056
11 0.001031
12 0.001008
13 0.000989
14 0.000966
15 0.000945
16 0.000931
17 0.000928
18 0.000921
19 0.000908
20 0.000891
21 0.000861
22 0.000827
23 0.000804
24 0.000786
25 0.000769
26 0.000751
27 0.000744
28 0.000747
29 0.000758
30 0.000773
31 0.000783
32 0.000800
33 0.000806
34 0.000811
35 0.000828
36 0.000828
37 0.000825
38 0.000822
39 0.000807
40 0.000806
41 0.000808
42 0.000809
43 0.000817
44 0.000824
45 0.000808
46 0.000792
47 0.000784
48 0.000767
49 0.000749
50 0.000717
51 0.000690
52 0.000671
53 0.000649
54 0.000621
55 0.000599
56 0.000581
57 0.000575
58 0.000560
59 0.000547
60 0.000544
61 0.000551
62 0.000562
63 0.000581
64 0.000588
65 0.000597
66 0.000609
67 0.000622
68 0.000638
69 0.000646
70 0.000647
71 0.000642
72 0.000641
73 0.000638
74 0.000640
75 0.000632
76 0.000615
77 0.000597
78 0.000579
79 0.000572
80 0.000564
81 0.000560
82 0.000559
83 0.000563
84 0.000584
85 0.000608
86 0.000623
87 0.000617
88 0.000602
89 0.000578
90 0.000549
91 0.000520
92 0.000497
93 0.000496
94 0.000498
95 0.000486
96 0.000455
97 0.000421
98 0.000398
99 0.000376
100 0.000368
101 0.000373
102 0.000381
103 0.000392
104 0.000417
105 0.000434
106 0.000463
107 0.000470
108 0.000468
109 0.000467
110 0.000471
111 0.000465
112 0.000455
113 0.000442
114 0.000439
115 0.000448
116 0.000449
117 0.000451
118 0.000447
119 0.000455
120 0.000457
121 0.000458
122 0.000481
123 0.000488
124 0.000481
125 0.000475
126 0.000477
127 0.000472
128 0.000463
129 0.000463
130 0.000460
131 0.000452
132 0.000449
133 0.000446
134 0.000440
135 0.000451
136 0.000467
137 0.000464
138 0.000456
139 0.000446
140 0.000445
141 0.000447
142 0.000447
143 0.000446
144 0.000446
145 0.000454
146 0.000457
147 0.000462
148 0.000462
149 0.000461
150 0.000461
151 0.000467
152 0.000461
153 0.000475
154 0.000497
155 0.000503
156 0.000497
157 0.000493
158 0.000495
159 0.000502
160 0.000502
161 0.000484
162 0.000456
163 0.000442
164 0.000431
165 0.000421
166 0.000427
167 0.000431
168 0.000428
169 0.000429
170 0.000423
171 0.000418
172 0.000414
173 0.000415
174 0.000420
175 0.000419
176 0.000413
177 0.000406
178 0.000403
179 0.000406
180 0.000406
181 0.000390
182 0.000358
183 0.000335
184 0.000314
185 0.000287
186 0.000273
187 0.000264
188 0.000271
189 0.000293
190 0.000309
191 0.000327
192 0.000336
193 0.000343
194 0.000359
195 0.000361
196 0.000359
197 0.000358
198 0.000362
199 0.000364
200 0.000364
201 0.000367
202 0.000358
203 0.000367
204 0.000373
205 0.000366
206 0.000362
207 0.000350
208 0.000356
209 0.000355
210 0.000361
211 0.000365
212 0.000362
213 0.000362
214 0.000356
215 0.000348
216 0.000349
217 0.000342
218 0.000334
219 0.000318
220 0.000305
221 0.000300
222 0.000293
223 0.000293
224 0.000293
225 0.000276
226 0.000273
227 0.000271
228 0.000268
229 0.000267
230 0.000264
231 0.000251
232 0.000249
233 0.000249
234 0.000246
235 0.000252
236 0.000256
237 0.000266
238 0.000272
239 0.000282
240 0.000292
241 0.000307
242 0.000319
243 0.000330
244 0.000339
245 0.000345
246 0.000346
247 0.000360
248 0.000367
249 0.000372
250 0.000362
251 0.000355
252 0.000352
253 0.000342
254 0.000331
255 0.000333
256 0.000313
257 0.000291
258 0.000277
259 0.000268
260 0.000263
261 0.000263
262 0.000273
263 0.000271
264 0.000274
265 0.000276
266 0.000277
267 0.000275
268 0.000274
269 0.000270
270 0.000278
271 0.000281
272 0.000282
273 0.000286
274 0.000282
275 0.000284
276 0.000289
277 0.000285
278 0.000284
279 0.000286
280 0.000293
281 0.000294
282 0.000292
283 0.000303
284 0.000323
285 0.000336
286 0.000347
287 0.000358
288 0.000365
289 0.000372
290 0.000381
291 0.000389
292 0.000379
293 0.000355
294 0.000340
295 0.000334
296 0.000347
297 0.000355
298 0.000354
299 0.000361
300 0.000367
301 0.000374
302 0.000389
303 0.000396
304 0.000400
305 0.000400
306 0.000395
307 0.000384
308 0.000373
309 0.000364
310 0.000354
311 0.000357
312 0.000358
313 0.000357
314 0.000365
315 0.000365
316 0.000371
317 0.000375
318 0.000371
319 0.000375
320 0.000378
321 0.000380
322 0.000380
323 0.000383
324 0.000387
325 0.000383
326 0.000375
327 0.000364
328 0.000349
329 0.000341
330 0.000335
331 0.000327
332 0.000323
333 0.000325
334 0.000328
335 0.000329
336 0.000334
337 0.000336
338 0.000333
339 0.000335
340 0.000339
341 0.000339
342 0.000326
343 0.000319
344 0.000314
345 0.000307
346 0.000308
347 0.000303
348 0.000303
349 0.000307
350 0.000302
351 0.000293
352 0.000277
353 0.000261
354 0.000259
355 0.000262
356 0.000265
357 0.000278
358 0.000290
359 0.000311
360 0.000325
361 0.000332
362 0.000334
363 0.000334
364 0.000335
365 0.000332
366 0.000327
367 0.000318
368 0.000303
369 0.000290
370 0.000285
371 0.000289
372 0.000277
373 0.000271
374 0.000272
375 0.000276
376 0.000275
377 0.000282
378 0.000282
379 0.000272
380 0.000260
381 0.000251
382 0.000248
383 0.000240
384 0.000237
385 0.000223
386 0.000211
387 0.000196
388 0.000184
389 0.000169
390 0.000169
391 0.000160
392 0.000164
393 0.000172
394 0.000173
395 0.000173
396 0.000169
397 0.000165
398 0.000157
399 0.000143
400 0.000137
401 0.000129
402 0.000133
403 0.000135
404 0.000127
405 0.000117
406 0.000130
407 0.000146
408 0.000154
409 0.000156
410 0.000167
411 0.000176
412 0.000182
413 0.000184
414 0.000184
415 0.000182
416 0.000179
417 0.000175
418 0.000176
419 0.000173
420 0.000164
421 0.000163
422 0.000161
423 0.000162
424 0.000169
425 0.000175
426 0.000183
427 0.000184
428 0.000183
429 0.000185
430 0.000184
431 0.000185
432 0.000185
433 0.000179
434 0.000178
435 0.000173
436 0.000166
437 0.000157
438 0.000148
439 0.000143
440 0.000136
441 0.000142
442 0.000148
443 0.000154
444 0.000161
445 0.000179
446 0.000199
447 0.000203
448 0.000202
449 0.000202
450 0.000209
451 0.000218
452 0.000225
453 0.000232
454 0.000232
455 0.000229
456 0.000230
457 0.000221
458 0.000213
459 0.000217
460 0.000221
461 0.000224
462 0.000223
463 0.000217
464 0.000214
465 0.000219
466 0.000224
467 0.000223
468 0.000223
469 0.000227
470 0.000239
471 0.000245
472 0.000249
473 0.000242
474 0.000230
475 0.000218
476 0.000210
477 0.000210
478 0.000224
479 0.000231
480 0.000232
481 0.000245
482 0.000254
483 0.000263
484 0.000272
485 0.000270
486 0.000278
487 0.000281
488 0.000286
489 0.000290
490 0.000302
491 0.000310
492 0.000325
493 0.000329
494 0.000342
495 0.000357
496 0.000371
497 0.000384
498 0.000389
499 0.000387
500 0.000395
501 0.000392
502 0.000395
503 0.000392
504 0.000382
505 0.000370
506 0.000360
507 0.000350
508 0.000340
509 0.000331
510 0.000330
511 0.000329
512 0.000341
513 0.000358
514 0.000363
515 0.000368
516 0.000373
517 0.000384
518 0.000395
519 0.000401
520 0.000401
521 0.000394
522 0.000386
523 0.000374
524 0.000361
525 0.000353
526 0.000335
527 0.000324
528 0.000313
529 0.000306
530 0.000308
531 0.000305
532 0.000307
533 0.000303
534 0.000290
535 0.000286
536 0.000282
537 0.000277
538 0.000281
539 0.000290
540 0.000298
541 0.000299
542 0.000289
543 0.000271
544 0.000257
545 0.000238
546 0.000223
547 0.000217
548 0.000201
549 0.000190
550 0.000185
551 0.000189
552 0.000190
553 0.000197
554 0.000200
555 0.000202
556 0.000203
557 0.000202
558 0.000194
559 0.000188
560 0.000195
561 0.000203
562 0.000211
563 0.000213
564 0.000215
565 0.000215
566 0.000204
567 0.000201
568 0.000193
569 0.000188
570 0.000183
571 0.000170
572 0.000164
573 0.000154
574 0.000153
575 0.000149
576 0.000144
577 0.000141
578 0.000135
579 0.000135
580 0.000124
581 0.000131
582 0.000136
583 0.000131
584 0.000127
585 0.000122
586 0.000117
587 0.000126
588 0.000135
589 0.000138
590 0.000133
591 0.000124
592 0.000121
593 0.000118
594 0.000111
595 0.000102
596 0.000096
597 0.000086
598 0.000082
599 0.000068
600 0.000065
601 0.000070
602 0.000074
603 0.000076
604 0.000083
605 0.000087
606 0.000099
607 0.000110
608 0.000117
609 0.000120
610 0.000122
611 0.000119
612 0.000111
613 0.000104
614 0.000101
615 0.000084
616 0.000079
617 0.000075
618 0.000069
619 0.000071
620 0.000073
621 0.000072
622 0.000076
623 0.000082
624 0.000083
625 0.000097
626 0.000116
627 0.000128
628 0.000134
629 0.000132
630 0.000130
631 0.000126
632 0.000117
633 0.000111
634 0.000103
635 0.000100
636 0.000102
637 0.000105
638 0.000099
639 0.000103
640 0.000102
641 0.000097
642 0.000098
643 0.000093
644 0.000089
645 0.000091
646 0.000093
647 0.000097
648 0.000097
649 0.000098
650 0.000095
651 0.000091
652 0.000072
653 0.000055
654 0.000049
655 0.000049
656 0.000042
657 0.000036
658 0.000035
659 0.000032
660 0.000019
661 0.000019
662 0.000022
663 0.000027
664 0.000029
665 0.000031
666 0.000047
667 0.000060
668 0.000067
669 0.000078
670 0.000087
671 0.000094
672 0.000095
673 0.000099
674 0.000103
675 0.000104
676 0.000105
677 0.000103
678 0.000105
679 0.000108
680 0.000111
681 0.000111
682 0.000113
683 0.000117
684 0.000114
685 0.000100
686 0.000092
687 0.000088
688 0.000081
689 0.000079
690 0.000080
691 0.000084
692 0.000079
693 0.000065
694 0.000055
695 0.000040
696 0.000041
697 0.000042
698 0.000048
699 0.000058
700 0.000060
701 0.000063
702 0.000061
703 0.000051
704 0.000040
705 0.000033
706 0.000029
707 0.000034
708 0.000039
709 0.000038
710 0.000055
711 0.000074
712 0.000079
713 0.000089
714 0.000098
715 0.000106
716 0.000118
717 0.000121
718 0.000119
719 0.000115
720 0.000116
721 0.000116
722 0.000114
723 0.000107
724 0.000098
725 0.000084
726 0.000072
727 0.000060
728 0.000055
729 0.000051
730 0.000048
731 0.000048
732 0.000044
733 0.000048
734 0.000051
735 0.000045
736 0.000044
737 0.000037
738 0.000020
739 0.000002
740 -0.000009
741 -0.000012
742 -0.000009
743 -0.000000
744 0.000000
745 0.000001
746 -0.000004
747 -0.000009
748 -0.000010
749 -0.000012
750 -0.000012
751 -0.000008
752 0.000001
753 0.000015
754 0.000028
755 0.000039
756 0.000046
757 0.000053
758 0.000056
759 0.000054
760 0.000057
761 0.000063
762 0.000072
763 0.000078
764 0.000084
765 0.000093
766 0.000099
767 0.000098
768 0.000105
769 0.000105
770 0.000105
771 0.000101
772 0.000095
773 0.000098
774 0.000095
775 0.000094
776 0.000097
777 0.000104
778 0.000107
779 0.000101
780 0.000094
781 0.000089
782 0.000086
783 0.000086
784 0.000089
785 0.000104
786 0.000119
787 0.000132
788 0.000134
789 0.000132
790 0.000130
791 0.000123
792 0.000117
793 0.000115
794 0.000116
795 0.000119
796 0.000126
797 0.000133
798 0.000141
799 0.000143
800 0.000150
801 0.000152
802 0.000156
803 0.000162
804 0.000165
805 0.000171
806 0.000180
807 0.000176
808 0.000179
809 0.000183
