# i correlation
1 0.002592
2 0.002484
3 0.002394
4 0.002313
5 0.002234
6 0.002173
7 0.002113
8 0.002058
9 0.002022
10 0.001998
11 0.001970
12 0.001956
13 0.001951
14 0.001938
15 0.001930
16 0.001920
17 0.001916
18 0.001896
19 0.001879
20 0.001873
21 0.001873
22 0.001870
23 0.001857
24 0.001847
25 0.001835
26 0.001823
27 0.001810
28 0.001797
29 0.001786
30 0.001777
31 0.001757
32 0.001744
33 0.001726
34 0.001706
35 0.001685
36 0.001663
37 0.001653
38 0.001650
39 0.001654
40 0.001668
41 0.001675
42 0.001689
43 0.001703
44 0.001735
45 0.001745
46 0.001734
47 0.001730
48 0.001712
49 0.001693
50 0.001671
51 0.001644
52 0.001615
53 0.001593
54 0.001575
55 0.001552
56 0.001528
57 0.001519
58 0.001504
59 0.001483
60 0.001470
61 0.001464
62 0.001470
63 0.001473
64 0.001477
65 0.001487
66 0.001494
67 0.001494
68 0.001489
69 0.001488
70 0.001477
71 0.001476
72 0.001471
73 0.001448
74 0.001422
75 0.001402
76 0.001378
77 0.001360
78 0.001344
79 0.001331
80 0.001318
81 0.001304
82 0.001280
83 0.001263
84 0.001249
85 0.001243
86 0.001242
87 0.001241
88 0.001234
89 0.001234
90 0.001239
91 0.001246
92 0.001247
93 0.001234
94 0.001228
95 0.001228
96 0.001222
97 0.001213
98 0.001215
99 0.001203
100 0.001193
101 0.001193
102 0.001186
103 0.001168
104 0.001155
105 0.001136
106 0.001118
107 0.001113
108 0.001125
109 0.001123
110 0.001116
111 0.001118
112 0.001131
113 0.001139
114 0.001131
115 0.001125
116 0.001117
117 0.001099
118 0.001079
119 0.001055
120 0.001047
121 0.001024
122 0.001009
123 0.000988
124 0.000969
125 0.000982
126 0.000993
127 0.000990
128 0.000987
129 0.000978
130 0.000974
131 0.000969
132 0.000981
133 0.000986
134 0.001007
135 0.001016
136 0.001018
137 0.001034
138 0.001040
139 0.001046
140 0.001039
141 0.001022
142 0.001029
143 0.001023
144 0.001012
145 0.001007
146 0.001004
147 0.001006
148 0.000997
149 0.000998
150 0.000981
151 0.000969
152 0.000978
153 0.000981
154 0.000986
155 0.001005
156 0.001026
157 0.001041
158 0.001057
159 0.001064
160 0.001069
161 0.001068
162 0.001058
163 0.001056
164 0.001062
165 0.001064
166 0.001062
167 0.001062
168 0.001054
169 0.001053
170 0.001065
171 0.001067
172 0.001066
173 0.001064
174 0.001056
175 0.001048
176 0.001047
177 0.001054
178 0.001051
179 0.001061
180 0.001064
181 0.001068
182 0.001071
183 0.001074
184 0.001074
185 0.001071
186 0.001079
187 0.001085
188 0.001078
189 0.001079
190 0.001053
191 0.001034
192 0.001024
193 0.001005
194 0.000976
195 0.000950
196 0.000940
197 0.000929
198 0.000920
199 0.000927
200 0.000934
201 0.000943
202 0.000953
203 0.000959
204 0.000975
205 0.000991
206 0.000999
207 0.000993
208 0.000988
209 0.001000
210 0.001001
211 0.000990
212 0.000982
213 0.000976
214 0.000975
215 0.000969
216 0.000956
217 0.000946
218 0.000932
219 0.000912
220 0.000898
221 0.000886
222 0.000866
223 0.000860
224 0.000854
225 0.000850
226 0.000851
227 0.000850
228 0.000857
229 0.000861
230 0.000877
231 0.000879
232 0.000875
233 0.000885
234 0.000891
235 0.000889
236 0.000890
237 0.000882
238 0.000868
239 0.000849
240 0.000831
241 0.000814
242 0.000799
243 0.000800
244 0.000794
245 0.000783
246 0.000783
247 0.000779
248 0.000777
249 0.000771
250 0.000789
251 0.000805
252 0.000811
253 0.000816
254 0.000834
255 0.000841
256 0.000838
257 0.000834
258 0.000838
259 0.000836
260 0.000838
261 0.000832
262 0.000833
263 0.000823
264 0.000815
265 0.000816
266 0.000808
267 0.000801
268 0.000793
269 0.000779
270 0.000772
271 0.000772
272 0.000783
273 0.000788
274 0.000790
275 0.000788
276 0.000780
277 0.000775
278 0.000771
279 0.000762
280 0.000752
281 0.000753
282 0.000751
283 0.000752
284 0.000750
285 0.000751
286 0.000756
287 0.000762
288 0.000763
289 0.000759
290 0.000760
291 0.000756
292 0.000750
293 0.000741
294 0.000731
295 0.000733
296 0.000733
297 0.000736
298 0.000745
299 0.000761
300 0.000774
301 0.000791
302 0.000804
303 0.000811
304 0.000820
305 0.000834
306 0.000830
307 0.000817
308 0.000800
309 0.000777
310 0.000759
311 0.000740
312 0.000729
313 0.000719
314 0.000711
315 0.000714
316 0.000708
317 0.000710
318 0.000708
319 0.000714
320 0.000696
321 0.000698
322 0.000705
323 0.000714
324 0.000712
325 0.000718
326 0.000726
327 0.000729
328 0.000727
329 0.000717
330 0.000717
331 0.000725
332 0.000721
333 0.000705
334 0.000703
335 0.000701
336 0.000701
337 0.000705
338 0.000714
339 0.000720
340 0.000726
341 0.000735
342 0.000729
343 0.000736
344 0.000748
345 0.000768
346 0.000782
347 0.000793
348 0.000802
349 0.000811
350 0.000810
351 0.000811
352 0.000817
353 0.000812
354 0.000802
355 0.000786
356 0.000773
357 0.000763
358 0.000749
359 0.000740
360 0.000719
361 0.000708
362 0.000710
363 0.000721
364 0.000718
365 0.000722
366 0.000727
367 0.000724
368 0.000726
369 0.000727
370 0.000732
371 0.000736
372 0.000741
373 0.000746
374 0.000742
375 0.000728
376 0.000718
377 0.000702
378 0.000687
379 0.000676
380 0.000672
381 0.000665
382 0.000660
383 0.000658
384 0.000654
385 0.000659
386 0.000661
387 0.000661
388 0.000666
389 0.000659
390 0.000652
391 0.000644
392 0.000643
393 0.000644
394 0.000656
395 0.000655
396 0.000658
397 0.000659
398 0.000670
399 0.000672
400 0.000668
401 0.000669
402 0.000668
403 0.000663
404 0.000649
405 0.000632
406 0.000611
407 0.000598
408 0.000575
409 0.000571
410 0.000575
411 0.000578
412 0.000572
413 0.000568
414 0.000572
415 0.000580
416 0.000582
417 0.000599
418 0.000604
419 0.000601
420 0.000605
421 0.000603
422 0.000588
423 0.000576
424 0.000566
425 0.000561
426 0.000568
427 0.000579
428 0.000580
429 0.000576
430 0.000586
431 0.000595
432 0.000600
433 0.000599
434 0.000586
435 0.000592
436 0.000591
437 0.000587
438 0.000589
439 0.000605
440 0.000614
441 0.000619
442 0.000634
443 0.000655
444 0.000669
445 0.000669
446 0.000659
447 0.000646
448 0.000630
449 0.000619
450 0.000597
451 0.000578
452 0.000560
453 0.000548
454 0.000536
455 0.000523
456 0.000524
457 0.000521
458 0.000513
459 0.000511
460 0.000514
461 0.000520
462 0.000514
463 0.000517
464 0.000520
465 0.000527
466 0.000529
467 0.000527
468 0.000526
469 0.000526
470 0.000531
471 0.000540
472 0.000549
473 0.000557
474 0.000564
475 0.000571
476 0.000572
477 0.000573
478 0.000570
479 0.000575
480 0.000579
481 0.000580
482 0.000578
483 0.000584
484 0.000595
485 0.000602
486 0.000613
487 0.000623
488 0.000635
489 0.000640
490 0.000643
491 0.000650
492 0.000650
493 0.000648
494 0.000649
495 0.000645
496 0.000648
497 0.000650
498 0.000657
499 0.000654
500 0.000657
501 0.000669
502 0.000673
503 0.000676
504 0.000680
505 0.000679
506 0.000678
507 0.000669
508 0.000665
509 0.000658
510 0.000658
511 0.000653
512 0.000646
513 0.000649
514 0.000653
515 0.000661
516 0.000660
517 0.000658
518 0.000663
519 0.000665
520 0.000664
521 0.000664
522 0.000663
523 0.000668
524 0.000669
525 0.000668
526 0.000661
527 0.000652
528 0.000648
529 0.000651
530 0.000653
531 0.000651
532 0.000651
533 0.000654
534 0.000656
535 0.000664
536 0.000677
537 0.000682
538 0.000696
539 0.000711
540 0.000723
541 0.000730
542 0.000729
543 0.000734
544 0.000735
545 0.000740
546 0.000738
547 0.000732
548 0.000731
549 0.000730
550 0.000725
551 0.000728
552 0.000735
553 0.000742
554 0.000746
555 0.000755
556 0.000757
557 0.000757
558 0.000758
559 0.000753
560 0.000745
561 0.000741
562 0.000736
563 0.000732
564 0.000729
565 0.000728
566 0.000725
567 0.000731
568 0.000735
569 0.000745
570 0.000755
571 0.000756
572 0.000756
573 0.000758
574 0.000756
575 0.000760
576 0.000754
577 0.000751
578 0.000747
579 0.000739
580 0.000724
581 0.000712
582 0.000703
583 0.000697
584 0.000689
585 0.000686
586 0.000679
587 0.000676
588 0.000684
589 0.000685
590 0.000683
591 0.000689
592 0.000687
593 0.000690
594 0.000690
595 0.000683
596 0.000684
597 0.000684
598 0.000688
599 0.000688
600 0.000694
601 0.000694
602 0.000703
603 0.000710
604 0.000719
605 0.000724
606 0.000728
607 0.000732
608 0.000731
609 0.000724
610 0.000718
611 0.000707
612 0.000694
613 0.000687
614 0.000683
615 0.000678
616 0.000678
617 0.000680
618 0.000678
619 0.000681
620 0.000679
621 0.000681
622 0.000673
623 0.000664
624 0.000646
625 0.000625
626 0.000610
627 0.000601
628 0.000591
629 0.000580
630 0.000576
631 0.000568
632 0.000564
633 0.000560
634 0.000556
635 0.000557
636 0.000564
637 0.000569
638 0.000574
639 0.000564
640 0.000571
641 0.000573
642 0.000575
643 0.000574
644 0.000581
645 0.000580
646 0.000570
647 0.000566
648 0.000561
649 0.000556
650 0.000557
651 0.000557
652 0.000558
653 0.000564
654 0.000557
655 0.000547
656 0.000537
657 0.000531
658 0.000524
659 0.000518
660 0.000518
661 0.000519
662 0.000515
663 0.000507
664 0.000500
665 0.000499
666 0.000492
667 0.000481
668 0.000473
669 0.000468
670 0.000467
671 0.000469
672 0.000469
673 0.000469
674 0.000469
675 0.000470
676 0.000467
677 0.000466
678 0.000463
679 0.000461
680 0.000455
681 0.000447
682 0.000438
683 0.000432
684 0.000428
685 0.000427
686 0.000421
687 0.000418
688 0.000409
689 0.000397
690 0.000391
691 0.000379
692 0.000372
693 0.000370
694 0.000360
695 0.000355
696 0.000344
697 0.000338
698 0.000332
699 0.000323
700 0.000323
701 0.000322
702 0.000325
703 0.000323
704 0.000328
705 0.000328
706 0.000327
707 0.000328
708 0.000327
709 0.000323
710 0.000322
711 0.000320
712 0.000308
713 0.000297
714 0.000285
715 0.000277
716 0.000275
717 0.000277
718 0.000277
719 0.000281
720 0.000278
721 0.000275
722 0.000276
723 0.000270
724 0.000263
725 0.000265
726 0.000255
727 0.000243
728 0.000236
729 0.000226
730 0.000222
731 0.000219
732 0.000216
733 0.000212
734 0.000213
735 0.000213
736 0.000208
737 0.000205
738 0.000199
739 0.000195
740 0.000189
741 0.000184
742 0.000187
743 0.000191
744 0.000192
745 0.000198
746 0.000204
747 0.000204
748 0.000207
749 0.000213
750 0.000218
751 0.000220
752 0.000219
753 0.000220
754 0.000218
755 0.000218
756 0.000219
757 0.000216
758 0.000212
759 0.000205
760 0.000200
761 0.000196
762 0.000189
763 0.000183
764 0.000178
765 0.000171
766 0.000174
767 0.000175
768 0.000176
769 0.000180
770 0.000183
771 0.000185
772 0.000186
773 0.000190
774 0.000195
775 0.000202
776 0.000208
777 0.000215
778 0.000217
779 0.000221
780 0.000226
781 0.000224
782 0.000223
783 0.000227
784 0.000233
785 0.000236
786 0.000235
787 0.000242
788 0.000246
789 0.000251
790 0.000257
791 0.000265
792 0.000266
793 0.000270
794 0.000272
795 0.000266
796 0.000259
797 0.000256
798 0.000252
799 0.000246
800 0.000242
801 0.000234
802 0.000226
803 0.000218
804 0.000206
805 0.000197
806 0.000190
807 0.000180
808 0.000172
809 0.000164
