# i correlation
1 0.001811
2 0.001707
3 0.001624
4 0.001559
5 0.001503
6 0.001451
7 0.001401
8 0.001364
9 0.001343
10 0.001321
11 0.001299
12 0.001286
13 0.001274
14 0.001262
15 0.001251
16 0.001237
17 0.001229
18 0.001225
19 0.001207
20 0.001189
21 0.001179
22 0.001172
23 0.001160
24 0.001138
25 0.001117
26 0.001109
27 0.001118
28 0.001135
29 0.001132
30 0.001112
31 0.001093
32 0.001085
33 0.001085
34 0.001097
35 0.001095
36 0.001096
37 0.001091
38 0.001089
39 0.001087
40 0.001079
41 0.001063
42 0.001048
43 0.001033
44 0.001012
45 0.000993
46 0.000979
47 0.000974
48 0.000967
49 0.000963
50 0.000952
51 0.000954
52 0.000958
53 0.000961
54 0.000953
55 0.000941
56 0.000942
57 0.000949
58 0.000948
59 0.000943
60 0.000934
61 0.000929
62 0.000928
63 0.000936
64 0.000940
65 0.000942
66 0.000938
67 0.000929
68 0.000919
69 0.000906
70 0.000889
71 0.000890
72 0.000875
73 0.000862
74 0.000857
75 0.000857
76 0.000865
77 0.000863
78 0.000861
79 0.000854
80 0.000849
81 0.000834
82 0.000820
83 0.000811
84 0.000799
85 0.000802
86 0.000814
87 0.000822
88 0.000822
89 0.000812
90 0.000800
91 0.000794
92 0.000801
93 0.000814
94 0.000823
95 0.000829
96 0.000836
97 0.000837
98 0.000828
99 0.000824
100 0.000836
101 0.000844
102 0.000851
103 0.000841
104 0.000842
105 0.000846
106 0.000842
107 0.000834
108 0.000823
109 0.000807
110 0.000797
111 0.000791
112 0.000783
113 0.000773
114 0.000773
115 0.000772
116 0.000766
117 0.000766
118 0.000758
119 0.000752
120 0.000748
121 0.000746
122 0.000749
123 0.000738
124 0.000723
125 0.000714
126 0.000692
127 0.000670
128 0.000662
129 0.000656
130 0.000648
131 0.000655
132 0.000660
133 0.000659
134 0.000658
135 0.000660
136 0.000675
137 0.000678
138 0.000680
139 0.000684
140 0.000687
141 0.000675
142 0.000654
143 0.000634
144 0.000628
145 0.000624
146 0.000617
147 0.000615
148 0.000608
149 0.000608
150 0.000607
151 0.000600
152 0.000598
153 0.000610
154 0.000617
155 0.000618
156 0.000612
157 0.000603
158 0.000604
159 0.000616
160 0.000616
161 0.000612
162 0.000613
163 0.000611
164 0.000602
165 0.000601
166 0.000599
167 0.000604
168 0.000613
169 0.000613
170 0.000610
171 0.000618
172 0.000623
173 0.000632
174 0.000630
175 0.000629
176 0.000622
177 0.000620
178 0.000606
179 0.000600
180 0.000589
181 0.000576
182 0.000577
183 0.000581
184 0.000573
185 0.000568
186 0.000566
187 0.000565
188 0.000572
189 0.000579
190 0.000587
191 0.000580
192 0.000570
193 0.000569
194 0.000567
195 0.000566
196 0.000568
197 0.000571
198 0.000577
199 0.000582
200 0.000587
201 0.000598
202 0.000607
203 0.000597
204 0.000577
205 0.000574
206 0.000562
207 0.000548
208 0.000534
209 0.000513
210 0.000489
211 0.000476
212 0.000466
213 0.000449
214 0.000436
215 0.000422
216 0.000426
217 0.000434
218 0.000440
219 0.000446
220 0.000442
221 0.000446
222 0.000451
223 0.000451
224 0.000459
225 0.000469
226 0.000470
227 0.000479
228 0.000480
229 0.000488
230 0.000484
231 0.000478
232 0.000475
233 0.000484
234 0.000491
235 0.000498
236 0.000505
237 0.000503
238 0.000503
239 0.000510
240 0.000505
241 0.000498
242 0.000492
243 0.000483
244 0.000470
245 0.000470
246 0.000475
247 0.000470
248 0.000465
249 0.000464
250 0.000454
251 0.000445
252 0.000436
253 0.000437
254 0.000439
255 0.000447
256 0.000460
257 0.000477
258 0.000485
259 0.000491
260 0.000497
261 0.000504
262 0.000500
263 0.000494
264 0.000486
265 0.000475
266 0.000461
267 0.000450
268 0.000432
269 0.000419
270 0.000409
271 0.000399
272 0.000396
273 0.000391
274 0.000390
275 0.000398
276 0.000413
277 0.000421
278 0.000431
279 0.000435
280 0.000438
281 0.000442
282 0.000441
283 0.000437
284 0.000435
285 0.000443
286 0.000439
287 0.000434
288 0.000430
289 0.000422
290 0.000423
291 0.000421
292 0.000419
293 0.000422
294 0.000430
295 0.000430
296 0.000429
297 0.000427
298 0.000430
299 0.000442
300 0.000454
301 0.000452
302 0.000451
303 0.000454
304 0.000455
305 0.000460
306 0.000454
307 0.000447
308 0.000437
309 0.000424
310 0.000416
311 0.000402
312 0.000400
313 0.000401
314 0.000404
315 0.000400
316 0.000403
317 0.000404
318 0.000409
319 0.000408
320 0.000404
321 0.000401
322 0.000403
323 0.000406
324 0.000401
325 0.000393
326 0.000387
327 0.000388
328 0.000392
329 0.000394
330 0.000392
331 0.000392
332 0.000385
333 0.000379
334 0.000372
335 0.000374
336 0.000375
337 0.000373
338 0.000371
339 0.000381
340 0.000389
341 0.000394
342 0.000395
343 0.000400
344 0.000412
345 0.000425
346 0.000440
347 0.000445
348 0.000449
349 0.000452
350 0.000456
351 0.000447
352 0.000442
353 0.000439
354 0.000427
355 0.000418
356 0.000421
357 0.000421
358 0.000427
359 0.000424
360 0.000417
361 0.000427
362 0.000427
363 0.000421
364 0.000412
365 0.000406
366 0.000395
367 0.000389
368 0.000390
369 0.000386
370 0.000383
371 0.000380
372 0.000377
373 0.000375
374 0.000377
375 0.000370
376 0.000363
377 0.000363
378 0.000374
379 0.000388
380 0.000396
381 0.000398
382 0.000396
383 0.000398
384 0.000399
385 0.000394
386 0.000390
387 0.000382
388 0.000382
389 0.000377
390 0.000370
391 0.000361
392 0.000355
393 0.000353
394 0.000357
395 0.000359
396 0.000355
397 0.000356
398 0.000358
399 0.000360
400 0.000360
401 0.000362
402 0.000369
403 0.000365
404 0.000370
405 0.000361
406 0.000353
407 0.000351
408 0.000349
409 0.000337
410 0.000331
411 0.000328
412 0.000332
413 0.000327
414 0.000323
415 0.000313
416 0.000311
417 0.000315
418 0.000314
419 0.000318
420 0.000315
421 0.000318
422 0.000321
423 0.000319
424 0.000316
425 0.000317
426 0.000316
427 0.000311
428 0.000301
429 0.000290
430 0.000277
431 0.000274
432 0.000283
433 0.000288
434 0.000290
435 0.000298
436 0.000304
437 0.000311
438 0.000321
439 0.000323
440 0.000324
441 0.000329
442 0.000328
443 0.000319
444 0.000306
445 0.000300
446 0.000299
447 0.000301
448 0.000297
449 0.000286
450 0.000277
451 0.000276
452 0.000271
453 0.000270
454 0.000276
455 0.000281
456 0.000284
457 0.000281
458 0.000282
459 0.000278
460 0.000274
461 0.000273
462 0.000268
463 0.000263
464 0.000263
465 0.000270
466 0.000279
467 0.000282
468 0.000285
469 0.000282
470 0.000282
471 0.000281
472 0.000270
473 0.000264
474 0.000258
475 0.000264
476 0.000273
477 0.000277
478 0.000276
479 0.000272
480 0.000277
481 0.000281
482 0.000283
483 0.000287
484 0.000295
485 0.000307
486 0.000306
487 0.000300
488 0.000295
489 0.000293
490 0.000300
491 0.000296
492 0.000288
493 0.000282
494 0.000286
495 0.000285
496 0.000280
497 0.000275
498 0.000277
499 0.000282
500 0.000282
501 0.000272
502 0.000266
503 0.000264
504 0.000259
505 0.000259
506 0.000261
507 0.000256
508 0.000256
509 0.000247
510 0.000240
511 0.000233
512 0.000236
513 0.000239
514 0.000235
515 0.000230
516 0.000224
517 0.000219
518 0.000222
519 0.000224
520 0.000219
521 0.000214
522 0.000202
523 0.000184
524 0.000177
525 0.000178
526 0.000180
527 0.000175
528 0.000166
529 0.000162
530 0.000165
531 0.000152
532 0.000140
533 0.000134
534 0.000131
535 0.000131
536 0.000131
537 0.000133
538 0.000136
539 0.000145
540 0.000155
541 0.000172
542 0.000187
543 0.000197
544 0.000200
545 0.000199
546 0.000201
547 0.000207
548 0.000221
549 0.000230
550 0.000236
551 0.000240
552 0.000254
553 0.000270
554 0.000275
555 0.000279
556 0.000279
557 0.000282
558 0.000287
559 0.000284
560 0.000278
561 0.000274
562 0.000268
563 0.000265
564 0.000262
565 0.000257
566 0.000255
567 0.000255
568 0.000251
569 0.000251
570 0.000258
571 0.000269
572 0.000268
573 0.000271
574 0.000268
575 0.000273
576 0.000275
577 0.000289
578 0.000301
579 0.000311
580 0.000315
581 0.000318
582 0.000321
583 0.000317
584 0.000312
585 0.000313
586 0.000317
587 0.000320
588 0.000321
589 0.000322
590 0.000331
591 0.000341
592 0.000345
593 0.000347
594 0.000351
595 0.000350
596 0.000354
597 0.000342
598 0.000330
599 0.000324
600 0.000315
601 0.000313
602 0.000311
603 0.000306
604 0.000305
605 0.000317
606 0.000332
607 0.000350
608 0.000364
609 0.000369
610 0.000372
611 0.000363
612 0.000356
613 0.000351
614 0.000340
615 0.000332
616 0.000321
617 0.000320
618 0.000321
619 0.000321
620 0.000318
621 0.000317
622 0.000313
623 0.000307
624 0.000297
625 0.000279
626 0.000261
627 0.000246
628 0.000236
629 0.000224
630 0.000229
631 0.000228
632 0.000211
633 0.000200
634 0.000191
635 0.000188
636 0.000188
637 0.000190
638 0.000188
639 0.000190
640 0.000188
641 0.000190
642 0.000187
643 0.000190
644 0.000192
645 0.000189
646 0.000190
647 0.000196
648 0.000195
649 0.000193
650 0.000183
651 0.000173
652 0.000163
653 0.000163
654 0.000159
655 0.000155
656 0.000154
657 0.000160
658 0.000173
659 0.000186
660 0.000196
661 0.000197
662 0.000198
663 0.000192
664 0.000196
665 0.000204
666 0.000209
667 0.000214
668 0.000216
669 0.000215
670 0.000217
671 0.000222
672 0.000226
673 0.000232
674 0.000236
675 0.000242
676 0.000242
677 0.000248
678 0.000254
679 0.000256
680 0.000253
681 0.000253
682 0.000248
683 0.000246
684 0.000247
685 0.000245
686 0.000240
687 0.000237
688 0.000236
689 0.000233
690 0.000218
691 0.000204
692 0.000197
693 0.000195
694 0.000194
695 0.000188
696 0.000186
697 0.000182
698 0.000179
699 0.000176
700 0.000174
701 0.000177
702 0.000177
703 0.000170
704 0.000168
705 0.000167
706 0.000167
707 0.000179
708 0.000181
709 0.000183
710 0.000183
711 0.000187
712 0.000189
713 0.000195
714 0.000205
715 0.000211
716 0.000211
717 0.000219
718 0.000222
719 0.000222
720 0.000213
721 0.000204
722 0.000190
723 0.000186
724 0.000183
725 0.000181
726 0.000180
727 0.000190
728 0.000195
729 0.000190
730 0.000189
731 0.000181
732 0.000183
733 0.000179
734 0.000174
735 0.000174
736 0.000174
737 0.000168
738 0.000159
739 0.000147
740 0.000145
741 0.000155
742 0.000164
743 0.000175
744 0.000186
745 0.000196
746 0.000205
747 0.000211
748 0.000216
749 0.000218
750 0.000213
751 0.000209
752 0.000207
753 0.000205
754 0.000207
755 0.000207
756 0.000205
757 0.000196
758 0.000190
759 0.000184
760 0.000180
761 0.000176
762 0.000172
763 0.000165
764 0.000162
765 0.000159
766 0.000157
767 0.000152
768 0.000149
769 0.000150
770 0.000155
771 0.000156
772 0.000161
773 0.000163
774 0.000162
775 0.000169
776 0.000176
777 0.000181
778 0.000185
779 0.000190
780 0.000195
781 0.000199
782 0.000200
783 0.000203
784 0.000204
785 0.000202
786 0.000198
787 0.000194
788 0.000189
789 0.000187
790 0.000184
791 0.000173
792 0.000163
793 0.000157
794 0.000153
795 0.000150
796 0.000149
797 0.000146
798 0.000139
799 0.000131
800 0.000118
801 0.000105
802 0.000087
803 0.000078
804 0.000070
805 0.000064
806 0.000064
807 0.000068
808 0.000068
809 0.000068
