# i correlation
1 0.002575
2 0.002460
3 0.002361
4 0.002270
5 0.002200
6 0.002142
7 0.002094
8 0.002053
9 0.002013
10 0.001983
11 0.001959
12 0.001928
13 0.001875
14 0.001829
15 0.001791
16 0.001748
17 0.001710
18 0.001674
19 0.001648
20 0.001622
21 0.001593
22 0.001572
23 0.001554
24 0.001528
25 0.001498
26 0.001484
27 0.001475
28 0.001457
29 0.001431
30 0.001411
31 0.001405
32 0.001397
33 0.001400
34 0.001414
35 0.001421
36 0.001421
37 0.001411
38 0.001397
39 0.001386
40 0.001375
41 0.001368
42 0.001359
43 0.001366
44 0.001359
45 0.001366
46 0.001368
47 0.001381
48 0.001382
49 0.001368
50 0.001358
51 0.001356
52 0.001354
53 0.001360
54 0.001377
55 0.001390
56 0.001399
57 0.001397
58 0.001392
59 0.001387
60 0.001384
61 0.001376
62 0.001369
63 0.001376
64 0.001379
65 0.001371
66 0.001373
67 0.001378
68 0.001384
69 0.001393
70 0.001408
71 0.001414
72 0.001409
73 0.001393
74 0.001388
75 0.001384
76 0.001380
77 0.001376
78 0.001385
79 0.001399
80 0.001418
81 0.001431
82 0.001447
83 0.001460
84 0.001471
85 0.001483
86 0.001471
87 0.001459
88 0.001449
89 0.001439
90 0.001441
91 0.001451
92 0.001458
93 0.001457
94 0.001455
95 0.001457
96 0.001449
97 0.001443
98 0.001434
99 0.001425
100 0.001400
101 0.001383
102 0.001364
103 0.001352
104 0.001333
105 0.001314
106 0.001304
107 0.001301
108 0.001283
109 0.001280
110 0.001288
111 0.001300
112 0.001303
113 0.001295
114 0.001288
115 0.001278
116 0.001265
117 0.001246
118 0.001236
119 0.001226
120 0.001214
121 0.001210
122 0.001211
123 0.001217
124 0.001198
125 0.001199
126 0.001201
127 0.001207
128 0.001202
129 0.001206
130 0.001210
131 0.001209
132 0.001215
133 0.001219
134 0.001201
135 0.001190
136 0.001182
137 0.001172
138 0.001168
139 0.001155
140 0.001147
141 0.001138
142 0.001124
143 0.001101
144 0.001087
145 0.001074
146 0.001075
147 0.001056
148 0.001045
149 0.001043
150 0.001033
151 0.001017
152 0.001007
153 0.000989
154 0.000981
155 0.000977
156 0.000982
157 0.000980
158 0.000963
159 0.000946
160 0.000934
161 0.000928
162 0.000916
163 0.000923
164 0.000927
165 0.000932
166 0.000950
167 0.000962
168 0.000982
169 0.000985
170 0.000985
171 0.000963
172 0.000949
173 0.000945
174 0.000937
175 0.000941
176 0.000952
177 0.000956
178 0.000949
179 0.000943
180 0.000934
181 0.000926
182 0.000911
183 0.000902
184 0.000904
185 0.000897
186 0.000911
187 0.000933
188 0.000949
189 0.000961
190 0.000961
191 0.000961
192 0.000956
193 0.000954
194 0.000950
195 0.000954
196 0.000968
197 0.000978
198 0.000989
199 0.001003
200 0.001003
201 0.000999
202 0.000999
203 0.001000
204 0.001007
205 0.000996
206 0.000987
207 0.000974
208 0.000971
209 0.000979
210 0.000995
211 0.001012
212 0.001012
213 0.001008
214 0.001000
215 0.000992
216 0.000982
217 0.000976
218 0.000969
219 0.000956
220 0.000959
221 0.000968
222 0.000987
223 0.001002
224 0.001020
225 0.001030
226 0.001038
227 0.001044
228 0.001029
229 0.001008
230 0.000988
231 0.000965
232 0.000943
233 0.000923
234 0.000914
235 0.000903
236 0.000891
237 0.000878
238 0.000868
239 0.000858
240 0.000852
241 0.000846
242 0.000828
243 0.000812
244 0.000799
245 0.000783
246 0.000773
247 0.000772
248 0.000774
249 0.000767
250 0.000755
251 0.000744
252 0.000737
253 0.000739
254 0.000732
255 0.000733
256 0.000738
257 0.000745
258 0.000767
259 0.000784
260 0.000792
261 0.000795
262 0.000799
263 0.000801
264 0.000794
265 0.000788
266 0.000778
267 0.000774
268 0.000776
269 0.000779
270 0.000779
271 0.000785
272 0.000790
273 0.000798
274 0.000801
275 0.000807
276 0.000800
277 0.000794
278 0.000799
279 0.000815
280 0.000831
281 0.000847
282 0.000864
283 0.000868
284 0.000870
285 0.000857
286 0.000843
287 0.000831
288 0.000817
289 0.000808
290 0.000805
291 0.000796
292 0.000789
293 0.000794
294 0.000794
295 0.000794
296 0.000803
297 0.000795
298 0.000791
299 0.000789
300 0.000788
301 0.000792
302 0.000788
303 0.000781
304 0.000779
305 0.000775
306 0.000779
307 0.000785
308 0.000786
309 0.000792
310 0.000797
311 0.000790
312 0.000783
313 0.000768
314 0.000753
315 0.000740
316 0.000723
317 0.000712
318 0.000706
319 0.000706
320 0.000712
321 0.000729
322 0.000740
323 0.000743
324 0.000732
325 0.000723
326 0.000712
327 0.000702
328 0.000682
329 0.000667
330 0.000646
331 0.000622
332 0.000613
333 0.000608
334 0.000612
335 0.000614
336 0.000623
337 0.000634
338 0.000648
339 0.000646
340 0.000651
341 0.000652
342 0.000647
343 0.000653
344 0.000661
345 0.000666
346 0.000660
347 0.000653
348 0.000641
349 0.000627
350 0.000615
351 0.000599
352 0.000589
353 0.000587
354 0.000593
355 0.000613
356 0.000636
357 0.000650
358 0.000651
359 0.000652
360 0.000654
361 0.000653
362 0.000654
363 0.000657
364 0.000663
365 0.000662
366 0.000660
367 0.000662
368 0.000663
369 0.000654
370 0.000651
371 0.000646
372 0.000647
373 0.000648
374 0.000653
375 0.000650
376 0.000644
377 0.000631
378 0.000618
379 0.000615
380 0.000610
381 0.000610
382 0.000601
383 0.000588
384 0.000568
385 0.000548
386 0.000537
387 0.000515
388 0.000502
389 0.000491
390 0.000488
391 0.000495
392 0.000506
393 0.000513
394 0.000516
395 0.000520
396 0.000513
397 0.000500
398 0.000499
399 0.000492
400 0.000487
401 0.000487
402 0.000483
403 0.000476
404 0.000484
405 0.000483
406 0.000477
407 0.000481
408 0.000485
409 0.000488
410 0.000493
411 0.000498
412 0.000494
413 0.000496
414 0.000500
415 0.000514
416 0.000524
417 0.000530
418 0.000530
419 0.000540
420 0.000542
421 0.000545
422 0.000549
423 0.000556
424 0.000556
425 0.000559
426 0.000559
427 0.000559
428 0.000569
429 0.000585
430 0.000591
431 0.000599
432 0.000597
433 0.000594
434 0.000583
435 0.000582
436 0.000586
437 0.000593
438 0.000595
439 0.000593
440 0.000588
441 0.000585
442 0.000576
443 0.000561
444 0.000551
445 0.000550
446 0.000552
447 0.000556
448 0.000563
449 0.000569
450 0.000576
451 0.000573
452 0.000579
453 0.000574
454 0.000561
455 0.000551
456 0.000544
457 0.000544
458 0.000539
459 0.000538
460 0.000526
461 0.000514
462 0.000499
463 0.000488
464 0.000479
465 0.000457
466 0.000440
467 0.000429
468 0.000422
469 0.000423
470 0.000426
471 0.000427
472 0.000421
473 0.000419
474 0.000418
475 0.000414
476 0.000410
477 0.000410
478 0.000417
479 0.000423
480 0.000430
481 0.000428
482 0.000424
483 0.000429
484 0.000431
485 0.000438
486 0.000445
487 0.000441
488 0.000441
489 0.000445
490 0.000453
491 0.000457
492 0.000461
493 0.000474
494 0.000479
495 0.000484
496 0.000486
497 0.000487
498 0.000480
499 0.000468
500 0.000463
501 0.000457
502 0.000458
503 0.000457
504 0.000454
505 0.000452
506 0.000451
507 0.000450
508 0.000451
509 0.000454
510 0.000450
511 0.000452
512 0.000447
513 0.000445
514 0.000444
515 0.000431
516 0.000424
517 0.000413
518 0.000405
519 0.000398
520 0.000398
521 0.000403
522 0.000412
523 0.000415
524 0.000425
525 0.000426
526 0.000423
527 0.000423
528 0.000426
529 0.000424
530 0.000433
531 0.000450
532 0.000465
533 0.000482
534 0.000498
535 0.000506
536 0.000514
537 0.000521
538 0.000526
539 0.000528
540 0.000529
541 0.000527
542 0.000531
543 0.000528
544 0.000527
545 0.000521
546 0.000510
547 0.000497
548 0.000494
549 0.000490
550 0.000481
551 0.000476
552 0.000475
553 0.000465
554 0.000461
555 0.000454
556 0.000453
557 0.000445
558 0.000433
559 0.000433
560 0.000430
561 0.000431
562 0.000435
563 0.000434
564 0.000437
565 0.000442
566 0.000443
567 0.000450
568 0.000457
569 0.000462
570 0.000468
571 0.000477
572 0.000477
573 0.000473
574 0.000472
575 0.000472
576 0.000467
577 0.000470
578 0.000479
579 0.000499
580 0.000512
581 0.000518
582 0.000526
583 0.000532
584 0.000534
585 0.000540
586 0.000546
587 0.000538
588 0.000528
589 0.000523
590 0.000523
591 0.000528
592 0.000528
593 0.000523
594 0.000519
595 0.000517
596 0.000510
597 0.000500
598 0.000488
599 0.000473
600 0.000463
601 0.000454
602 0.000449
603 0.000443
604 0.000435
605 0.000440
606 0.000445
607 0.000439
608 0.000427
609 0.000407
610 0.000386
611 0.000357
612 0.000334
613 0.000319
614 0.000300
615 0.000300
616 0.000302
617 0.000307
618 0.000319
619 0.000329
620 0.000342
621 0.000351
622 0.000363
623 0.000368
624 0.000367
625 0.000375
626 0.000377
627 0.000389
628 0.000399
629 0.000407
630 0.000405
631 0.000392
632 0.000383
633 0.000383
634 0.000390
635 0.000392
636 0.000396
637 0.000399
638 0.000395
639 0.000400
640 0.000397
641 0.000395
642 0.000396
643 0.000394
644 0.000390
645 0.000398
646 0.000404
647 0.000415
648 0.000419
649 0.000426
650 0.000432
651 0.000438
652 0.000440
653 0.000443
654 0.000440
655 0.000444
656 0.000451
657 0.000459
658 0.000467
659 0.000473
660 0.000480
661 0.000488
662 0.000500
663 0.000514
664 0.000522
665 0.000530
666 0.000537
667 0.000536
668 0.000532
669 0.000524
670 0.000526
671 0.000523
672 0.000525
673 0.000528
674 0.000531
675 0.000529
676 0.000526
677 0.000524
678 0.000511
679 0.000503
680 0.000496
681 0.000484
682 0.000481
683 0.000472
684 0.000469
685 0.000469
686 0.000463
687 0.000448
688 0.000437
689 0.000431
690 0.000426
691 0.000424
692 0.000419
693 0.000404
694 0.000395
695 0.000380
696 0.000364
697 0.000359
698 0.000352
699 0.000338
700 0.000337
701 0.000335
702 0.000335
703 0.000332
704 0.000327
705 0.000324
706 0.000313
707 0.000307
708 0.000302
709 0.000298
710 0.000291
711 0.000290
712 0.000290
713 0.000294
714 0.000292
715 0.000291
716 0.000288
717 0.000292
718 0.000292
719 0.000299
720 0.000304
721 0.000310
722 0.000315
723 0.000314
724 0.000311
725 0.000306
726 0.000293
727 0.000281
728 0.000278
729 0.000278
730 0.000281
731 0.000286
732 0.000291
733 0.000287
734 0.000280
735 0.000275
736 0.000273
737 0.000268
738 0.000272
739 0.000269
740 0.000270
741 0.000267
742 0.000262
743 0.000254
744 0.000245
745 0.000240
746 0.000234
747 0.000227
748 0.000226
749 0.000219
750 0.000214
751 0.000213
752 0.000216
753 0.000213
754 0.000212
755 0.000216
756 0.000229
757 0.000241
758 0.000259
759 0.000275
760 0.000291
761 0.000299
762 0.000301
763 0.000303
764 0.000304
765 0.000305
766 0.000305
767 0.000302
768 0.000297
769 0.000291
770 0.000286
771 0.000281
772 0.000276
773 0.000268
774 0.000264
775 0.000262
776 0.000254
777 0.000247
778 0.000245
779 0.000244
780 0.000234
781 0.000225
782 0.000217
783 0.000211
784 0.000207
785 0.000207
786 0.000209
787 0.000206
788 0.000204
789 0.000201
790 0.000196
791 0.000190
792 0.000186
793 0.000190
794 0.000186
795 0.000191
796 0.000195
797 0.000197
798 0.000191
799 0.000186
800 0.000175
801 0.000169
802 0.000163
803 0.000159
804 0.000160
805 0.000157
806 0.000157
807 0.000153
808 0.000147
809 0.000137
