# i correlation
1 0.001878
2 0.001776
3 0.001700
4 0.001637
5 0.001581
6 0.001519
7 0.001477
8 0.001454
9 0.001437
10 0.001421
11 0.001405
12 0.001380
13 0.001344
14 0.001310
15 0.001280
16 0.001250
17 0.001230
18 0.001219
19 0.001198
20 0.001178
21 0.001162
22 0.001149
23 0.001118
24 0.001101
25 0.001087
26 0.001087
27 0.001089
28 0.001092
29 0.001103
30 0.001112
31 0.001111
32 0.001105
33 0.001095
34 0.001069
35 0.001039
36 0.001022
37 0.001010
38 0.001002
39 0.000987
40 0.000974
41 0.000960
42 0.000967
43 0.000974
44 0.000986
45 0.001003
46 0.001008
47 0.001017
48 0.001030
49 0.001022
50 0.001001
51 0.000980
52 0.000959
53 0.000944
54 0.000936
55 0.000930
56 0.000928
57 0.000922
58 0.000911
59 0.000904
60 0.000901
61 0.000892
62 0.000874
63 0.000856
64 0.000852
65 0.000842
66 0.000840
67 0.000826
68 0.000830
69 0.000833
70 0.000817
71 0.000801
72 0.000789
73 0.000786
74 0.000784
75 0.000789
76 0.000800
77 0.000819
78 0.000839
79 0.000858
80 0.000867
81 0.000872
82 0.000894
83 0.000902
84 0.000906
85 0.000910
86 0.000932
87 0.000948
88 0.000942
89 0.000931
90 0.000938
91 0.000940
92 0.000935
93 0.000927
94 0.000915
95 0.000909
96 0.000895
97 0.000885
98 0.000887
99 0.000879
100 0.000867
101 0.000873
102 0.000872
103 0.000858
104 0.000846
105 0.000844
106 0.000845
107 0.000839
108 0.000830
109 0.000817
110 0.000808
111 0.000794
112 0.000794
113 0.000785
114 0.000771
115 0.000760
116 0.000755
117 0.000741
118 0.000718
119 0.000696
120 0.000696
121 0.000689
122 0.000669
123 0.000663
124 0.000674
125 0.000675
126 0.000653
127 0.000646
128 0.000646
129 0.000645
130 0.000662
131 0.000665
132 0.000678
133 0.000691
134 0.000710
135 0.000732
136 0.000737
137 0.000746
138 0.000750
139 0.000754
140 0.000748
141 0.000750
142 0.000753
143 0.000762
144 0.000763
145 0.000764
146 0.000772
147 0.000767
148 0.000756
149 0.000742
150 0.000746
151 0.000743
152 0.000741
153 0.000748
154 0.000754
155 0.000767
156 0.000770
157 0.000754
158 0.000744
159 0.000738
160 0.000727
161 0.000719
162 0.000710
163 0.000704
164 0.000710
165 0.000711
166 0.000710
167 0.000696
168 0.000688
169 0.000685
170 0.000687
171 0.000677
172 0.000670
173 0.000668
174 0.000663
175 0.000661
176 0.000654
177 0.000652
178 0.000644
179 0.000633
180 0.000631
181 0.000630
182 0.000626
183 0.000620
184 0.000618
185 0.000628
186 0.000640
187 0.000631
188 0.000622
189 0.000618
190 0.000607
191 0.000603
192 0.000606
193 0.000611
194 0.000615
195 0.000612
196 0.000607
197 0.000609
198 0.000616
199 0.000614
200 0.000598
201 0.000579
202 0.000572
203 0.000573
204 0.000558
205 0.000534
206 0.000523
207 0.000534
208 0.000541
209 0.000526
210 0.000524
211 0.000526
212 0.000519
213 0.000503
214 0.000498
215 0.000501
216 0.000494
217 0.000480
218 0.000475
219 0.000481
220 0.000481
221 0.000480
222 0.000487
223 0.000485
224 0.000478
225 0.000481
226 0.000477
227 0.000464
228 0.000456
229 0.000465
230 0.000467
231 0.000457
232 0.000459
233 0.000455
234 0.000453
235 0.000447
236 0.000448
237 0.000451
238 0.000441
239 0.000436
240 0.000437
241 0.000436
242 0.000444
243 0.000458
244 0.000458
245 0.000460
246 0.000457
247 0.000458
248 0.000459
249 0.000449
250 0.000430
251 0.000417
252 0.000407
253 0.000402
254 0.000397
255 0.000401
256 0.000403
257 0.000410
258 0.000410
259 0.000414
260 0.000411
261 0.000410
262 0.000406
263 0.000409
264 0.000408
265 0.000404
266 0.000396
267 0.000403
268 0.000411
269 0.000401
270 0.000382
271 0.000373
272 0.000367
273 0.000365
274 0.000363
275 0.000373
276 0.000391
277 0.000396
278 0.000400
279 0.000391
280 0.000391
281 0.000382
282 0.000358
283 0.000340
284 0.000327
285 0.000327
286 0.000329
287 0.000343
288 0.000353
289 0.000368
290 0.000383
291 0.000390
292 0.000385
293 0.000387
294 0.000396
295 0.000400
296 0.000404
297 0.000409
298 0.000415
299 0.000416
300 0.000415
301 0.000415
302 0.000417
303 0.000409
304 0.000396
305 0.000396
306 0.000402
307 0.000419
308 0.000436
309 0.000458
310 0.000473
311 0.000485
312 0.000491
313 0.000502
314 0.000500
315 0.000497
316 0.000506
317 0.000515
318 0.000519
319 0.000527
320 0.000532
321 0.000540
322 0.000551
323 0.000566
324 0.000568
325 0.000566
326 0.000559
327 0.000562
328 0.000556
329 0.000541
330 0.000519
331 0.000509
332 0.000508
333 0.000505
334 0.000495
335 0.000506
336 0.000507
337 0.000499
338 0.000492
339 0.000490
340 0.000480
341 0.000474
342 0.000466
343 0.000468
344 0.000476
345 0.000489
346 0.000502
347 0.000513
348 0.000509
349 0.000507
350 0.000508
351 0.000496
352 0.000483
353 0.000484
354 0.000484
355 0.000486
356 0.000487
357 0.000498
358 0.000506
359 0.000503
360 0.000493
361 0.000483
362 0.000473
363 0.000463
364 0.000459
365 0.000452
366 0.000447
367 0.000456
368 0.000454
369 0.000451
370 0.000439
371 0.000434
372 0.000433
373 0.000434
374 0.000435
375 0.000440
376 0.000451
377 0.000462
378 0.000472
379 0.000482
380 0.000492
381 0.000495
382 0.000490
383 0.000483
384 0.000476
385 0.000468
386 0.000453
387 0.000443
388 0.000450
389 0.000455
390 0.000446
391 0.000446
392 0.000448
393 0.000456
394 0.000449
395 0.000447
396 0.000449
397 0.000449
398 0.000449
399 0.000440
400 0.000432
401 0.000437
402 0.000436
403 0.000441
404 0.000448
405 0.000463
406 0.000468
407 0.000472
408 0.000470
409 0.000470
410 0.000465
411 0.000462
412 0.000458
413 0.000451
414 0.000449
415 0.000454
416 0.000447
417 0.000439
418 0.000430
419 0.000428
420 0.000416
421 0.000416
422 0.000420
423 0.000436
424 0.000442
425 0.000448
426 0.000454
427 0.000455
428 0.000450
429 0.000442
430 0.000429
431 0.000423
432 0.000416
433 0.000418
434 0.000423
435 0.000421
436 0.000432
437 0.000444
438 0.000440
439 0.000428
440 0.000417
441 0.000409
442 0.000395
443 0.000383
444 0.000376
445 0.000371
446 0.000362
447 0.000351
448 0.000336
449 0.000323
450 0.000314
451 0.000317
452 0.000323
453 0.000336
454 0.000349
455 0.000361
456 0.000373
457 0.000383
458 0.000391
459 0.000399
460 0.000407
461 0.000409
462 0.000412
463 0.000423
464 0.000430
465 0.000442
466 0.000458
467 0.000474
468 0.000485
469 0.000501
470 0.000514
471 0.000532
472 0.000535
473 0.000534
474 0.000535
475 0.000533
476 0.000522
477 0.000500
478 0.000483
479 0.000469
480 0.000456
481 0.000446
482 0.000446
483 0.000454
484 0.000462
485 0.000464
486 0.000460
487 0.000458
488 0.000452
489 0.000447
490 0.000442
491 0.000445
492 0.000443
493 0.000444
494 0.000442
495 0.000435
496 0.000425
497 0.000419
498 0.000416
499 0.000414
500 0.000413
501 0.000414
502 0.000421
503 0.000423
504 0.000431
505 0.000437
506 0.000437
507 0.000435
508 0.000428
509 0.000424
510 0.000428
511 0.000430
512 0.000437
513 0.000449
514 0.000460
515 0.000465
516 0.000470
517 0.000479
518 0.000487
519 0.000505
520 0.000515
521 0.000514
522 0.000513
523 0.000511
524 0.000504
525 0.000493
526 0.000476
527 0.000449
528 0.000428
529 0.000411
530 0.000395
531 0.000389
532 0.000384
533 0.000381
534 0.000372
535 0.000368
536 0.000352
537 0.000346
538 0.000339
539 0.000334
540 0.000321
541 0.000304
542 0.000292
543 0.000287
544 0.000288
545 0.000282
546 0.000283
547 0.000288
548 0.000284
549 0.000284
550 0.000281
551 0.000282
552 0.000281
553 0.000281
554 0.000279
555 0.000277
556 0.000277
557 0.000276
558 0.000281
559 0.000282
560 0.000278
561 0.000284
562 0.000293
563 0.000290
564 0.000286
565 0.000286
566 0.000295
567 0.000304
568 0.000310
569 0.000312
570 0.000315
571 0.000325
572 0.000324
573 0.000317
574 0.000310
575 0.000316
576 0.000320
577 0.000321
578 0.000320
579 0.000317
580 0.000315
581 0.000311
582 0.000306
583 0.000299
584 0.000293
585 0.000281
586 0.000279
587 0.000276
588 0.000275
589 0.000270
590 0.000263
591 0.000261
592 0.000260
593 0.000252
594 0.000244
595 0.000235
596 0.000235
597 0.000238
598 0.000239
599 0.000249
600 0.000259
601 0.000267
602 0.000265
603 0.000273
604 0.000284
605 0.000288
606 0.000292
607 0.000293
608 0.000301
609 0.000305
610 0.000309
611 0.000314
612 0.000314
613 0.000315
614 0.000313
615 0.000315
616 0.000315
617 0.000313
618 0.000310
619 0.000306
620 0.000306
621 0.000310
622 0.000309
623 0.000305
624 0.000309
625 0.000308
626 0.000304
627 0.000298
628 0.000288
629 0.000280
630 0.000274
631 0.000269
632 0.000261
633 0.000257
634 0.000251
635 0.000249
636 0.000245
637 0.000241
638 0.000231
639 0.000219
640 0.000209
641 0.000201
642 0.000191
643 0.000176
644 0.000173
645 0.000177
646 0.000182
647 0.000180
648 0.000181
649 0.000186
650 0.000183
651 0.000178
652 0.000181
653 0.000181
654 0.000189
655 0.000197
656 0.000205
657 0.000214
658 0.000227
659 0.000234
660 0.000246
661 0.000250
662 0.000249
663 0.000249
664 0.000248
665 0.000245
666 0.000248
667 0.000254
668 0.000258
669 0.000273
670 0.000275
671 0.000276
672 0.000275
673 0.000279
674 0.000288
675 0.000279
676 0.000275
677 0.000265
678 0.000260
679 0.000259
680 0.000253
681 0.000252
682 0.000253
683 0.000253
684 0.000256
685 0.000260
686 0.000257
687 0.000246
688 0.000234
689 0.000224
690 0.000228
691 0.000234
692 0.000239
693 0.000243
694 0.000242
695 0.000240
696 0.000241
697 0.000241
698 0.000235
699 0.000231
700 0.000232
701 0.000235
702 0.000242
703 0.000247
704 0.000252
705 0.000263
706 0.000271
707 0.000268
708 0.000259
709 0.000248
710 0.000236
711 0.000229
712 0.000228
713 0.000217
714 0.000217
715 0.000221
716 0.000228
717 0.000232
718 0.000231
719 0.000221
720 0.000207
721 0.000204
722 0.000195
723 0.000185
724 0.000174
725 0.000154
726 0.000143
727 0.000134
728 0.000126
729 0.000119
730 0.000109
731 0.000104
732 0.000105
733 0.000108
734 0.000109
735 0.000101
736 0.000097
737 0.000088
738 0.000082
739 0.000074
740 0.000066
741 0.000058
742 0.000057
743 0.000051
744 0.000049
745 0.000050
746 0.000043
747 0.000040
748 0.000037
749 0.000030
750 0.000025
751 0.000021
752 0.000019
753 0.000018
754 0.000022
755 0.000019
756 0.000015
757 0.000009
758 -0.000001
759 -0.000008
760 -0.000012
761 -0.000011
762 -0.000008
763 -0.000006
764 -0.000006
765 -0.000003
766 0.000003
767 0.000005
768 0.000004
769 0.000007
770 0.000006
771 0.000004
772 0.000004
773 -0.000002
774 -0.000002
775 -0.000005
776 -0.000003
777 -0.000007
778 -0.000006
779 -0.000005
780 0.000001
781 0.000011
782 0.000014
783 0.000016
784 0.000021
785 0.000026
786 0.000031
787 0.000039
788 0.000042
789 0.000044
790 0.000050
791 0.000059
792 0.000067
793 0.000070
794 0.000072
795 0.000070
796 0.000069
797 0.000069
798 0.000074
799 0.000077
800 0.000082
801 0.000084
802 0.000090
803 0.000092
804 0.000094
805 0.000089
806 0.000084
807 0.000083
808 0.000084
809 0.000081
