# i correlation
1 0.002150
2 0.002021
3 0.001912
4 0.001808
5 0.001718
6 0.001634
7 0.001544
8 0.001471
9 0.001424
10 0.001383
11 0.001360
12 0.001338
13 0.001311
14 0.001293
15 0.001285
16 0.001282
17 0.001268
18 0.001238
19 0.001223
20 0.001211
21 0.001209
22 0.001202
23 0.001192
24 0.001177
25 0.001158
26 0.001151
27 0.001133
28 0.001125
29 0.001119
30 0.001108
31 0.001091
32 0.001080
33 0.001067
34 0.001047
35 0.001037
36 0.001029
37 0.001019
38 0.001020
39 0.001017
40 0.001006
41 0.000990
42 0.000962
43 0.000948
44 0.000931
45 0.000917
46 0.000899
47 0.000894
48 0.000885
49 0.000872
50 0.000874
51 0.000881
52 0.000904
53 0.000926
54 0.000938
55 0.000954
56 0.000970
57 0.000978
58 0.000984
59 0.000997
60 0.001003
61 0.001006
62 0.001017
63 0.001027
64 0.001028
65 0.001028
66 0.001021
67 0.001028
68 0.001031
69 0.001047
70 0.001062
71 0.001069
72 0.001072
73 0.001074
74 0.001080
75 0.001087
76 0.001099
77 0.001103
78 0.001087
79 0.001082
80 0.001083
81 0.001088
82 0.001089
83 0.001089
84 0.001072
85 0.001049
86 0.001043
87 0.001029
88 0.000992
89 0.000960
90 0.000932
91 0.000920
92 0.000916
93 0.000910
94 0.000899
95 0.000896
96 0.000896
97 0.000908
98 0.000908
99 0.000886
100 0.000873
101 0.000843
102 0.000830
103 0.000822
104 0.000810
105 0.000799
106 0.000792
107 0.000779
108 0.000780
109 0.000777
110 0.000767
111 0.000752
112 0.000741
113 0.000732
114 0.000733
115 0.000737
116 0.000740
117 0.000753
118 0.000766
119 0.000776
120 0.000785
121 0.000786
122 0.000801
123 0.000814
124 0.000820
125 0.000816
126 0.000812
127 0.000814
128 0.000818
129 0.000828
130 0.000841
131 0.000849
132 0.000862
133 0.000879
134 0.000905
135 0.000917
136 0.000935
137 0.000948
138 0.000972
139 0.000984
140 0.000982
141 0.000977
142 0.000973
143 0.000970
144 0.000967
145 0.000990
146 0.001016
147 0.001032
148 0.001051
149 0.001072
150 0.001081
151 0.001084
152 0.001087
153 0.001082
154 0.001084
155 0.001083
156 0.001073
157 0.001065
158 0.001064
159 0.001057
160 0.001057
161 0.001064
162 0.001072
163 0.001068
164 0.001066
165 0.001060
166 0.001052
167 0.001050
168 0.001034
169 0.001018
170 0.001003
171 0.000993
172 0.000964
173 0.000947
174 0.000932
175 0.000912
176 0.000879
177 0.000860
178 0.000844
179 0.000832
180 0.000813
181 0.000796
182 0.000776
183 0.000737
184 0.000705
185 0.000692
186 0.000688
187 0.000689
188 0.000692
189 0.000695
190 0.000707
191 0.000716
192 0.000723
193 0.000718
194 0.000710
195 0.000697
196 0.000675
197 0.000655
198 0.000631
199 0.000618
200 0.000616
201 0.000632
202 0.000647
203 0.000658
204 0.000674
205 0.000697
206 0.000717
207 0.000729
208 0.000729
209 0.000726
210 0.000731
211 0.000727
212 0.000712
213 0.000698
214 0.000691
215 0.000688
216 0.000681
217 0.000684
218 0.000691
219 0.000707
220 0.000734
221 0.000759
222 0.000779
223 0.000784
224 0.000777
225 0.000777
226 0.000783
227 0.000784
228 0.000770
229 0.000749
230 0.000736
231 0.000728
232 0.000724
233 0.000724
234 0.000722
235 0.000714
236 0.000709
237 0.000702
238 0.000692
239 0.000679
240 0.000660
241 0.000653
242 0.000661
243 0.000665
244 0.000669
245 0.000665
246 0.000666
247 0.000666
248 0.000663
249 0.000649
250 0.000633
251 0.000619
252 0.000611
253 0.000601
254 0.000595
255 0.000585
256 0.000575
257 0.000564
258 0.000570
259 0.000569
260 0.000571
261 0.000564
262 0.000561
263 0.000546
264 0.000523
265 0.000500
266 0.000474
267 0.000451
268 0.000425
269 0.000410
270 0.000398
271 0.000393
272 0.000395
273 0.000406
274 0.000409
275 0.000423
276 0.000433
277 0.000440
278 0.000449
279 0.000473
280 0.000490
281 0.000503
282 0.000522
283 0.000546
284 0.000576
285 0.000600
286 0.000614
287 0.000638
288 0.000660
289 0.000675
290 0.000695
291 0.000702
292 0.000709
293 0.000708
294 0.000708
295 0.000711
296 0.000723
297 0.000730
298 0.000743
299 0.000753
300 0.000763
301 0.000778
302 0.000784
303 0.000784
304 0.000779
305 0.000763
306 0.000742
307 0.000736
308 0.000725
309 0.000719
310 0.000710
311 0.000689
312 0.000683
313 0.000682
314 0.000675
315 0.000672
316 0.000671
317 0.000665
318 0.000659
319 0.000660
320 0.000668
321 0.000661
322 0.000654
323 0.000652
324 0.000644
325 0.000645
326 0.000634
327 0.000620
328 0.000614
329 0.000613
330 0.000611
331 0.000615
332 0.000610
333 0.000607
334 0.000600
335 0.000596
336 0.000584
337 0.000578
338 0.000572
339 0.000572
340 0.000571
341 0.000562
342 0.000553
343 0.000539
344 0.000531
345 0.000518
346 0.000506
347 0.000480
348 0.000465
349 0.000453
350 0.000435
351 0.000414
352 0.000408
353 0.000411
354 0.000420
355 0.000431
356 0.000447
357 0.000457
358 0.000459
359 0.000468
360 0.000484
361 0.000492
362 0.000491
363 0.000487
364 0.000480
365 0.000475
366 0.000485
367 0.000492
368 0.000500
369 0.000511
370 0.000520
371 0.000533
372 0.000549
373 0.000558
374 0.000553
375 0.000551
376 0.000546
377 0.000540
378 0.000535
379 0.000529
380 0.000523
381 0.000523
382 0.000536
383 0.000542
384 0.000545
385 0.000549
386 0.000539
387 0.000536
388 0.000527
389 0.000515
390 0.000500
391 0.000480
392 0.000470
393 0.000471
394 0.000477
395 0.000478
396 0.000487
397 0.000490
398 0.000497
399 0.000499
400 0.000491
401 0.000482
402 0.000473
403 0.000447
404 0.000427
405 0.000407
406 0.000384
407 0.000379
408 0.000373
409 0.000370
410 0.000373
411 0.000379
412 0.000387
413 0.000395
414 0.000396
415 0.000397
416 0.000396
417 0.000390
418 0.000388
419 0.000379
420 0.000368
421 0.000357
422 0.000340
423 0.000328
424 0.000314
425 0.000302
426 0.000293
427 0.000294
428 0.000305
429 0.000317
430 0.000326
431 0.000345
432 0.000363
433 0.000378
434 0.000386
435 0.000392
436 0.000396
437 0.000417
438 0.000424
439 0.000434
440 0.000450
441 0.000462
442 0.000473
443 0.000493
444 0.000505
445 0.000510
446 0.000519
447 0.000526
448 0.000525
449 0.000529
450 0.000536
451 0.000543
452 0.000558
453 0.000581
454 0.000605
455 0.000619
456 0.000623
457 0.000628
458 0.000629
459 0.000628
460 0.000612
461 0.000603
462 0.000595
463 0.000591
464 0.000589
465 0.000594
466 0.000597
467 0.000593
468 0.000588
469 0.000591
470 0.000593
471 0.000596
472 0.000585
473 0.000570
474 0.000566
475 0.000565
476 0.000560
477 0.000552
478 0.000548
479 0.000540
480 0.000542
481 0.000552
482 0.000554
483 0.000548
484 0.000544
485 0.000537
486 0.000533
487 0.000529
488 0.000518
489 0.000508
490 0.000506
491 0.000506
492 0.000503
493 0.000497
494 0.000501
495 0.000513
496 0.000512
497 0.000507
498 0.000502
499 0.000492
500 0.000489
501 0.000481
502 0.000480
503 0.000470
504 0.000472
505 0.000473
506 0.000474
507 0.000482
508 0.000475
509 0.000469
510 0.000473
511 0.000475
512 0.000473
513 0.000476
514 0.000480
515 0.000484
516 0.000489
517 0.000498
518 0.000505
519 0.000500
520 0.000499
521 0.000501
522 0.000501
523 0.000502
524 0.000507
525 0.000494
526 0.000488
527 0.000483
528 0.000483
529 0.000490
530 0.000498
531 0.000507
532 0.000504
533 0.000506
534 0.000518
535 0.000525
536 0.000526
537 0.000528
538 0.000522
539 0.000511
540 0.000518
541 0.000520
542 0.000523
543 0.000531
544 0.000528
545 0.000525
546 0.000521
547 0.000514
548 0.000505
549 0.000493
550 0.000488
551 0.000483
552 0.000473
553 0.000454
554 0.000437
555 0.000420
556 0.000397
557 0.000382
558 0.000368
559 0.000362
560 0.000362
561 0.000377
562 0.000393
563 0.000415
564 0.000430
565 0.000430
566 0.000427
567 0.000435
568 0.000438
569 0.000441
570 0.000438
571 0.000435
572 0.000425
573 0.000423
574 0.000422
575 0.000415
576 0.000409
577 0.000398
578 0.000389
579 0.000388
580 0.000386
581 0.000380
582 0.000373
583 0.000370
584 0.000364
585 0.000365
586 0.000362
587 0.000363
588 0.000363
589 0.000366
590 0.000368
591 0.000377
592 0.000389
593 0.000404
594 0.000416
595 0.000420
596 0.000420
597 0.000419
598 0.000423
599 0.000430
600 0.000440
601 0.000447
602 0.000454
603 0.000453
604 0.000461
605 0.000464
606 0.000461
607 0.000453
608 0.000452
609 0.000440
610 0.000431
611 0.000420
612 0.000406
613 0.000401
614 0.000400
615 0.000397
616 0.000399
617 0.000411
618 0.000427
619 0.000440
620 0.000461
621 0.000477
622 0.000487
623 0.000500
624 0.000513
625 0.000518
626 0.000524
627 0.000524
628 0.000515
629 0.000514
630 0.000508
631 0.000497
632 0.000491
633 0.000489
634 0.000494
635 0.000490
636 0.000485
637 0.000484
638 0.000490
639 0.000496
640 0.000507
641 0.000514
642 0.000515
643 0.000515
644 0.000515
645 0.000511
646 0.000513
647 0.000518
648 0.000518
649 0.000516
650 0.000510
651 0.000498
652 0.000491
653 0.000480
654 0.000468
655 0.000458
656 0.000461
657 0.000463
658 0.000462
659 0.000455
660 0.000445
661 0.000443
662 0.000441
663 0.000444
664 0.000447
665 0.000449
666 0.000449
667 0.000443
668 0.000437
669 0.000435
670 0.000432
671 0.000428
672 0.000423
673 0.000418
674 0.000415
675 0.000414
676 0.000409
677 0.000409
678 0.000411
679 0.000414
680 0.000417
681 0.000414
682 0.000407
683 0.000403
684 0.000390
685 0.000389
686 0.000387
687 0.000384
688 0.000376
689 0.000368
690 0.000354
691 0.000351
692 0.000350
693 0.000342
694 0.000333
695 0.000329
696 0.000325
697 0.000326
698 0.000318
699 0.000315
700 0.000317
701 0.000324
702 0.000329
703 0.000332
704 0.000328
705 0.000321
706 0.000307
707 0.000291
708 0.000282
709 0.000280
710 0.000273
711 0.000260
712 0.000249
713 0.000240
714 0.000228
715 0.000220
716 0.000218
717 0.000221
718 0.000227
719 0.000232
720 0.000228
721 0.000225
722 0.000218
723 0.000213
724 0.000210
725 0.000212
726 0.000211
727 0.000208
728 0.000208
729 0.000206
730 0.000208
731 0.000213
732 0.000215
733 0.000222
734 0.000230
735 0.000235
736 0.000230
737 0.000230
738 0.000236
739 0.000245
740 0.000252
741 0.000258
742 0.000267
743 0.000270
744 0.000282
745 0.000285
746 0.000282
747 0.000279
748 0.000277
749 0.000280
750 0.000284
751 0.000284
752 0.000280
753 0.000278
754 0.000284
755 0.000293
756 0.000305
757 0.000312
758 0.000311
759 0.000305
760 0.000301
761 0.000301
762 0.000300
763 0.000298
764 0.000290
765 0.000284
766 0.000280
767 0.000278
768 0.000277
769 0.000270
770 0.000265
771 0.000262
772 0.000267
773 0.000266
774 0.000261
775 0.000256
776 0.000255
777 0.000265
778 0.000276
779 0.000285
780 0.000290
781 0.000291
782 0.000291
783 0.000292
784 0.000299
785 0.000301
786 0.000304
787 0.000306
788 0.000304
789 0.000309
790 0.000307
791 0.000301
792 0.000291
793 0.000286
794 0.000286
795 0.000289
796 0.000291
797 0.000291
798 0.000288
799 0.000281
800 0.000279
801 0.000277
802 0.000274
803 0.000272
804 0.000267
805 0.000266
806 0.000269
807 0.000272
808 0.000268
809 0.000268
