# i correlation
1 0.002380
2 0.002263
3 0.002168
4 0.002088
5 0.002018
6 0.001942
7 0.001868
8 0.001808
9 0.001757
10 0.001724
11 0.001685
12 0.001659
13 0.001636
14 0.001621
15 0.001599
16 0.001574
17 0.001546
18 0.001519
19 0.001495
20 0.001482
21 0.001476
22 0.001467
23 0.001464
24 0.001462
25 0.001448
26 0.001429
27 0.001410
28 0.001401
29 0.001402
30 0.001404
31 0.001407
32 0.001401
33 0.001398
34 0.001402
35 0.001402
36 0.001393
37 0.001365
38 0.001342
39 0.001320
40 0.001303
41 0.001285
42 0.001270
43 0.001256
44 0.001257
45 0.001254
46 0.001261
47 0.001252
48 0.001236
49 0.001228
50 0.001215
51 0.001205
52 0.001185
53 0.001173
54 0.001165
55 0.001162
56 0.001151
57 0.001147
58 0.001141
59 0.001154
60 0.001160
61 0.001160
62 0.001143
63 0.001135
64 0.001115
65 0.001087
66 0.001069
67 0.001055
68 0.001044
69 0.001034
70 0.001024
71 0.001003
72 0.000996
73 0.001002
74 0.001013
75 0.001021
76 0.001020
77 0.001016
78 0.001006
79 0.001002
80 0.001003
81 0.000989
82 0.000982
83 0.000959
84 0.000945
85 0.000924
86 0.000913
87 0.000896
88 0.000880
89 0.000877
90 0.000885
91 0.000898
92 0.000909
93 0.000906
94 0.000912
95 0.000925
96 0.000943
97 0.000948
98 0.000947
99 0.000949
100 0.000969
101 0.000993
102 0.001011
103 0.001022
104 0.001023
105 0.001029
106 0.001037
107 0.001045
108 0.001050
109 0.001057
110 0.001065
111 0.001071
112 0.001073
113 0.001066
114 0.001058
115 0.001048
116 0.001034
117 0.001018
118 0.001008
119 0.001015
120 0.001023
121 0.001023
122 0.001015
123 0.001008
124 0.001014
125 0.001015
126 0.001034
127 0.001039
128 0.001029
129 0.001016
130 0.001008
131 0.001002
132 0.000993
133 0.000967
134 0.000954
135 0.000944
136 0.000959
137 0.000977
138 0.000977
139 0.000969
140 0.000964
141 0.000959
142 0.000956
143 0.000959
144 0.000957
145 0.000949
146 0.000935
147 0.000917
148 0.000898
149 0.000880
150 0.000868
151 0.000859
152 0.000846
153 0.000823
154 0.000817
155 0.000825
156 0.000849
157 0.000855
158 0.000847
159 0.000837
160 0.000844
161 0.000857
162 0.000866
163 0.000866
164 0.000869
165 0.000865
166 0.000868
167 0.000861
168 0.000846
169 0.000822
170 0.000822
171 0.000818
172 0.000821
173 0.000819
174 0.000807
175 0.000806
176 0.000810
177 0.000793
178 0.000786
179 0.000779
180 0.000781
181 0.000785
182 0.000784
183 0.000795
184 0.000791
185 0.000789
186 0.000783
187 0.000789
188 0.000787
189 0.000772
190 0.000764
191 0.000761
192 0.000748
193 0.000734
194 0.000732
195 0.000738
196 0.000749
197 0.000762
198 0.000768
199 0.000767
200 0.000772
201 0.000770
202 0.000761
203 0.000763
204 0.000757
205 0.000749
206 0.000754
207 0.000759
208 0.000747
209 0.000736
210 0.000738
211 0.000745
212 0.000745
213 0.000739
214 0.000734
215 0.000733
216 0.000733
217 0.000730
218 0.000731
219 0.000738
220 0.000743
221 0.000752
222 0.000753
223 0.000755
224 0.000757
225 0.000759
226 0.000762
227 0.000766
228 0.000767
229 0.000771
230 0.000777
231 0.000785
232 0.000794
233 0.000792
234 0.000784
235 0.000769
236 0.000754
237 0.000739
238 0.000725
239 0.000711
240 0.000707
241 0.000691
242 0.000674
243 0.000657
244 0.000655
245 0.000661
246 0.000674
247 0.000686
248 0.000686
249 0.000681
250 0.000669
251 0.000645
252 0.000633
253 0.000626
254 0.000614
255 0.000595
256 0.000592
257 0.000598
258 0.000609
259 0.000607
260 0.000596
261 0.000592
262 0.000593
263 0.000602
264 0.000602
265 0.000593
266 0.000597
267 0.000603
268 0.000607
269 0.000602
270 0.000605
271 0.000607
272 0.000605
273 0.000610
274 0.000617
275 0.000625
276 0.000640
277 0.000654
278 0.000666
279 0.000671
280 0.000672
281 0.000664
282 0.000660
283 0.000656
284 0.000636
285 0.000611
286 0.000586
287 0.000572
288 0.000560
289 0.000530
290 0.000502
291 0.000491
292 0.000495
293 0.000507
294 0.000519
295 0.000523
296 0.000526
297 0.000532
298 0.000531
299 0.000528
300 0.000533
301 0.000538
302 0.000538
303 0.000536
304 0.000530
305 0.000524
306 0.000512
307 0.000520
308 0.000524
309 0.000523
310 0.000516
311 0.000506
312 0.000509
313 0.000497
314 0.000477
315 0.000456
316 0.000441
317 0.000437
318 0.000433
319 0.000422
320 0.000410
321 0.000404
322 0.000405
323 0.000409
324 0.000417
325 0.000412
326 0.000413
327 0.000425
328 0.000442
329 0.000451
330 0.000450
331 0.000461
332 0.000473
333 0.000474
334 0.000476
335 0.000473
336 0.000469
337 0.000467
338 0.000462
339 0.000463
340 0.000465
341 0.000474
342 0.000488
343 0.000509
344 0.000519
345 0.000521
346 0.000527
347 0.000538
348 0.000545
349 0.000556
350 0.000552
351 0.000556
352 0.000554
353 0.000560
354 0.000568
355 0.000574
356 0.000582
357 0.000584
358 0.000588
359 0.000593
360 0.000596
361 0.000596
362 0.000594
363 0.000584
364 0.000571
365 0.000552
366 0.000534
367 0.000521
368 0.000515
369 0.000501
370 0.000492
371 0.000491
372 0.000482
373 0.000477
374 0.000465
375 0.000460
376 0.000459
377 0.000459
378 0.000459
379 0.000458
380 0.000450
381 0.000440
382 0.000437
383 0.000439
384 0.000440
385 0.000448
386 0.000451
387 0.000455
388 0.000445
389 0.000437
390 0.000436
391 0.000423
392 0.000408
393 0.000397
394 0.000404
395 0.000410
396 0.000414
397 0.000413
398 0.000418
399 0.000421
400 0.000420
401 0.000420
402 0.000434
403 0.000455
404 0.000478
405 0.000485
406 0.000489
407 0.000487
408 0.000495
409 0.000490
410 0.000486
411 0.000467
412 0.000446
413 0.000429
414 0.000415
415 0.000397
416 0.000384
417 0.000376
418 0.000364
419 0.000368
420 0.000372
421 0.000370
422 0.000367
423 0.000366
424 0.000365
425 0.000359
426 0.000342
427 0.000321
428 0.000312
429 0.000303
430 0.000293
431 0.000286
432 0.000289
433 0.000289
434 0.000290
435 0.000294
436 0.000290
437 0.000290
438 0.000289
439 0.000292
440 0.000291
441 0.000290
442 0.000286
443 0.000293
444 0.000304
445 0.000311
446 0.000313
447 0.000309
448 0.000305
449 0.000308
450 0.000297
451 0.000291
452 0.000278
453 0.000273
454 0.000286
455 0.000302
456 0.000315
457 0.000333
458 0.000347
459 0.000368
460 0.000385
461 0.000402
462 0.000406
463 0.000419
464 0.000433
465 0.000445
466 0.000442
467 0.000446
468 0.000454
469 0.000463
470 0.000467
471 0.000463
472 0.000446
473 0.000438
474 0.000425
475 0.000418
476 0.000417
477 0.000422
478 0.000429
479 0.000441
480 0.000458
481 0.000465
482 0.000467
483 0.000472
484 0.000464
485 0.000464
486 0.000459
487 0.000453
488 0.000445
489 0.000434
490 0.000428
491 0.000420
492 0.000421
493 0.000422
494 0.000430
495 0.000426
496 0.000420
497 0.000416
498 0.000420
499 0.000430
500 0.000430
501 0.000429
502 0.000415
503 0.000405
504 0.000407
505 0.000409
506 0.000410
507 0.000417
508 0.000427
509 0.000432
510 0.000431
511 0.000437
512 0.000438
513 0.000436
514 0.000439
515 0.000442
516 0.000439
517 0.000433
518 0.000421
519 0.000419
520 0.000408
521 0.000395
522 0.000388
523 0.000392
524 0.000400
525 0.000403
526 0.000397
527 0.000392
528 0.000387
529 0.000385
530 0.000378
531 0.000372
532 0.000372
533 0.000370
534 0.000365
535 0.000356
536 0.000347
537 0.000340
538 0.000341
539 0.000340
540 0.000345
541 0.000355
542 0.000360
543 0.000368
544 0.000372
545 0.000378
546 0.000391
547 0.000405
548 0.000398
549 0.000390
550 0.000390
551 0.000389
552 0.000386
553 0.000381
554 0.000373
555 0.000366
556 0.000362
557 0.000354
558 0.000352
559 0.000363
560 0.000378
561 0.000390
562 0.000401
563 0.000397
564 0.000396
565 0.000393
566 0.000385
567 0.000386
568 0.000391
569 0.000385
570 0.000384
571 0.000385
572 0.000379
573 0.000381
574 0.000396
575 0.000411
576 0.000421
577 0.000415
578 0.000414
579 0.000405
580 0.000403
581 0.000411
582 0.000418
583 0.000427
584 0.000431
585 0.000433
586 0.000434
587 0.000435
588 0.000440
589 0.000444
590 0.000443
591 0.000448
592 0.000449
593 0.000453
594 0.000448
595 0.000447
596 0.000444
597 0.000440
598 0.000434
599 0.000435
600 0.000438
601 0.000438
602 0.000432
603 0.000427
604 0.000422
605 0.000425
606 0.000431
607 0.000435
608 0.000432
609 0.000433
610 0.000433
611 0.000433
612 0.000421
613 0.000411
614 0.000394
615 0.000388
616 0.000383
617 0.000378
618 0.000365
619 0.000362
620 0.000365
621 0.000367
622 0.000362
623 0.000356
624 0.000359
625 0.000368
626 0.000362
627 0.000355
628 0.000348
629 0.000345
630 0.000341
631 0.000337
632 0.000331
633 0.000318
634 0.000307
635 0.000307
636 0.000303
637 0.000298
638 0.000292
639 0.000291
640 0.000280
641 0.000276
642 0.000275
643 0.000279
644 0.000283
645 0.000280
646 0.000276
647 0.000261
648 0.000250
649 0.000242
650 0.000233
651 0.000239
652 0.000244
653 0.000247
654 0.000247
655 0.000255
656 0.000267
657 0.000271
658 0.000265
659 0.000260
660 0.000256
661 0.000255
662 0.000256
663 0.000250
664 0.000247
665 0.000251
666 0.000254
667 0.000260
668 0.000258
669 0.000252
670 0.000248
671 0.000240
672 0.000237
673 0.000232
674 0.000226
675 0.000224
676 0.000217
677 0.000216
678 0.000217
679 0.000214
680 0.000217
681 0.000216
682 0.000216
683 0.000221
684 0.000224
685 0.000224
686 0.000225
687 0.000230
688 0.000238
689 0.000245
690 0.000252
691 0.000261
692 0.000263
693 0.000263
694 0.000263
695 0.000270
696 0.000276
697 0.000282
698 0.000286
699 0.000290
700 0.000293
701 0.000298
702 0.000312
703 0.000320
704 0.000334
705 0.000353
706 0.000367
707 0.000384
708 0.000400
709 0.000404
710 0.000403
711 0.000408
712 0.000416
713 0.000422
714 0.000430
715 0.000433
716 0.000431
717 0.000434
718 0.000439
719 0.000445
720 0.000449
721 0.000447
722 0.000444
723 0.000442
724 0.000434
725 0.000427
726 0.000423
727 0.000423
728 0.000420
729 0.000421
730 0.000421
731 0.000424
732 0.000429
733 0.000433
734 0.000441
735 0.000445
736 0.000446
737 0.000452
738 0.000454
739 0.000456
740 0.000454
741 0.000457
742 0.000454
743 0.000455
744 0.000460
745 0.000456
746 0.000451
747 0.000452
748 0.000453
749 0.000449
750 0.000444
751 0.000445
752 0.000441
753 0.000439
754 0.000438
755 0.000434
756 0.000430
757 0.000425
758 0.000424
759 0.000423
760 0.000410
761 0.000401
762 0.000394
763 0.000389
764 0.000384
765 0.000385
766 0.000384
767 0.000387
768 0.000386
769 0.000387
770 0.000384
771 0.000376
772 0.000372
773 0.000369
774 0.000366
775 0.000363
776 0.000359
777 0.000355
778 0.000349
779 0.000341
780 0.000330
781 0.000322
782 0.000314
783 0.000302
784 0.000287
785 0.000270
786 0.000258
787 0.000252
788 0.000247
789 0.000242
790 0.000234
791 0.000228
792 0.000226
793 0.000223
794 0.000223
795 0.000217
796 0.000206
797 0.000196
798 0.000188
799 0.000183
800 0.000183
801 0.000179
802 0.000177
803 0.000174
804 0.000170
805 0.000167
806 0.000162
807 0.000166
808 0.000175
809 0.000184
