# i correlation
1 0.001780
2 0.001666
3 0.001569
4 0.001479
5 0.001412
6 0.001370
7 0.001332
8 0.001306
9 0.001266
10 0.001230
11 0.001200
12 0.001174
13 0.001155
14 0.001119
15 0.001086
16 0.001058
17 0.001022
18 0.000995
19 0.000969
20 0.000951
21 0.000928
22 0.000916
23 0.000899
24 0.000883
25 0.000866
26 0.000834
27 0.000796
28 0.000766
29 0.000740
30 0.000715
31 0.000696
32 0.000698
33 0.000696
34 0.000680
35 0.000673
36 0.000670
37 0.000666
38 0.000669
39 0.000656
40 0.000657
41 0.000649
42 0.000638
43 0.000636
44 0.000641
45 0.000651
46 0.000670
47 0.000670
48 0.000677
49 0.000671
50 0.000661
51 0.000648
52 0.000637
53 0.000638
54 0.000630
55 0.000620
56 0.000617
57 0.000615
58 0.000603
59 0.000605
60 0.000612
61 0.000618
62 0.000624
63 0.000634
64 0.000631
65 0.000642
66 0.000655
67 0.000656
68 0.000665
69 0.000682
70 0.000690
71 0.000699
72 0.000707
73 0.000704
74 0.000688
75 0.000682
76 0.000666
77 0.000661
78 0.000661
79 0.000652
80 0.000652
81 0.000651
82 0.000636
83 0.000638
84 0.000645
85 0.000647
86 0.000651
87 0.000656
88 0.000665
89 0.000676
90 0.000691
91 0.000710
92 0.000724
93 0.000735
94 0.000741
95 0.000743
96 0.000747
97 0.000751
98 0.000756
99 0.000759
100 0.000755
101 0.000744
102 0.000732
103 0.000724
104 0.000712
105 0.000703
106 0.000685
107 0.000678
108 0.000664
109 0.000646
110 0.000638
111 0.000621
112 0.000614
113 0.000621
114 0.000619
115 0.000620
116 0.000627
117 0.000619
118 0.000605
119 0.000590
120 0.000579
121 0.000575
122 0.000565
123 0.000562
124 0.000562
125 0.000557
126 0.000570
127 0.000570
128 0.000574
129 0.000578
130 0.000563
131 0.000548
132 0.000553
133 0.000560
134 0.000573
135 0.000579
136 0.000583
137 0.000595
138 0.000606
139 0.000621
140 0.000637
141 0.000648
142 0.000646
143 0.000640
144 0.000637
145 0.000621
146 0.000614
147 0.000596
148 0.000584
149 0.000578
150 0.000574
151 0.000573
152 0.000585
153 0.000602
154 0.000605
155 0.000607
156 0.000603
157 0.000604
158 0.000610
159 0.000626
160 0.000635
161 0.000646
162 0.000644
163 0.000626
164 0.000611
165 0.000595
166 0.000602
167 0.000607
168 0.000609
169 0.000608
170 0.000596
171 0.000577
172 0.000560
173 0.000551
174 0.000551
175 0.000552
176 0.000551
177 0.000553
178 0.000547
179 0.000549
180 0.000544
181 0.000549
182 0.000563
183 0.000579
184 0.000583
185 0.000585
186 0.000597
187 0.000584
188 0.000570
189 0.000563
190 0.000562
191 0.000569
192 0.000575
193 0.000579
194 0.000590
195 0.000586
196 0.000576
197 0.000567
198 0.000560
199 0.000563
200 0.000553
201 0.000545
202 0.000538
203 0.000528
204 0.000514
205 0.000509
206 0.000512
207 0.000533
208 0.000558
209 0.000584
210 0.000598
211 0.000604
212 0.000613
213 0.000599
214 0.000592
215 0.000587
216 0.000567
217 0.000558
218 0.000544
219 0.000535
220 0.000530
221 0.000528
222 0.000532
223 0.000541
224 0.000554
225 0.000559
226 0.000555
227 0.000561
228 0.000557
229 0.000549
230 0.000544
231 0.000539
232 0.000531
233 0.000519
234 0.000514
235 0.000503
236 0.000486
237 0.000474
238 0.000464
239 0.000465
240 0.000461
241 0.000444
242 0.000443
243 0.000430
244 0.000428
245 0.000429
246 0.000431
247 0.000432
248 0.000432
249 0.000437
250 0.000441
251 0.000447
252 0.000462
253 0.000482
254 0.000501
255 0.000524
256 0.000545
257 0.000574
258 0.000589
259 0.000595
260 0.000603
261 0.000608
262 0.000600
263 0.000595
264 0.000583
265 0.000591
266 0.000588
267 0.000588
268 0.000584
269 0.000582
270 0.000586
271 0.000587
272 0.000579
273 0.000576
274 0.000580
275 0.000584
276 0.000579
277 0.000584
278 0.000586
279 0.000585
280 0.000586
281 0.000590
282 0.000584
283 0.000586
284 0.000575
285 0.000555
286 0.000542
287 0.000537
288 0.000529
289 0.000522
290 0.000518
291 0.000508
292 0.000493
293 0.000485
294 0.000473
295 0.000466
296 0.000455
297 0.000437
298 0.000416
299 0.000410
300 0.000389
301 0.000382
302 0.000380
303 0.000373
304 0.000359
305 0.000353
306 0.000343
307 0.000337
308 0.000320
309 0.000305
310 0.000295
311 0.000294
312 0.000297
313 0.000295
314 0.000297
315 0.000312
316 0.000322
317 0.000330
318 0.000330
319 0.000330
320 0.000329
321 0.000327
322 0.000327
323 0.000334
324 0.000343
325 0.000355
326 0.000367
327 0.000387
328 0.000404
329 0.000407
330 0.000400
331 0.000380
332 0.000357
333 0.000337
334 0.000320
335 0.000313
336 0.000313
337 0.000311
338 0.000309
339 0.000292
340 0.000283
341 0.000288
342 0.000292
343 0.000297
344 0.000297
345 0.000295
346 0.000287
347 0.000287
348 0.000285
349 0.000294
350 0.000300
351 0.000310
352 0.000326
353 0.000327
354 0.000331
355 0.000338
356 0.000339
357 0.000327
358 0.000327
359 0.000323
360 0.000322
361 0.000337
362 0.000350
363 0.000358
364 0.000364
365 0.000369
366 0.000371
367 0.000376
368 0.000384
369 0.000383
370 0.000384
371 0.000382
372 0.000367
373 0.000351
374 0.000344
375 0.000325
376 0.000318
377 0.000312
378 0.000300
379 0.000290
380 0.000277
381 0.000273
382 0.000269
383 0.000272
384 0.000280
385 0.000276
386 0.000281
387 0.000285
388 0.000285
389 0.000279
390 0.000277
391 0.000284
392 0.000285
393 0.000288
394 0.000296
395 0.000295
396 0.000291
397 0.000292
398 0.000297
399 0.000304
400 0.000302
401 0.000298
402 0.000292
403 0.000285
404 0.000288
405 0.000293
406 0.000310
407 0.000323
408 0.000331
409 0.000342
410 0.000350
411 0.000351
412 0.000346
413 0.000346
414 0.000352
415 0.000356
416 0.000363
417 0.000373
418 0.000384
419 0.000394
420 0.000404
421 0.000418
422 0.000424
423 0.000421
424 0.000416
425 0.000398
426 0.000385
427 0.000367
428 0.000352
429 0.000327
430 0.000306
431 0.000279
432 0.000267
433 0.000261
434 0.000264
435 0.000265
436 0.000267
437 0.000259
438 0.000242
439 0.000240
440 0.000233
441 0.000222
442 0.000208
443 0.000199
444 0.000181
445 0.000160
446 0.000146
447 0.000139
448 0.000131
449 0.000124
450 0.000126
451 0.000127
452 0.000130
453 0.000124
454 0.000127
455 0.000132
456 0.000142
457 0.000155
458 0.000160
459 0.000165
460 0.000164
461 0.000161
462 0.000160
463 0.000153
464 0.000160
465 0.000170
466 0.000173
467 0.000175
468 0.000182
469 0.000190
470 0.000201
471 0.000207
472 0.000220
473 0.000223
474 0.000218
475 0.000208
476 0.000204
477 0.000208
478 0.000204
479 0.000202
480 0.000203
481 0.000211
482 0.000218
483 0.000231
484 0.000239
485 0.000252
486 0.000271
487 0.000283
488 0.000291
489 0.000301
490 0.000305
491 0.000306
492 0.000298
493 0.000291
494 0.000279
495 0.000265
496 0.000266
497 0.000263
498 0.000265
499 0.000264
500 0.000261
501 0.000253
502 0.000252
503 0.000251
504 0.000250
505 0.000262
506 0.000265
507 0.000262
508 0.000253
509 0.000259
510 0.000263
511 0.000274
512 0.000280
513 0.000289
514 0.000291
515 0.000286
516 0.000276
517 0.000258
518 0.000250
519 0.000243
520 0.000235
521 0.000227
522 0.000218
523 0.000213
524 0.000211
525 0.000206
526 0.000205
527 0.000216
528 0.000211
529 0.000206
530 0.000196
531 0.000194
532 0.000189
533 0.000183
534 0.000182
535 0.000184
536 0.000195
537 0.000208
538 0.000227
539 0.000237
540 0.000243
541 0.000231
542 0.000224
543 0.000216
544 0.000211
545 0.000211
546 0.000215
547 0.000220
548 0.000219
549 0.000224
550 0.000241
551 0.000255
552 0.000267
553 0.000272
554 0.000269
555 0.000269
556 0.000273
557 0.000282
558 0.000291
559 0.000308
560 0.000320
561 0.000327
562 0.000334
563 0.000337
564 0.000335
565 0.000325
566 0.000313
567 0.000307
568 0.000296
569 0.000289
570 0.000288
571 0.000277
572 0.000272
573 0.000266
574 0.000268
575 0.000271
576 0.000283
577 0.000300
578 0.000311
579 0.000308
580 0.000313
581 0.000306
582 0.000314
583 0.000317
584 0.000320
585 0.000316
586 0.000312
587 0.000309
588 0.000304
589 0.000294
590 0.000286
591 0.000276
592 0.000265
593 0.000261
594 0.000254
595 0.000245
596 0.000246
597 0.000242
598 0.000242
599 0.000238
600 0.000237
601 0.000235
602 0.000232
603 0.000225
604 0.000213
605 0.000201
606 0.000192
607 0.000185
608 0.000177
609 0.000164
610 0.000158
611 0.000151
612 0.000145
613 0.000135
614 0.000123
615 0.000111
616 0.000111
617 0.000103
618 0.000101
619 0.000096
620 0.000092
621 0.000082
622 0.000076
623 0.000071
624 0.000069
625 0.000065
626 0.000063
627 0.000064
628 0.000056
629 0.000047
630 0.000037
631 0.000037
632 0.000040
633 0.000046
634 0.000046
635 0.000047
636 0.000041
637 0.000030
638 0.000025
639 0.000030
640 0.000035
641 0.000037
642 0.000041
643 0.000053
644 0.000066
645 0.000075
646 0.000080
647 0.000084
648 0.000092
649 0.000103
650 0.000108
651 0.000114
652 0.000119
653 0.000132
654 0.000135
655 0.000139
656 0.000138
657 0.000134
658 0.000125
659 0.000116
660 0.000113
661 0.000105
662 0.000097
663 0.000094
664 0.000097
665 0.000100
666 0.000099
667 0.000103
668 0.000103
669 0.000099
670 0.000093
671 0.000088
672 0.000090
673 0.000095
674 0.000099
675 0.000103
676 0.000101
677 0.000098
678 0.000094
679 0.000098
680 0.000105
681 0.000115
682 0.000122
683 0.000121
684 0.000119
685 0.000114
686 0.000105
687 0.000094
688 0.000087
689 0.000085
690 0.000084
691 0.000087
692 0.000087
693 0.000097
694 0.000096
695 0.000097
696 0.000104
697 0.000117
698 0.000121
699 0.000126
700 0.000128
701 0.000133
702 0.000124
703 0.000112
704 0.000107
705 0.000099
706 0.000091
707 0.000076
708 0.000057
709 0.000044
710 0.000042
711 0.000035
712 0.000025
713 0.000022
714 0.000011
715 0.000002
716 -0.000003
717 -0.000001
718 0.000001
719 0.000003
720 0.000002
721 0.000000
722 0.000002
723 0.000001
724 -0.000007
725 -0.000007
726 -0.000002
727 -0.000004
728 -0.000008
729 -0.000006
730 -0.000004
731 -0.000009
732 -0.000020
733 -0.000026
734 -0.000031
735 -0.000033
736 -0.000028
737 -0.000021
738 -0.000011
739 0.000000
740 0.000009
741 0.000012
742 0.000024
743 0.000037
744 0.000046
745 0.000057
746 0.000068
747 0.000073
748 0.000087
749 0.000097
750 0.000106
751 0.000115
752 0.000115
753 0.000115
754 0.000117
755 0.000118
756 0.000116
757 0.000115
758 0.000110
759 0.000107
760 0.000101
761 0.000101
762 0.000106
763 0.000110
764 0.000112
765 0.000117
766 0.000120
767 0.000122
768 0.000129
769 0.000129
770 0.000135
771 0.000135
772 0.000130
773 0.000131
774 0.000129
775 0.000123
776 0.000126
777 0.000125
778 0.000121
779 0.000122
780 0.000118
781 0.000113
782 0.000111
783 0.000102
784 0.000097
785 0.000086
786 0.000081
787 0.000073
788 0.000070
789 0.000066
790 0.000063
791 0.000059
792 0.000056
793 0.000053
794 0.000049
795 0.000042
796 0.000032
797 0.000030
798 0.000025
799 0.000022
800 0.000020
801 0.000021
802 0.000017
803 0.000009
804 -0.000001
805 -0.000010
806 -0.000016
807 -0.000022
808 -0.000024
809 -0.000026
