# i correlation
1 0.002337
2 0.002230
3 0.002134
4 0.002070
5 0.002006
6 0.001934
7 0.001880
8 0.001842
9 0.001796
10 0.001750
11 0.001707
12 0.001656
13 0.001617
14 0.001579
15 0.001541
16 0.001512
17 0.001492
18 0.001473
19 0.001449
20 0.001435
21 0.001424
22 0.001415
23 0.001391
24 0.001376
25 0.001381
26 0.001373
27 0.001362
28 0.001347
29 0.001348
30 0.001351
31 0.001350
32 0.001341
33 0.001338
34 0.001345
35 0.001358
36 0.001366
37 0.001376
38 0.001387
39 0.001407
40 0.001423
41 0.001427
42 0.001422
43 0.001417
44 0.001416
45 0.001414
46 0.001411
47 0.001413
48 0.001400
49 0.001394
50 0.001378
51 0.001368
52 0.001367
53 0.001354
54 0.001338
55 0.001319
56 0.001296
57 0.001266
58 0.001242
59 0.001224
60 0.001206
61 0.001186
62 0.001170
63 0.001159
64 0.001135
65 0.001117
66 0.001093
67 0.001072
68 0.001050
69 0.001049
70 0.001056
71 0.001060
72 0.001066
73 0.001065
74 0.001071
75 0.001078
76 0.001083
77 0.001095
78 0.001107
79 0.001109
80 0.001125
81 0.001143
82 0.001155
83 0.001167
84 0.001167
85 0.001165
86 0.001182
87 0.001195
88 0.001209
89 0.001225
90 0.001238
91 0.001253
92 0.001255
93 0.001244
94 0.001235
95 0.001208
96 0.001193
97 0.001167
98 0.001146
99 0.001131
100 0.001120
101 0.001109
102 0.001092
103 0.001074
104 0.001047
105 0.001013
106 0.000988
107 0.000967
108 0.000959
109 0.000941
110 0.000919
111 0.000905
112 0.000886
113 0.000869
114 0.000848
115 0.000843
116 0.000841
117 0.000847
118 0.000844
119 0.000853
120 0.000850
121 0.000843
122 0.000831
123 0.000830
124 0.000831
125 0.000835
126 0.000840
127 0.000855
128 0.000878
129 0.000903
130 0.000929
131 0.000952
132 0.000965
133 0.000983
134 0.000994
135 0.001011
136 0.001015
137 0.001014
138 0.001022
139 0.001025
140 0.001030
141 0.001021
142 0.001015
143 0.001009
144 0.000998
145 0.000992
146 0.000991
147 0.000988
148 0.000991
149 0.000989
150 0.000982
151 0.000969
152 0.000966
153 0.000961
154 0.000950
155 0.000945
156 0.000940
157 0.000929
158 0.000914
159 0.000887
160 0.000862
161 0.000837
162 0.000812
163 0.000792
164 0.000783
165 0.000776
166 0.000775
167 0.000767
168 0.000761
169 0.000756
170 0.000749
171 0.000749
172 0.000752
173 0.000758
174 0.000772
175 0.000770
176 0.000764
177 0.000758
178 0.000765
179 0.000773
180 0.000790
181 0.000795
182 0.000801
183 0.000795
184 0.000786
185 0.000780
186 0.000771
187 0.000763
188 0.000749
189 0.000725
190 0.000710
191 0.000690
192 0.000681
193 0.000661
194 0.000654
195 0.000645
196 0.000630
197 0.000604
198 0.000578
199 0.000567
200 0.000548
201 0.000531
202 0.000518
203 0.000511
204 0.000491
205 0.000476
206 0.000456
207 0.000442
208 0.000432
209 0.000425
210 0.000437
211 0.000451
212 0.000464
213 0.000469
214 0.000464
215 0.000463
216 0.000469
217 0.000488
218 0.000505
219 0.000536
220 0.000568
221 0.000605
222 0.000626
223 0.000651
224 0.000667
225 0.000683
226 0.000694
227 0.000706
228 0.000709
229 0.000706
230 0.000706
231 0.000694
232 0.000694
233 0.000689
234 0.000687
235 0.000672
236 0.000662
237 0.000647
238 0.000643
239 0.000629
240 0.000615
241 0.000603
242 0.000591
243 0.000573
244 0.000565
245 0.000550
246 0.000539
247 0.000532
248 0.000523
249 0.000513
250 0.000507
251 0.000503
252 0.000505
253 0.000487
254 0.000468
255 0.000463
256 0.000447
257 0.000449
258 0.000437
259 0.000433
260 0.000424
261 0.000410
262 0.000397
263 0.000388
264 0.000396
265 0.000403
266 0.000418
267 0.000417
268 0.000424
269 0.000436
270 0.000445
271 0.000439
272 0.000433
273 0.000438
274 0.000456
275 0.000465
276 0.000461
277 0.000456
278 0.000437
279 0.000423
280 0.000396
281 0.000380
282 0.000371
283 0.000361
284 0.000354
285 0.000355
286 0.000363
287 0.000369
288 0.000367
289 0.000360
290 0.000362
291 0.000357
292 0.000350
293 0.000352
294 0.000342
295 0.000343
296 0.000343
297 0.000342
298 0.000343
299 0.000346
300 0.000342
301 0.000344
302 0.000342
303 0.000346
304 0.000357
305 0.000353
306 0.000349
307 0.000347
308 0.000336
309 0.000332
310 0.000330
311 0.000329
312 0.000329
313 0.000339
314 0.000351
315 0.000364
316 0.000373
317 0.000373
318 0.000373
319 0.000376
320 0.000382
321 0.000390
322 0.000412
323 0.000420
324 0.000419
325 0.000417
326 0.000412
327 0.000423
328 0.000431
329 0.000435
330 0.000433
331 0.000436
332 0.000445
333 0.000450
334 0.000450
335 0.000437
336 0.000432
337 0.000417
338 0.000415
339 0.000399
340 0.000389
341 0.000374
342 0.000361
343 0.000348
344 0.000341
345 0.000333
346 0.000336
347 0.000334
348 0.000336
349 0.000330
350 0.000312
351 0.000309
352 0.000300
353 0.000298
354 0.000292
355 0.000281
356 0.000278
357 0.000281
358 0.000290
359 0.000303
360 0.000309
361 0.000309
362 0.000306
363 0.000303
364 0.000290
365 0.000285
366 0.000275
367 0.000277
368 0.000283
369 0.000287
370 0.000281
371 0.000268
372 0.000256
373 0.000251
374 0.000256
375 0.000257
376 0.000277
377 0.000301
378 0.000310
379 0.000327
380 0.000326
381 0.000322
382 0.000319
383 0.000307
384 0.000309
385 0.000321
386 0.000324
387 0.000335
388 0.000335
389 0.000335
390 0.000333
391 0.000325
392 0.000320
393 0.000321
394 0.000325
395 0.000322
396 0.000312
397 0.000305
398 0.000307
399 0.000308
400 0.000300
401 0.000290
402 0.000296
403 0.000302
404 0.000308
405 0.000313
406 0.000319
407 0.000332
408 0.000341
409 0.000343
410 0.000354
411 0.000351
412 0.000356
413 0.000361
414 0.000371
415 0.000377
416 0.000384
417 0.000376
418 0.000378
419 0.000378
420 0.000376
421 0.000370
422 0.000352
423 0.000344
424 0.000351
425 0.000338
426 0.000331
427 0.000309
428 0.000308
429 0.000300
430 0.000286
431 0.000263
432 0.000254
433 0.000244
434 0.000240
435 0.000229
436 0.000217
437 0.000217
438 0.000219
439 0.000230
440 0.000232
441 0.000226
442 0.000228
443 0.000236
444 0.000247
445 0.000256
446 0.000264
447 0.000274
448 0.000289
449 0.000305
450 0.000324
451 0.000345
452 0.000356
453 0.000360
454 0.000366
455 0.000367
456 0.000363
457 0.000355
458 0.000342
459 0.000333
460 0.000323
461 0.000314
462 0.000306
463 0.000297
464 0.000287
465 0.000288
466 0.000276
467 0.000269
468 0.000276
469 0.000284
470 0.000289
471 0.000291
472 0.000299
473 0.000309
474 0.000308
475 0.000306
476 0.000309
477 0.000311
478 0.000317
479 0.000319
480 0.000318
481 0.000308
482 0.000295
483 0.000285
484 0.000282
485 0.000279
486 0.000278
487 0.000280
488 0.000292
489 0.000309
490 0.000322
491 0.000332
492 0.000335
493 0.000345
494 0.000351
495 0.000355
496 0.000362
497 0.000366
498 0.000371
499 0.000369
500 0.000365
501 0.000357
502 0.000360
503 0.000356
504 0.000352
505 0.000344
506 0.000333
507 0.000330
508 0.000320
509 0.000309
510 0.000304
511 0.000293
512 0.000285
513 0.000269
514 0.000262
515 0.000267
516 0.000262
517 0.000257
518 0.000245
519 0.000237
520 0.000228
521 0.000220
522 0.000208
523 0.000195
524 0.000188
525 0.000195
526 0.000196
527 0.000207
528 0.000209
529 0.000207
530 0.000202
531 0.000196
532 0.000191
533 0.000192
534 0.000195
535 0.000199
536 0.000204
537 0.000211
538 0.000215
539 0.000223
540 0.000227
541 0.000232
542 0.000237
543 0.000238
544 0.000240
545 0.000253
546 0.000266
547 0.000281
548 0.000300
549 0.000309
550 0.000319
551 0.000324
552 0.000329
553 0.000327
554 0.000323
555 0.000323
556 0.000317
557 0.000312
558 0.000306
559 0.000309
560 0.000300
561 0.000295
562 0.000290
563 0.000281
564 0.000278
565 0.000272
566 0.000270
567 0.000262
568 0.000260
569 0.000259
570 0.000264
571 0.000263
572 0.000262
573 0.000261
574 0.000263
575 0.000256
576 0.000248
577 0.000240
578 0.000234
579 0.000237
580 0.000242
581 0.000246
582 0.000248
583 0.000245
584 0.000248
585 0.000246
586 0.000249
587 0.000246
588 0.000255
589 0.000257
590 0.000261
591 0.000267
592 0.000272
593 0.000270
594 0.000258
595 0.000247
596 0.000243
597 0.000243
598 0.000244
599 0.000250
600 0.000255
601 0.000258
602 0.000258
603 0.000257
604 0.000260
605 0.000258
606 0.000257
607 0.000248
608 0.000253
609 0.000257
610 0.000257
611 0.000253
612 0.000246
613 0.000242
614 0.000227
615 0.000219
616 0.000198
617 0.000191
618 0.000194
619 0.000197
620 0.000196
621 0.000194
622 0.000187
623 0.000191
624 0.000199
625 0.000211
626 0.000225
627 0.000236
628 0.000251
629 0.000266
630 0.000271
631 0.000283
632 0.000291
633 0.000300
634 0.000308
635 0.000316
636 0.000326
637 0.000330
638 0.000333
639 0.000339
640 0.000341
641 0.000335
642 0.000332
643 0.000330
644 0.000332
645 0.000335
646 0.000339
647 0.000340
648 0.000340
649 0.000339
650 0.000340
651 0.000344
652 0.000340
653 0.000339
654 0.000334
655 0.000331
656 0.000332
657 0.000323
658 0.000315
659 0.000305
660 0.000302
661 0.000296
662 0.000287
663 0.000276
664 0.000277
665 0.000275
666 0.000274
667 0.000278
668 0.000285
669 0.000286
670 0.000287
671 0.000291
672 0.000299
673 0.000311
674 0.000318
675 0.000327
676 0.000332
677 0.000338
678 0.000349
679 0.000356
680 0.000370
681 0.000384
682 0.000394
683 0.000401
684 0.000407
685 0.000415
686 0.000416
687 0.000413
688 0.000409
689 0.000414
690 0.000421
691 0.000420
692 0.000421
693 0.000417
694 0.000416
695 0.000414
696 0.000410
697 0.000401
698 0.000397
699 0.000393
700 0.000388
701 0.000389
702 0.000390
703 0.000391
704 0.000379
705 0.000373
706 0.000367
707 0.000371
708 0.000370
709 0.000371
710 0.000366
711 0.000362
712 0.000357
713 0.000351
714 0.000348
715 0.000342
716 0.000340
717 0.000339
718 0.000338
719 0.000338
720 0.000341
721 0.000346
722 0.000352
723 0.000358
724 0.000359
725 0.000363
726 0.000366
727 0.000374
728 0.000376
729 0.000372
730 0.000368
731 0.000363
732 0.000358
733 0.000353
734 0.000342
735 0.000330
736 0.000322
737 0.000314
738 0.000308
739 0.000295
740 0.000282
741 0.000273
742 0.000266
743 0.000259
744 0.000253
745 0.000246
746 0.000238
747 0.000234
748 0.000235
749 0.000233
750 0.000227
751 0.000218
752 0.000205
753 0.000191
754 0.000182
755 0.000171
756 0.000163
757 0.000154
758 0.000151
759 0.000142
760 0.000133
761 0.000132
762 0.000134
763 0.000129
764 0.000125
765 0.000121
766 0.000120
767 0.000124
768 0.000126
769 0.000130
770 0.000130
771 0.000132
772 0.000146
773 0.000152
774 0.000159
775 0.000159
776 0.000162
777 0.000159
778 0.000163
779 0.000164
780 0.000166
781 0.000170
782 0.000170
783 0.000171
784 0.000174
785 0.000173
786 0.000173
787 0.000172
788 0.000166
789 0.000164
790 0.000160
791 0.000159
792 0.000160
793 0.000158
794 0.000154
795 0.000147
796 0.000143
797 0.000143
798 0.000140
799 0.000137
800 0.000138
801 0.000140
802 0.000137
803 0.000139
804 0.000139
805 0.000144
806 0.000144
807 0.000143
808 0.000142
809 0.000142
