# i correlation
1 0.002174
2 0.002050
3 0.001939
4 0.001849
5 0.001782
6 0.001736
7 0.001696
8 0.001659
9 0.001624
10 0.001591
11 0.001563
12 0.001546
13 0.001518
14 0.001490
15 0.001468
16 0.001449
17 0.001438
18 0.001432
19 0.001426
20 0.001415
21 0.001416
22 0.001423
23 0.001429
24 0.001422
25 0.001415
26 0.001398
27 0.001373
28 0.001348
29 0.001336
30 0.001329
31 0.001321
32 0.001298
33 0.001272
34 0.001255
35 0.001246
36 0.001242
37 0.001241
38 0.001233
39 0.001214
40 0.001189
41 0.001177
42 0.001175
43 0.001177
44 0.001188
45 0.001198
46 0.001201
47 0.001197
48 0.001179
49 0.001154
50 0.001129
51 0.001100
52 0.001077
53 0.001066
54 0.001064
55 0.001066
56 0.001072
57 0.001072
58 0.001082
59 0.001097
60 0.001108
61 0.001106
62 0.001109
63 0.001104
64 0.001098
65 0.001097
66 0.001086
67 0.001076
68 0.001073
69 0.001079
70 0.001077
71 0.001081
72 0.001087
73 0.001093
74 0.001096
75 0.001098
76 0.001101
77 0.001101
78 0.001092
79 0.001079
80 0.001072
81 0.001082
82 0.001091
83 0.001113
84 0.001119
85 0.001126
86 0.001116
87 0.001108
88 0.001091
89 0.001083
90 0.001078
91 0.001081
92 0.001093
93 0.001104
94 0.001117
95 0.001121
96 0.001121
97 0.001119
98 0.001098
99 0.001075
100 0.001061
101 0.001059
102 0.001068
103 0.001064
104 0.001061
105 0.001071
106 0.001085
107 0.001090
108 0.001082
109 0.001069
110 0.001049
111 0.001027
112 0.001010
113 0.000996
114 0.000997
115 0.001002
116 0.001000
117 0.001014
118 0.001029
119 0.001047
120 0.001066
121 0.001083
122 0.001100
123 0.001106
124 0.001111
125 0.001107
126 0.001106
127 0.001115
128 0.001122
129 0.001129
130 0.001127
131 0.001121
132 0.001123
133 0.001112
134 0.001101
135 0.001078
136 0.001055
137 0.001045
138 0.001049
139 0.001053
140 0.001058
141 0.001058
142 0.001062
143 0.001055
144 0.001052
145 0.001031
146 0.001025
147 0.001021
148 0.001020
149 0.001036
150 0.001057
151 0.001075
152 0.001083
153 0.001095
154 0.001105
155 0.001111
156 0.001114
157 0.001105
158 0.001094
159 0.001087
160 0.001097
161 0.001108
162 0.001108
163 0.001107
164 0.001103
165 0.001094
166 0.001097
167 0.001090
168 0.001089
169 0.001084
170 0.001078
171 0.001071
172 0.001065
173 0.001061
174 0.001059
175 0.001054
176 0.001054
177 0.001051
178 0.001044
179 0.001033
180 0.001029
181 0.001022
182 0.001012
183 0.001015
184 0.001027
185 0.001029
186 0.001032
187 0.001032
188 0.001024
189 0.001023
190 0.001013
191 0.001019
192 0.001032
193 0.001041
194 0.001048
195 0.001054
196 0.001050
197 0.001051
198 0.001048
199 0.001045
200 0.001027
201 0.001011
202 0.000996
203 0.000972
204 0.000951
205 0.000941
206 0.000938
207 0.000930
208 0.000908
209 0.000890
210 0.000880
211 0.000875
212 0.000871
213 0.000855
214 0.000843
215 0.000831
216 0.000821
217 0.000802
218 0.000780
219 0.000764
220 0.000760
221 0.000756
222 0.000763
223 0.000781
224 0.000805
225 0.000819
226 0.000814
227 0.000807
228 0.000782
229 0.000753
230 0.000730
231 0.000723
232 0.000721
233 0.000731
234 0.000735
235 0.000741
236 0.000754
237 0.000770
238 0.000772
239 0.000773
240 0.000767
241 0.000766
242 0.000758
243 0.000749
244 0.000747
245 0.000739
246 0.000737
247 0.000729
248 0.000727
249 0.000737
250 0.000737
251 0.000725
252 0.000711
253 0.000691
254 0.000677
255 0.000668
256 0.000669
257 0.000671
258 0.000670
259 0.000657
260 0.000648
261 0.000650
262 0.000652
263 0.000646
264 0.000641
265 0.000628
266 0.000626
267 0.000625
268 0.000637
269 0.000646
270 0.000658
271 0.000675
272 0.000677
273 0.000667
274 0.000654
275 0.000647
276 0.000641
277 0.000633
278 0.000640
279 0.000648
280 0.000665
281 0.000675
282 0.000683
283 0.000701
284 0.000707
285 0.000707
286 0.000713
287 0.000725
288 0.000733
289 0.000741
290 0.000737
291 0.000727
292 0.000727
293 0.000745
294 0.000757
295 0.000771
296 0.000769
297 0.000757
298 0.000750
299 0.000748
300 0.000761
301 0.000780
302 0.000794
303 0.000800
304 0.000794
305 0.000767
306 0.000753
307 0.000744
308 0.000749
309 0.000752
310 0.000753
311 0.000745
312 0.000740
313 0.000730
314 0.000725
315 0.000720
316 0.000728
317 0.000735
318 0.000755
319 0.000763
320 0.000767
321 0.000773
322 0.000784
323 0.000786
324 0.000797
325 0.000802
326 0.000807
327 0.000816
328 0.000816
329 0.000819
330 0.000816
331 0.000829
332 0.000834
333 0.000853
334 0.000869
335 0.000878
336 0.000869
337 0.000854
338 0.000838
339 0.000837
340 0.000829
341 0.000829
342 0.000819
343 0.000807
344 0.000791
345 0.000791
346 0.000786
347 0.000792
348 0.000800
349 0.000803
350 0.000798
351 0.000795
352 0.000793
353 0.000798
354 0.000800
355 0.000798
356 0.000795
357 0.000786
358 0.000773
359 0.000762
360 0.000758
361 0.000755
362 0.000750
363 0.000748
364 0.000749
365 0.000752
366 0.000757
367 0.000750
368 0.000735
369 0.000717
370 0.000701
371 0.000687
372 0.000676
373 0.000663
374 0.000648
375 0.000642
376 0.000642
377 0.000645
378 0.000655
379 0.000657
380 0.000654
381 0.000643
382 0.000628
383 0.000619
384 0.000618
385 0.000626
386 0.000629
387 0.000637
388 0.000633
389 0.000629
390 0.000625
391 0.000617
392 0.000602
393 0.000587
394 0.000577
395 0.000569
396 0.000564
397 0.000551
398 0.000541
399 0.000528
400 0.000520
401 0.000518
402 0.000509
403 0.000504
404 0.000496
405 0.000494
406 0.000487
407 0.000485
408 0.000491
409 0.000508
410 0.000527
411 0.000534
412 0.000538
413 0.000536
414 0.000531
415 0.000522
416 0.000511
417 0.000504
418 0.000500
419 0.000492
420 0.000482
421 0.000481
422 0.000487
423 0.000487
424 0.000492
425 0.000489
426 0.000490
427 0.000476
428 0.000466
429 0.000458
430 0.000460
431 0.000465
432 0.000477
433 0.000490
434 0.000492
435 0.000491
436 0.000490
437 0.000486
438 0.000486
439 0.000486
440 0.000490
441 0.000495
442 0.000501
443 0.000507
444 0.000517
445 0.000529
446 0.000539
447 0.000548
448 0.000557
449 0.000561
450 0.000561
451 0.000563
452 0.000554
453 0.000546
454 0.000538
455 0.000540
456 0.000554
457 0.000562
458 0.000567
459 0.000573
460 0.000571
461 0.000569
462 0.000575
463 0.000585
464 0.000589
465 0.000581
466 0.000576
467 0.000576
468 0.000579
469 0.000584
470 0.000594
471 0.000605
472 0.000620
473 0.000638
474 0.000654
475 0.000656
476 0.000651
477 0.000657
478 0.000664
479 0.000669
480 0.000668
481 0.000666
482 0.000671
483 0.000669
484 0.000673
485 0.000692
486 0.000708
487 0.000717
488 0.000725
489 0.000733
490 0.000731
491 0.000732
492 0.000732
493 0.000735
494 0.000742
495 0.000755
496 0.000762
497 0.000753
498 0.000743
499 0.000725
500 0.000702
501 0.000677
502 0.000655
503 0.000641
504 0.000629
505 0.000627
506 0.000618
507 0.000622
508 0.000627
509 0.000633
510 0.000634
511 0.000629
512 0.000618
513 0.000605
514 0.000593
515 0.000597
516 0.000605
517 0.000616
518 0.000627
519 0.000637
520 0.000644
521 0.000641
522 0.000632
523 0.000612
524 0.000589
525 0.000563
526 0.000542
527 0.000536
528 0.000541
529 0.000543
530 0.000545
531 0.000545
532 0.000547
533 0.000554
534 0.000566
535 0.000577
536 0.000588
537 0.000594
538 0.000605
539 0.000609
540 0.000615
541 0.000614
542 0.000605
543 0.000602
544 0.000597
545 0.000599
546 0.000594
547 0.000583
548 0.000557
549 0.000530
550 0.000509
551 0.000503
552 0.000496
553 0.000493
554 0.000490
555 0.000494
556 0.000486
557 0.000472
558 0.000476
559 0.000487
560 0.000497
561 0.000500
562 0.000503
563 0.000510
564 0.000523
565 0.000538
566 0.000545
567 0.000542
568 0.000536
569 0.000528
570 0.000522
571 0.000521
572 0.000524
573 0.000524
574 0.000527
575 0.000531
576 0.000534
577 0.000540
578 0.000542
579 0.000543
580 0.000540
581 0.000541
582 0.000534
583 0.000528
584 0.000522
585 0.000512
586 0.000502
587 0.000491
588 0.000483
589 0.000478
590 0.000486
591 0.000487
592 0.000485
593 0.000478
594 0.000466
595 0.000451
596 0.000441
597 0.000438
598 0.000430
599 0.000420
600 0.000413
601 0.000409
602 0.000419
603 0.000430
604 0.000432
605 0.000436
606 0.000435
607 0.000427
608 0.000417
609 0.000412
610 0.000404
611 0.000405
612 0.000412
613 0.000416
614 0.000412
615 0.000410
616 0.000408
617 0.000409
618 0.000408
619 0.000403
620 0.000403
621 0.000402
622 0.000397
623 0.000392
624 0.000393
625 0.000390
626 0.000383
627 0.000379
628 0.000380
629 0.000383
630 0.000381
631 0.000374
632 0.000360
633 0.000348
634 0.000346
635 0.000349
636 0.000359
637 0.000378
638 0.000388
639 0.000397
640 0.000411
641 0.000415
642 0.000422
643 0.000429
644 0.000429
645 0.000430
646 0.000431
647 0.000432
648 0.000435
649 0.000441
650 0.000443
651 0.000440
652 0.000436
653 0.000441
654 0.000438
655 0.000441
656 0.000447
657 0.000453
658 0.000459
659 0.000464
660 0.000466
661 0.000469
662 0.000481
663 0.000484
664 0.000482
665 0.000484
666 0.000488
667 0.000488
668 0.000487
669 0.000484
670 0.000481
671 0.000483
672 0.000485
673 0.000487
674 0.000486
675 0.000478
676 0.000466
677 0.000450
678 0.000440
679 0.000433
680 0.000432
681 0.000429
682 0.000429
683 0.000433
684 0.000444
685 0.000453
686 0.000459
687 0.000466
688 0.000472
689 0.000475
690 0.000477
691 0.000474
692 0.000465
693 0.000458
694 0.000458
695 0.000455
696 0.000456
697 0.000456
698 0.000450
699 0.000444
700 0.000437
701 0.000430
702 0.000424
703 0.000411
704 0.000400
705 0.000385
706 0.000370
707 0.000354
708 0.000335
709 0.000323
710 0.000309
711 0.000302
712 0.000298
713 0.000293
714 0.000290
715 0.000287
716 0.000282
717 0.000274
718 0.000265
719 0.000257
720 0.000247
721 0.000240
722 0.000235
723 0.000232
724 0.000222
725 0.000213
726 0.000205
727 0.000200
728 0.000191
729 0.000182
730 0.000180
731 0.000175
732 0.000181
733 0.000186
734 0.000187
735 0.000189
736 0.000187
737 0.000182
738 0.000172
739 0.000166
740 0.000164
741 0.000165
742 0.000170
743 0.000176
744 0.000180
745 0.000184
746 0.000185
747 0.000182
748 0.000168
749 0.000160
750 0.000151
751 0.000147
752 0.000141
753 0.000134
754 0.000120
755 0.000106
756 0.000098
757 0.000099
758 0.000105
759 0.000120
760 0.000136
761 0.000147
762 0.000159
763 0.000167
764 0.000170
765 0.000173
766 0.000175
767 0.000176
768 0.000173
769 0.000175
770 0.000167
771 0.000166
772 0.000163
773 0.000157
774 0.000155
775 0.000156
776 0.000158
777 0.000162
778 0.000170
779 0.000174
780 0.000177
781 0.000183
782 0.000181
783 0.000178
784 0.000169
785 0.000159
786 0.000154
787 0.000152
788 0.000154
789 0.000153
790 0.000150
791 0.000144
792 0.000136
793 0.000120
794 0.000102
795 0.000090
796 0.000082
797 0.000079
798 0.000077
799 0.000076
800 0.000072
801 0.000069
802 0.000065
803 0.000062
804 0.000063
805 0.000067
806 0.000069
807 0.000067
808 0.000068
809 0.000069
