# i correlation
1 0.002146
2 0.002028
3 0.001921
4 0.001826
5 0.001760
6 0.001705
7 0.001660
8 0.001616
9 0.001578
10 0.001556
11 0.001522
12 0.001493
13 0.001475
14 0.001474
15 0.001474
16 0.001469
17 0.001465
18 0.001447
19 0.001429
20 0.001428
21 0.001416
22 0.001392
23 0.001378
24 0.001350
25 0.001333
26 0.001331
27 0.001325
28 0.001317
29 0.001294
30 0.001292
31 0.001293
32 0.001286
33 0.001280
34 0.001268
35 0.001253
36 0.001239
37 0.001237
38 0.001244
39 0.001253
40 0.001280
41 0.001315
42 0.001336
43 0.001360
44 0.001368
45 0.001378
46 0.001367
47 0.001356
48 0.001352
49 0.001328
50 0.001310
51 0.001305
52 0.001289
53 0.001262
54 0.001239
55 0.001220
56 0.001209
57 0.001202
58 0.001199
59 0.001202
60 0.001188
61 0.001176
62 0.001167
63 0.001167
64 0.001164
65 0.001175
66 0.001180
67 0.001178
68 0.001185
69 0.001178
70 0.001169
71 0.001167
72 0.001172
73 0.001186
74 0.001198
75 0.001206
76 0.001208
77 0.001194
78 0.001184
79 0.001171
80 0.001149
81 0.001131
82 0.001121
83 0.001110
84 0.001116
85 0.001138
86 0.001164
87 0.001183
88 0.001192
89 0.001188
90 0.001180
91 0.001171
92 0.001173
93 0.001177
94 0.001186
95 0.001185
96 0.001198
97 0.001185
98 0.001161
99 0.001149
100 0.001134
101 0.001115
102 0.001109
103 0.001104
104 0.001102
105 0.001096
106 0.001087
107 0.001081
108 0.001068
109 0.001063
110 0.001062
111 0.001056
112 0.001043
113 0.001057
114 0.001068
115 0.001079
116 0.001093
117 0.001117
118 0.001119
119 0.001110
120 0.001088
121 0.001059
122 0.001032
123 0.001016
124 0.001011
125 0.001006
126 0.001016
127 0.001027
128 0.001031
129 0.001035
130 0.001043
131 0.001056
132 0.001079
133 0.001110
134 0.001123
135 0.001126
136 0.001122
137 0.001124
138 0.001116
139 0.001114
140 0.001107
141 0.001103
142 0.001088
143 0.001093
144 0.001101
145 0.001099
146 0.001083
147 0.001086
148 0.001088
149 0.001078
150 0.001068
151 0.001050
152 0.001030
153 0.001016
154 0.001004
155 0.000992
156 0.000983
157 0.000961
158 0.000962
159 0.000967
160 0.000972
161 0.000972
162 0.000982
163 0.000984
164 0.000971
165 0.000958
166 0.000939
167 0.000919
168 0.000906
169 0.000905
170 0.000912
171 0.000911
172 0.000924
173 0.000925
174 0.000920
175 0.000919
176 0.000914
177 0.000911
178 0.000915
179 0.000916
180 0.000910
181 0.000903
182 0.000900
183 0.000891
184 0.000892
185 0.000892
186 0.000893
187 0.000889
188 0.000887
189 0.000886
190 0.000898
191 0.000918
192 0.000941
193 0.000956
194 0.000948
195 0.000942
196 0.000936
197 0.000914
198 0.000892
199 0.000875
200 0.000866
201 0.000851
202 0.000841
203 0.000825
204 0.000825
205 0.000829
206 0.000841
207 0.000849
208 0.000856
209 0.000853
210 0.000867
211 0.000878
212 0.000900
213 0.000917
214 0.000924
215 0.000915
216 0.000889
217 0.000858
218 0.000829
219 0.000814
220 0.000806
221 0.000803
222 0.000801
223 0.000802
224 0.000796
225 0.000794
226 0.000788
227 0.000792
228 0.000807
229 0.000809
230 0.000818
231 0.000833
232 0.000839
233 0.000853
234 0.000861
235 0.000866
236 0.000860
237 0.000855
238 0.000845
239 0.000833
240 0.000829
241 0.000824
242 0.000815
243 0.000814
244 0.000816
245 0.000814
246 0.000817
247 0.000819
248 0.000811
249 0.000801
250 0.000808
251 0.000811
252 0.000820
253 0.000825
254 0.000821
255 0.000811
256 0.000798
257 0.000781
258 0.000774
259 0.000766
260 0.000765
261 0.000770
262 0.000757
263 0.000735
264 0.000712
265 0.000694
266 0.000690
267 0.000691
268 0.000685
269 0.000680
270 0.000673
271 0.000668
272 0.000661
273 0.000661
274 0.000660
275 0.000656
276 0.000670
277 0.000680
278 0.000694
279 0.000696
280 0.000718
281 0.000722
282 0.000737
283 0.000738
284 0.000740
285 0.000741
286 0.000736
287 0.000743
288 0.000756
289 0.000765
290 0.000777
291 0.000768
292 0.000765
293 0.000755
294 0.000756
295 0.000757
296 0.000768
297 0.000772
298 0.000771
299 0.000765
300 0.000751
301 0.000743
302 0.000733
303 0.000722
304 0.000715
305 0.000708
306 0.000709
307 0.000710
308 0.000711
309 0.000708
310 0.000709
311 0.000705
312 0.000692
313 0.000679
314 0.000649
315 0.000632
316 0.000616
317 0.000612
318 0.000621
319 0.000619
320 0.000617
321 0.000621
322 0.000620
323 0.000629
324 0.000629
325 0.000638
326 0.000642
327 0.000649
328 0.000672
329 0.000677
330 0.000676
331 0.000680
332 0.000684
333 0.000678
334 0.000657
335 0.000638
336 0.000620
337 0.000615
338 0.000616
339 0.000619
340 0.000625
341 0.000640
342 0.000643
343 0.000634
344 0.000639
345 0.000640
346 0.000644
347 0.000648
348 0.000654
349 0.000654
350 0.000632
351 0.000613
352 0.000589
353 0.000568
354 0.000557
355 0.000554
356 0.000555
357 0.000543
358 0.000534
359 0.000519
360 0.000508
361 0.000500
362 0.000492
363 0.000489
364 0.000492
365 0.000492
366 0.000491
367 0.000480
368 0.000475
369 0.000478
370 0.000485
371 0.000485
372 0.000488
373 0.000479
374 0.000478
375 0.000468
376 0.000470
377 0.000468
378 0.000470
379 0.000468
380 0.000458
381 0.000444
382 0.000431
383 0.000436
384 0.000450
385 0.000460
386 0.000475
387 0.000496
388 0.000503
389 0.000513
390 0.000508
391 0.000509
392 0.000498
393 0.000486
394 0.000484
395 0.000475
396 0.000474
397 0.000478
398 0.000476
399 0.000473
400 0.000473
401 0.000473
402 0.000466
403 0.000467
404 0.000472
405 0.000480
406 0.000493
407 0.000505
408 0.000502
409 0.000499
410 0.000485
411 0.000470
412 0.000468
413 0.000467
414 0.000468
415 0.000473
416 0.000462
417 0.000455
418 0.000438
419 0.000418
420 0.000414
421 0.000421
422 0.000426
423 0.000439
424 0.000461
425 0.000476
426 0.000483
427 0.000493
428 0.000495
429 0.000499
430 0.000500
431 0.000495
432 0.000493
433 0.000493
434 0.000490
435 0.000493
436 0.000494
437 0.000493
438 0.000498
439 0.000496
440 0.000496
441 0.000502
442 0.000502
443 0.000509
444 0.000513
445 0.000511
446 0.000518
447 0.000521
448 0.000518
449 0.000507
450 0.000487
451 0.000467
452 0.000449
453 0.000427
454 0.000412
455 0.000400
456 0.000397
457 0.000383
458 0.000377
459 0.000371
460 0.000366
461 0.000366
462 0.000365
463 0.000358
464 0.000357
465 0.000361
466 0.000372
467 0.000366
468 0.000365
469 0.000364
470 0.000353
471 0.000355
472 0.000359
473 0.000367
474 0.000376
475 0.000389
476 0.000406
477 0.000418
478 0.000419
479 0.000419
480 0.000415
481 0.000427
482 0.000434
483 0.000446
484 0.000452
485 0.000448
486 0.000453
487 0.000461
488 0.000481
489 0.000500
490 0.000511
491 0.000524
492 0.000531
493 0.000535
494 0.000536
495 0.000527
496 0.000517
497 0.000508
498 0.000496
499 0.000485
500 0.000476
501 0.000464
502 0.000455
503 0.000451
504 0.000448
505 0.000439
506 0.000423
507 0.000409
508 0.000404
509 0.000404
510 0.000401
511 0.000408
512 0.000401
513 0.000395
514 0.000396
515 0.000386
516 0.000379
517 0.000380
518 0.000374
519 0.000374
520 0.000368
521 0.000370
522 0.000375
523 0.000379
524 0.000380
525 0.000371
526 0.000353
527 0.000334
528 0.000324
529 0.000315
530 0.000306
531 0.000300
532 0.000310
533 0.000316
534 0.000326
535 0.000334
536 0.000330
537 0.000328
538 0.000330
539 0.000339
540 0.000347
541 0.000354
542 0.000368
543 0.000373
544 0.000365
545 0.000348
546 0.000331
547 0.000308
548 0.000289
549 0.000271
550 0.000265
551 0.000249
552 0.000234
553 0.000221
554 0.000212
555 0.000209
556 0.000222
557 0.000231
558 0.000238
559 0.000238
560 0.000245
561 0.000249
562 0.000263
563 0.000268
564 0.000275
565 0.000285
566 0.000290
567 0.000293
568 0.000290
569 0.000289
570 0.000291
571 0.000285
572 0.000279
573 0.000280
574 0.000281
575 0.000288
576 0.000301
577 0.000306
578 0.000308
579 0.000310
580 0.000316
581 0.000323
582 0.000335
583 0.000342
584 0.000353
585 0.000351
586 0.000353
587 0.000359
588 0.000362
589 0.000355
590 0.000347
591 0.000341
592 0.000331
593 0.000320
594 0.000305
595 0.000291
596 0.000272
597 0.000260
598 0.000250
599 0.000248
600 0.000247
601 0.000252
602 0.000268
603 0.000281
604 0.000284
605 0.000286
606 0.000282
607 0.000288
608 0.000300
609 0.000312
610 0.000320
611 0.000319
612 0.000316
613 0.000314
614 0.000320
615 0.000322
616 0.000318
617 0.000322
618 0.000330
619 0.000340
620 0.000346
621 0.000352
622 0.000360
623 0.000358
624 0.000362
625 0.000362
626 0.000356
627 0.000355
628 0.000355
629 0.000363
630 0.000361
631 0.000371
632 0.000374
633 0.000373
634 0.000378
635 0.000392
636 0.000407
637 0.000413
638 0.000422
639 0.000424
640 0.000421
641 0.000419
642 0.000407
643 0.000398
644 0.000388
645 0.000373
646 0.000370
647 0.000363
648 0.000356
649 0.000350
650 0.000346
651 0.000344
652 0.000351
653 0.000354
654 0.000356
655 0.000362
656 0.000373
657 0.000375
658 0.000376
659 0.000377
660 0.000376
661 0.000380
662 0.000384
663 0.000379
664 0.000365
665 0.000350
666 0.000335
667 0.000328
668 0.000324
669 0.000327
670 0.000316
671 0.000304
672 0.000295
673 0.000288
674 0.000278
675 0.000270
676 0.000266
677 0.000267
678 0.000261
679 0.000259
680 0.000255
681 0.000253
682 0.000250
683 0.000256
684 0.000258
685 0.000255
686 0.000253
687 0.000252
688 0.000254
689 0.000260
690 0.000259
691 0.000259
692 0.000252
693 0.000247
694 0.000252
695 0.000257
696 0.000266
697 0.000274
698 0.000277
699 0.000278
700 0.000271
701 0.000265
702 0.000266
703 0.000265
704 0.000270
705 0.000273
706 0.000273
707 0.000268
708 0.000262
709 0.000260
710 0.000261
711 0.000261
712 0.000264
713 0.000259
714 0.000260
715 0.000263
716 0.000267
717 0.000267
718 0.000263
719 0.000262
720 0.000263
721 0.000267
722 0.000271
723 0.000274
724 0.000275
725 0.000283
726 0.000279
727 0.000274
728 0.000273
729 0.000269
730 0.000261
731 0.000259
732 0.000261
733 0.000258
734 0.000258
735 0.000262
736 0.000267
737 0.000269
738 0.000272
739 0.000271
740 0.000267
741 0.000256
742 0.000257
743 0.000255
744 0.000252
745 0.000250
746 0.000253
747 0.000249
748 0.000253
749 0.000255
750 0.000256
751 0.000253
752 0.000255
753 0.000258
754 0.000261
755 0.000265
756 0.000269
757 0.000267
758 0.000262
759 0.000251
760 0.000235
761 0.000221
762 0.000215
763 0.000209
764 0.000208
765 0.000209
766 0.000211
767 0.000208
768 0.000202
769 0.000202
770 0.000201
771 0.000201
772 0.000210
773 0.000218
774 0.000222
775 0.000229
776 0.000233
777 0.000232
778 0.000227
779 0.000226
780 0.000219
781 0.000212
782 0.000206
783 0.000203
784 0.000200
785 0.000198
786 0.000192
787 0.000185
788 0.000183
789 0.000181
790 0.000182
791 0.000183
792 0.000178
793 0.000178
794 0.000178
795 0.000179
796 0.000182
797 0.000179
798 0.000176
799 0.000174
800 0.000172
801 0.000171
802 0.000167
803 0.000162
804 0.000154
805 0.000142
806 0.000129
807 0.000116
808 0.000103
809 0.000096
