# i correlation
1 0.002227
2 0.002101
3 0.002008
4 0.001940
5 0.001878
6 0.001834
7 0.001790
8 0.001739
9 0.001697
10 0.001668
11 0.001643
12 0.001619
13 0.001600
14 0.001580
15 0.001565
16 0.001555
17 0.001547
18 0.001550
19 0.001543
20 0.001543
21 0.001539
22 0.001517
23 0.001499
24 0.001493
25 0.001488
26 0.001484
27 0.001482
28 0.001472
29 0.001466
30 0.001454
31 0.001442
32 0.001426
33 0.001418
34 0.001401
35 0.001384
36 0.001383
37 0.001392
38 0.001401
39 0.001416
40 0.001424
41 0.001437
42 0.001448
43 0.001444
44 0.001450
45 0.001459
46 0.001469
47 0.001480
48 0.001482
49 0.001472
50 0.001450
51 0.001422
52 0.001393
53 0.001383
54 0.001374
55 0.001356
56 0.001344
57 0.001346
58 0.001344
59 0.001333
60 0.001327
61 0.001318
62 0.001307
63 0.001310
64 0.001314
65 0.001312
66 0.001300
67 0.001291
68 0.001292
69 0.001284
70 0.001279
71 0.001280
72 0.001274
73 0.001262
74 0.001268
75 0.001271
76 0.001259
77 0.001245
78 0.001248
79 0.001244
80 0.001234
81 0.001219
82 0.001207
83 0.001201
84 0.001208
85 0.001211
86 0.001215
87 0.001210
88 0.001203
89 0.001187
90 0.001183
91 0.001185
92 0.001191
93 0.001193
94 0.001197
95 0.001210
96 0.001214
97 0.001211
98 0.001206
99 0.001204
100 0.001196
101 0.001188
102 0.001173
103 0.001163
104 0.001167
105 0.001181
106 0.001185
107 0.001181
108 0.001172
109 0.001143
110 0.001121
111 0.001115
112 0.001112
113 0.001119
114 0.001118
115 0.001110
116 0.001119
117 0.001138
118 0.001138
119 0.001127
120 0.001121
121 0.001123
122 0.001131
123 0.001128
124 0.001142
125 0.001152
126 0.001149
127 0.001133
128 0.001122
129 0.001108
130 0.001078
131 0.001057
132 0.001059
133 0.001063
134 0.001061
135 0.001052
136 0.001042
137 0.001034
138 0.001029
139 0.001027
140 0.001025
141 0.001031
142 0.001046
143 0.001063
144 0.001079
145 0.001086
146 0.001084
147 0.001066
148 0.001046
149 0.001034
150 0.001029
151 0.001024
152 0.001019
153 0.001025
154 0.001039
155 0.001046
156 0.001048
157 0.001041
158 0.001037
159 0.001037
160 0.001046
161 0.001059
162 0.001058
163 0.001047
164 0.001029
165 0.001014
166 0.001013
167 0.001012
168 0.001000
169 0.000984
170 0.000985
171 0.000987
172 0.000985
173 0.000967
174 0.000947
175 0.000935
176 0.000929
177 0.000922
178 0.000912
179 0.000906
180 0.000893
181 0.000892
182 0.000893
183 0.000902
184 0.000894
185 0.000876
186 0.000864
187 0.000851
188 0.000850
189 0.000841
190 0.000840
191 0.000847
192 0.000859
193 0.000858
194 0.000839
195 0.000823
196 0.000822
197 0.000833
198 0.000841
199 0.000854
200 0.000873
201 0.000882
202 0.000882
203 0.000895
204 0.000902
205 0.000891
206 0.000872
207 0.000855
208 0.000844
209 0.000834
210 0.000815
211 0.000793
212 0.000789
213 0.000781
214 0.000770
215 0.000751
216 0.000739
217 0.000739
218 0.000737
219 0.000731
220 0.000724
221 0.000721
222 0.000729
223 0.000723
224 0.000734
225 0.000740
226 0.000731
227 0.000722
228 0.000724
229 0.000735
230 0.000746
231 0.000749
232 0.000742
233 0.000743
234 0.000742
235 0.000742
236 0.000737
237 0.000732
238 0.000738
239 0.000750
240 0.000762
241 0.000764
242 0.000769
243 0.000759
244 0.000755
245 0.000756
246 0.000765
247 0.000763
248 0.000766
249 0.000777
250 0.000781
251 0.000795
252 0.000798
253 0.000792
254 0.000787
255 0.000782
256 0.000772
257 0.000770
258 0.000772
259 0.000768
260 0.000754
261 0.000758
262 0.000759
263 0.000769
264 0.000755
265 0.000743
266 0.000741
267 0.000745
268 0.000751
269 0.000756
270 0.000751
271 0.000753
272 0.000747
273 0.000745
274 0.000729
275 0.000721
276 0.000726
277 0.000738
278 0.000754
279 0.000769
280 0.000767
281 0.000767
282 0.000770
283 0.000775
284 0.000776
285 0.000772
286 0.000772
287 0.000777
288 0.000787
289 0.000783
290 0.000769
291 0.000755
292 0.000752
293 0.000754
294 0.000752
295 0.000743
296 0.000741
297 0.000742
298 0.000740
299 0.000746
300 0.000763
301 0.000759
302 0.000757
303 0.000754
304 0.000771
305 0.000796
306 0.000807
307 0.000803
308 0.000806
309 0.000797
310 0.000783
311 0.000771
312 0.000776
313 0.000767
314 0.000752
315 0.000743
316 0.000736
317 0.000736
318 0.000723
319 0.000709
320 0.000702
321 0.000696
322 0.000688
323 0.000682
324 0.000672
325 0.000672
326 0.000683
327 0.000685
328 0.000683
329 0.000682
330 0.000686
331 0.000669
332 0.000656
333 0.000656
334 0.000650
335 0.000633
336 0.000614
337 0.000599
338 0.000576
339 0.000562
340 0.000539
341 0.000536
342 0.000537
343 0.000543
344 0.000550
345 0.000553
346 0.000558
347 0.000565
348 0.000562
349 0.000567
350 0.000570
351 0.000567
352 0.000555
353 0.000562
354 0.000571
355 0.000580
356 0.000584
357 0.000588
358 0.000593
359 0.000597
360 0.000589
361 0.000580
362 0.000583
363 0.000581
364 0.000581
365 0.000569
366 0.000551
367 0.000537
368 0.000522
369 0.000510
370 0.000499
371 0.000492
372 0.000488
373 0.000489
374 0.000501
375 0.000514
376 0.000528
377 0.000535
378 0.000527
379 0.000516
380 0.000517
381 0.000514
382 0.000512
383 0.000513
384 0.000519
385 0.000515
386 0.000515
387 0.000516
388 0.000512
389 0.000502
390 0.000497
391 0.000493
392 0.000492
393 0.000485
394 0.000480
395 0.000481
396 0.000482
397 0.000477
398 0.000477
399 0.000462
400 0.000468
401 0.000483
402 0.000499
403 0.000506
404 0.000520
405 0.000544
406 0.000559
407 0.000570
408 0.000579
409 0.000576
410 0.000569
411 0.000568
412 0.000571
413 0.000572
414 0.000567
415 0.000557
416 0.000539
417 0.000527
418 0.000516
419 0.000511
420 0.000500
421 0.000511
422 0.000531
423 0.000540
424 0.000546
425 0.000555
426 0.000554
427 0.000555
428 0.000555
429 0.000555
430 0.000558
431 0.000560
432 0.000557
433 0.000561
434 0.000574
435 0.000572
436 0.000556
437 0.000547
438 0.000541
439 0.000537
440 0.000533
441 0.000531
442 0.000521
443 0.000509
444 0.000499
445 0.000492
446 0.000485
447 0.000488
448 0.000497
449 0.000510
450 0.000516
451 0.000529
452 0.000541
453 0.000545
454 0.000563
455 0.000587
456 0.000592
457 0.000582
458 0.000570
459 0.000562
460 0.000553
461 0.000559
462 0.000557
463 0.000552
464 0.000540
465 0.000532
466 0.000540
467 0.000545
468 0.000547
469 0.000548
470 0.000550
471 0.000544
472 0.000549
473 0.000544
474 0.000533
475 0.000530
476 0.000527
477 0.000521
478 0.000508
479 0.000504
480 0.000501
481 0.000501
482 0.000498
483 0.000495
484 0.000488
485 0.000489
486 0.000489
487 0.000493
488 0.000495
489 0.000491
490 0.000485
491 0.000478
492 0.000467
493 0.000463
494 0.000452
495 0.000448
496 0.000450
497 0.000460
498 0.000458
499 0.000461
500 0.000472
501 0.000481
502 0.000486
503 0.000496
504 0.000501
505 0.000516
506 0.000525
507 0.000522
508 0.000521
509 0.000520
510 0.000516
511 0.000503
512 0.000496
513 0.000486
514 0.000473
515 0.000459
516 0.000457
517 0.000450
518 0.000452
519 0.000451
520 0.000450
521 0.000446
522 0.000447
523 0.000437
524 0.000425
525 0.000421
526 0.000422
527 0.000417
528 0.000412
529 0.000415
530 0.000425
531 0.000423
532 0.000425
533 0.000425
534 0.000430
535 0.000432
536 0.000434
537 0.000432
538 0.000427
539 0.000432
540 0.000438
541 0.000437
542 0.000433
543 0.000438
544 0.000437
545 0.000440
546 0.000448
547 0.000460
548 0.000470
549 0.000474
550 0.000483
551 0.000494
552 0.000503
553 0.000508
554 0.000516
555 0.000519
556 0.000528
557 0.000526
558 0.000536
559 0.000543
560 0.000533
561 0.000528
562 0.000510
563 0.000498
564 0.000481
565 0.000476
566 0.000476
567 0.000476
568 0.000471
569 0.000463
570 0.000455
571 0.000454
572 0.000451
573 0.000452
574 0.000456
575 0.000456
576 0.000455
577 0.000450
578 0.000443
579 0.000441
580 0.000441
581 0.000442
582 0.000435
583 0.000438
584 0.000448
585 0.000456
586 0.000456
587 0.000451
588 0.000447
589 0.000449
590 0.000446
591 0.000437
592 0.000425
593 0.000423
594 0.000427
595 0.000420
596 0.000410
597 0.000399
598 0.000395
599 0.000391
600 0.000391
601 0.000392
602 0.000390
603 0.000379
604 0.000373
605 0.000377
606 0.000379
607 0.000376
608 0.000373
609 0.000366
610 0.000362
611 0.000363
612 0.000366
613 0.000375
614 0.000375
615 0.000374
616 0.000370
617 0.000364
618 0.000358
619 0.000348
620 0.000337
621 0.000323
622 0.000319
623 0.000324
624 0.000326
625 0.000331
626 0.000342
627 0.000357
628 0.000361
629 0.000362
630 0.000368
631 0.000371
632 0.000372
633 0.000380
634 0.000384
635 0.000376
636 0.000361
637 0.000346
638 0.000338
639 0.000329
640 0.000323
641 0.000314
642 0.000304
643 0.000286
644 0.000271
645 0.000259
646 0.000253
647 0.000252
648 0.000246
649 0.000238
650 0.000231
651 0.000224
652 0.000215
653 0.000217
654 0.000218
655 0.000214
656 0.000210
657 0.000205
658 0.000203
659 0.000210
660 0.000210
661 0.000206
662 0.000196
663 0.000193
664 0.000198
665 0.000201
666 0.000206
667 0.000214
668 0.000217
669 0.000226
670 0.000230
671 0.000234
672 0.000240
673 0.000249
674 0.000251
675 0.000254
676 0.000255
677 0.000252
678 0.000248
679 0.000247
680 0.000250
681 0.000247
682 0.000241
683 0.000235
684 0.000231
685 0.000226
686 0.000217
687 0.000214
688 0.000220
689 0.000223
690 0.000232
691 0.000237
692 0.000244
693 0.000239
694 0.000239
695 0.000241
696 0.000239
697 0.000236
698 0.000236
699 0.000229
700 0.000230
701 0.000236
702 0.000235
703 0.000226
704 0.000219
705 0.000207
706 0.000200
707 0.000200
708 0.000200
709 0.000195
710 0.000198
711 0.000199
712 0.000201
713 0.000207
714 0.000215
715 0.000217
716 0.000212
717 0.000205
718 0.000201
719 0.000200
720 0.000201
721 0.000203
722 0.000208
723 0.000201
724 0.000191
725 0.000183
726 0.000181
727 0.000177
728 0.000168
729 0.000166
730 0.000162
731 0.000162
732 0.000160
733 0.000163
734 0.000161
735 0.000164
736 0.000170
737 0.000174
738 0.000173
739 0.000178
740 0.000187
741 0.000190
742 0.000187
743 0.000184
744 0.000181
745 0.000183
746 0.000180
747 0.000178
748 0.000180
749 0.000182
750 0.000176
751 0.000173
752 0.000172
753 0.000168
754 0.000168
755 0.000172
756 0.000176
757 0.000173
758 0.000174
759 0.000176
760 0.000180
761 0.000183
762 0.000184
763 0.000181
764 0.000180
765 0.000174
766 0.000169
767 0.000165
768 0.000162
769 0.000155
770 0.000152
771 0.000150
772 0.000148
773 0.000145
774 0.000149
775 0.000150
776 0.000145
777 0.000140
778 0.000137
779 0.000135
780 0.000132
781 0.000132
782 0.000128
783 0.000128
784 0.000129
785 0.000135
786 0.000138
787 0.000143
788 0.000145
789 0.000153
790 0.000158
791 0.000162
792 0.000164
793 0.000167
794 0.000169
795 0.000167
796 0.000162
797 0.000160
798 0.000163
799 0.000163
800 0.000160
801 0.000156
802 0.000147
803 0.000137
804 0.000126
805 0.000120
806 0.000108
807 0.000098
808 0.000095
809 0.000089
