# i correlation
1 0.001939
2 0.001826
3 0.001739
4 0.001672
5 0.001609
6 0.001554
7 0.001503
8 0.001458
9 0.001410
10 0.001367
11 0.001333
12 0.001297
13 0.001271
14 0.001250
15 0.001231
16 0.001224
17 0.001233
18 0.001241
19 0.001241
20 0.001239
21 0.001236
22 0.001228
23 0.001223
24 0.001233
25 0.001250
26 0.001253
27 0.001267
28 0.001277
29 0.001284
30 0.001282
31 0.001278
32 0.001277
33 0.001269
34 0.001257
35 0.001255
36 0.001253
37 0.001252
38 0.001244
39 0.001238
40 0.001226
41 0.001215
42 0.001202
43 0.001185
44 0.001175
45 0.001166
46 0.001161
47 0.001149
48 0.001131
49 0.001119
50 0.001104
51 0.001072
52 0.001046
53 0.001036
54 0.001034
55 0.001033
56 0.001025
57 0.001017
58 0.001013
59 0.001008
60 0.001004
61 0.001003
62 0.000999
63 0.000986
64 0.000979
65 0.000971
66 0.000962
67 0.000943
68 0.000925
69 0.000906
70 0.000905
71 0.000902
72 0.000890
73 0.000884
74 0.000891
75 0.000898
76 0.000903
77 0.000903
78 0.000903
79 0.000904
80 0.000901
81 0.000903
82 0.000909
83 0.000910
84 0.000913
85 0.000924
86 0.000926
87 0.000937
88 0.000932
89 0.000927
90 0.000914
91 0.000902
92 0.000886
93 0.000870
94 0.000850
95 0.000841
96 0.000820
97 0.000799
98 0.000793
99 0.000793
100 0.000787
101 0.000783
102 0.000777
103 0.000765
104 0.000759
105 0.000746
106 0.000744
107 0.000735
108 0.000721
109 0.000711
110 0.000707
111 0.000708
112 0.000708
113 0.000701
114 0.000699
115 0.000699
116 0.000712
117 0.000716
118 0.000724
119 0.000738
120 0.000741
121 0.000730
122 0.000716
123 0.000707
124 0.000693
125 0.000686
126 0.000692
127 0.000701
128 0.000705
129 0.000702
130 0.000701
131 0.000700
132 0.000697
133 0.000688
134 0.000687
135 0.000679
136 0.000674
137 0.000669
138 0.000656
139 0.000642
140 0.000646
141 0.000647
142 0.000645
143 0.000646
144 0.000643
145 0.000638
146 0.000646
147 0.000661
148 0.000674
149 0.000693
150 0.000711
151 0.000726
152 0.000721
153 0.000722
154 0.000710
155 0.000702
156 0.000693
157 0.000693
158 0.000682
159 0.000668
160 0.000668
161 0.000666
162 0.000653
163 0.000647
164 0.000647
165 0.000651
166 0.000645
167 0.000636
168 0.000629
169 0.000624
170 0.000621
171 0.000627
172 0.000643
173 0.000651
174 0.000660
175 0.000673
176 0.000692
177 0.000702
178 0.000715
179 0.000712
180 0.000702
181 0.000693
182 0.000697
183 0.000700
184 0.000689
185 0.000674
186 0.000662
187 0.000654
188 0.000652
189 0.000657
190 0.000663
191 0.000653
192 0.000629
193 0.000618
194 0.000608
195 0.000610
196 0.000611
197 0.000615
198 0.000608
199 0.000595
200 0.000591
201 0.000596
202 0.000591
203 0.000597
204 0.000598
205 0.000604
206 0.000602
207 0.000615
208 0.000625
209 0.000619
210 0.000604
211 0.000587
212 0.000572
213 0.000557
214 0.000551
215 0.000558
216 0.000551
217 0.000542
218 0.000537
219 0.000533
220 0.000530
221 0.000522
222 0.000512
223 0.000503
224 0.000486
225 0.000489
226 0.000492
227 0.000498
228 0.000504
229 0.000505
230 0.000502
231 0.000500
232 0.000513
233 0.000531
234 0.000541
235 0.000564
236 0.000589
237 0.000607
238 0.000623
239 0.000629
240 0.000631
241 0.000626
242 0.000625
243 0.000615
244 0.000605
245 0.000589
246 0.000582
247 0.000572
248 0.000558
249 0.000541
250 0.000536
251 0.000524
252 0.000516
253 0.000512
254 0.000507
255 0.000495
256 0.000488
257 0.000469
258 0.000457
259 0.000449
260 0.000441
261 0.000437
262 0.000440
263 0.000440
264 0.000439
265 0.000438
266 0.000439
267 0.000446
268 0.000445
269 0.000447
270 0.000447
271 0.000447
272 0.000446
273 0.000438
274 0.000434
275 0.000440
276 0.000444
277 0.000450
278 0.000453
279 0.000455
280 0.000455
281 0.000450
282 0.000451
283 0.000459
284 0.000460
285 0.000453
286 0.000435
287 0.000415
288 0.000394
289 0.000369
290 0.000353
291 0.000346
292 0.000354
293 0.000362
294 0.000370
295 0.000379
296 0.000391
297 0.000406
298 0.000410
299 0.000413
300 0.000415
301 0.000418
302 0.000431
303 0.000439
304 0.000442
305 0.000435
306 0.000430
307 0.000427
308 0.000427
309 0.000432
310 0.000432
311 0.000422
312 0.000412
313 0.000405
314 0.000409
315 0.000407
316 0.000408
317 0.000418
318 0.000417
319 0.000411
320 0.000408
321 0.000415
322 0.000416
323 0.000423
324 0.000438
325 0.000463
326 0.000487
327 0.000501
328 0.000505
329 0.000504
330 0.000508
331 0.000516
332 0.000515
333 0.000503
334 0.000506
335 0.000516
336 0.000522
337 0.000531
338 0.000537
339 0.000543
340 0.000537
341 0.000528
342 0.000516
343 0.000506
344 0.000492
345 0.000478
346 0.000465
347 0.000451
348 0.000444
349 0.000437
350 0.000414
351 0.000402
352 0.000387
353 0.000392
354 0.000406
355 0.000420
356 0.000432
357 0.000444
358 0.000459
359 0.000467
360 0.000480
361 0.000493
362 0.000505
363 0.000514
364 0.000517
365 0.000517
366 0.000517
367 0.000517
368 0.000514
369 0.000515
370 0.000513
371 0.000504
372 0.000504
373 0.000500
374 0.000492
375 0.000488
376 0.000481
377 0.000466
378 0.000452
379 0.000451
380 0.000456
381 0.000462
382 0.000462
383 0.000461
384 0.000465
385 0.000476
386 0.000487
387 0.000495
388 0.000505
389 0.000507
390 0.000511
391 0.000513
392 0.000514
393 0.000518
394 0.000515
395 0.000507
396 0.000510
397 0.000508
398 0.000504
399 0.000505
400 0.000502
401 0.000504
402 0.000510
403 0.000517
404 0.000526
405 0.000527
406 0.000525
407 0.000522
408 0.000523
409 0.000524
410 0.000536
411 0.000547
412 0.000559
413 0.000576
414 0.000586
415 0.000592
416 0.000604
417 0.000605
418 0.000597
419 0.000592
420 0.000584
421 0.000575
422 0.000560
423 0.000544
424 0.000532
425 0.000524
426 0.000517
427 0.000513
428 0.000509
429 0.000503
430 0.000500
431 0.000486
432 0.000479
433 0.000479
434 0.000481
435 0.000485
436 0.000488
437 0.000492
438 0.000491
439 0.000486
440 0.000482
441 0.000484
442 0.000480
443 0.000491
444 0.000502
445 0.000508
446 0.000511
447 0.000510
448 0.000505
449 0.000496
450 0.000487
451 0.000488
452 0.000483
453 0.000479
454 0.000468
455 0.000461
456 0.000444
457 0.000444
458 0.000437
459 0.000429
460 0.000419
461 0.000413
462 0.000411
463 0.000404
464 0.000395
465 0.000390
466 0.000388
467 0.000390
468 0.000387
469 0.000377
470 0.000370
471 0.000365
472 0.000362
473 0.000356
474 0.000362
475 0.000370
476 0.000378
477 0.000377
478 0.000382
479 0.000389
480 0.000391
481 0.000395
482 0.000397
483 0.000396
484 0.000385
485 0.000375
486 0.000366
487 0.000366
488 0.000363
489 0.000361
490 0.000356
491 0.000359
492 0.000366
493 0.000364
494 0.000354
495 0.000348
496 0.000340
497 0.000330
498 0.000320
499 0.000323
500 0.000330
501 0.000326
502 0.000308
503 0.000304
504 0.000313
505 0.000311
506 0.000305
507 0.000301
508 0.000300
509 0.000300
510 0.000303
511 0.000307
512 0.000318
513 0.000318
514 0.000320
515 0.000320
516 0.000319
517 0.000327
518 0.000332
519 0.000327
520 0.000326
521 0.000320
522 0.000313
523 0.000298
524 0.000287
525 0.000281
526 0.000273
527 0.000263
528 0.000265
529 0.000261
530 0.000253
531 0.000241
532 0.000240
533 0.000242
534 0.000240
535 0.000240
536 0.000242
537 0.000253
538 0.000266
539 0.000275
540 0.000270
541 0.000262
542 0.000259
543 0.000257
544 0.000264
545 0.000270
546 0.000280
547 0.000282
548 0.000279
549 0.000269
550 0.000262
551 0.000252
552 0.000240
553 0.000239
554 0.000243
555 0.000235
556 0.000227
557 0.000226
558 0.000222
559 0.000210
560 0.000199
561 0.000189
562 0.000182
563 0.000187
564 0.000203
565 0.000218
566 0.000226
567 0.000235
568 0.000238
569 0.000241
570 0.000253
571 0.000269
572 0.000279
573 0.000281
574 0.000291
575 0.000294
576 0.000297
577 0.000296
578 0.000301
579 0.000302
580 0.000302
581 0.000299
582 0.000297
583 0.000288
584 0.000272
585 0.000259
586 0.000252
587 0.000247
588 0.000236
589 0.000226
590 0.000215
591 0.000207
592 0.000204
593 0.000210
594 0.000218
595 0.000222
596 0.000219
597 0.000214
598 0.000209
599 0.000214
600 0.000217
601 0.000218
602 0.000223
603 0.000226
604 0.000233
605 0.000236
606 0.000233
607 0.000232
608 0.000235
609 0.000238
610 0.000235
611 0.000234
612 0.000234
613 0.000231
614 0.000222
615 0.000216
616 0.000210
617 0.000204
618 0.000199
619 0.000204
620 0.000204
621 0.000201
622 0.000204
623 0.000202
624 0.000201
625 0.000189
626 0.000171
627 0.000154
628 0.000148
629 0.000143
630 0.000141
631 0.000142
632 0.000145
633 0.000148
634 0.000152
635 0.000156
636 0.000159
637 0.000157
638 0.000156
639 0.000161
640 0.000169
641 0.000178
642 0.000189
643 0.000194
644 0.000204
645 0.000199
646 0.000193
647 0.000184
648 0.000186
649 0.000184
650 0.000178
651 0.000171
652 0.000171
653 0.000165
654 0.000160
655 0.000160
656 0.000160
657 0.000163
658 0.000161
659 0.000155
660 0.000150
661 0.000148
662 0.000146
663 0.000148
664 0.000144
665 0.000141
666 0.000142
667 0.000136
668 0.000127
669 0.000120
670 0.000113
671 0.000110
672 0.000103
673 0.000089
674 0.000079
675 0.000072
676 0.000063
677 0.000051
678 0.000043
679 0.000041
680 0.000040
681 0.000043
682 0.000044
683 0.000047
684 0.000050
685 0.000056
686 0.000064
687 0.000069
688 0.000076
689 0.000084
690 0.000093
691 0.000092
692 0.000093
693 0.000093
694 0.000092
695 0.000090
696 0.000085
697 0.000084
698 0.000084
699 0.000078
700 0.000072
701 0.000069
702 0.000066
703 0.000050
704 0.000039
705 0.000024
706 0.000010
707 0.000001
708 -0.000010
709 -0.000024
710 -0.000034
711 -0.000038
712 -0.000045
713 -0.000050
714 -0.000054
715 -0.000053
716 -0.000052
717 -0.000058
718 -0.000064
719 -0.000068
720 -0.000060
721 -0.000049
722 -0.000037
723 -0.000030
724 -0.000027
725 -0.000022
726 -0.000020
727 -0.000014
728 -0.000014
729 -0.000010
730 -0.000005
731 -0.000001
732 -0.000003
733 -0.000003
734 -0.000003
735 -0.000006
736 -0.000004
737 -0.000003
738 -0.000012
739 -0.000018
740 -0.000024
741 -0.000032
742 -0.000033
743 -0.000035
744 -0.000037
745 -0.000039
746 -0.000043
747 -0.000039
748 -0.000036
749 -0.000039
750 -0.000036
751 -0.000034
752 -0.000035
753 -0.000032
754 -0.000027
755 -0.000019
756 -0.000017
757 -0.000020
758 -0.000025
759 -0.000026
760 -0.000025
761 -0.000022
762 -0.000015
763 -0.000010
764 -0.000008
765 -0.000010
766 -0.000011
767 -0.000014
768 -0.000017
769 -0.000021
770 -0.000027
771 -0.000028
772 -0.000027
773 -0.000028
774 -0.000031
775 -0.000029
776 -0.000025
777 -0.000026
778 -0.000030
779 -0.000031
780 -0.000029
781 -0.000025
782 -0.000018
783 -0.000006
784 0.000007
785 0.000016
786 0.000022
787 0.000026
788 0.000024
789 0.000021
790 0.000017
791 0.000011
792 0.000013
793 0.000013
794 0.000011
795 0.000011
796 0.000007
797 0.000004
798 -0.000000
799 -0.000005
800 -0.000006
801 -0.000003
802 0.000001
803 0.000001
804 0.000004
805 0.000000
806 0.000000
807 -0.000001
808 0.000001
809 0.000004
