# i correlation
1 0.002033
2 0.001919
3 0.001827
4 0.001739
5 0.001679
6 0.001640
7 0.001607
8 0.001578
9 0.001546
10 0.001514
11 0.001500
12 0.001488
13 0.001482
14 0.001480
15 0.001474
16 0.001467
17 0.001460
18 0.001451
19 0.001431
20 0.001423
21 0.001412
22 0.001399
23 0.001381
24 0.001357
25 0.001333
26 0.001315
27 0.001317
28 0.001320
29 0.001341
30 0.001358
31 0.001368
32 0.001379
33 0.001376
34 0.001371
35 0.001375
36 0.001379
37 0.001372
38 0.001369
39 0.001367
40 0.001356
41 0.001341
42 0.001324
43 0.001308
44 0.001296
45 0.001289
46 0.001276
47 0.001270
48 0.001266
49 0.001263
50 0.001263
51 0.001269
52 0.001275
53 0.001273
54 0.001268
55 0.001269
56 0.001275
57 0.001266
58 0.001260
59 0.001258
60 0.001238
61 0.001203
62 0.001173
63 0.001152
64 0.001127
65 0.001096
66 0.001068
67 0.001055
68 0.001054
69 0.001046
70 0.001049
71 0.001048
72 0.001057
73 0.001062
74 0.001066
75 0.001072
76 0.001073
77 0.001071
78 0.001064
79 0.001053
80 0.001047
81 0.001031
82 0.001016
83 0.001010
84 0.001009
85 0.001012
86 0.001009
87 0.001007
88 0.001009
89 0.001018
90 0.001034
91 0.001043
92 0.001055
93 0.001058
94 0.001063
95 0.001065
96 0.001051
97 0.001039
98 0.001040
99 0.001032
100 0.001021
101 0.001012
102 0.000994
103 0.000988
104 0.000993
105 0.001001
106 0.000997
107 0.000988
108 0.000973
109 0.000967
110 0.000972
111 0.000963
112 0.000965
113 0.000955
114 0.000944
115 0.000937
116 0.000926
117 0.000908
118 0.000892
119 0.000887
120 0.000872
121 0.000863
122 0.000850
123 0.000847
124 0.000848
125 0.000843
126 0.000848
127 0.000870
128 0.000877
129 0.000888
130 0.000898
131 0.000894
132 0.000894
133 0.000896
134 0.000904
135 0.000916
136 0.000917
137 0.000924
138 0.000928
139 0.000925
140 0.000920
141 0.000912
142 0.000901
143 0.000890
144 0.000877
145 0.000860
146 0.000858
147 0.000857
148 0.000858
149 0.000866
150 0.000870
151 0.000867
152 0.000862
153 0.000848
154 0.000836
155 0.000820
156 0.000807
157 0.000802
158 0.000797
159 0.000789
160 0.000774
161 0.000760
162 0.000747
163 0.000740
164 0.000733
165 0.000726
166 0.000723
167 0.000720
168 0.000720
169 0.000723
170 0.000722
171 0.000727
172 0.000725
173 0.000716
174 0.000712
175 0.000700
176 0.000680
177 0.000660
178 0.000645
179 0.000642
180 0.000639
181 0.000631
182 0.000626
183 0.000622
184 0.000619
185 0.000642
186 0.000665
187 0.000687
188 0.000706
189 0.000719
190 0.000741
191 0.000763
192 0.000767
193 0.000759
194 0.000749
195 0.000741
196 0.000731
197 0.000724
198 0.000714
199 0.000719
200 0.000722
201 0.000725
202 0.000721
203 0.000714
204 0.000705
205 0.000695
206 0.000693
207 0.000698
208 0.000715
209 0.000719
210 0.000720
211 0.000711
212 0.000696
213 0.000676
214 0.000670
215 0.000666
216 0.000649
217 0.000635
218 0.000626
219 0.000611
220 0.000604
221 0.000615
222 0.000636
223 0.000644
224 0.000653
225 0.000659
226 0.000663
227 0.000663
228 0.000661
229 0.000660
230 0.000669
231 0.000675
232 0.000685
233 0.000690
234 0.000705
235 0.000706
236 0.000701
237 0.000685
238 0.000674
239 0.000669
240 0.000663
241 0.000666
242 0.000677
243 0.000681
244 0.000694
245 0.000703
246 0.000696
247 0.000693
248 0.000683
249 0.000668
250 0.000653
251 0.000643
252 0.000626
253 0.000625
254 0.000626
255 0.000623
256 0.000618
257 0.000600
258 0.000574
259 0.000556
260 0.000539
261 0.000539
262 0.000545
263 0.000556
264 0.000569
265 0.000580
266 0.000584
267 0.000595
268 0.000598
269 0.000593
270 0.000586
271 0.000574
272 0.000561
273 0.000549
274 0.000539
275 0.000534
276 0.000526
277 0.000520
278 0.000517
279 0.000505
280 0.000505
281 0.000510
282 0.000505
283 0.000486
284 0.000478
285 0.000487
286 0.000498
287 0.000495
288 0.000484
289 0.000476
290 0.000471
291 0.000465
292 0.000457
293 0.000457
294 0.000455
295 0.000449
296 0.000451
297 0.000448
298 0.000447
299 0.000439
300 0.000435
301 0.000424
302 0.000414
303 0.000405
304 0.000399
305 0.000393
306 0.000390
307 0.000389
308 0.000380
309 0.000386
310 0.000385
311 0.000380
312 0.000387
313 0.000389
314 0.000384
315 0.000390
316 0.000392
317 0.000387
318 0.000387
319 0.000386
320 0.000400
321 0.000415
322 0.000418
323 0.000422
324 0.000422
325 0.000430
326 0.000443
327 0.000457
328 0.000469
329 0.000487
330 0.000488
331 0.000486
332 0.000480
333 0.000472
334 0.000465
335 0.000449
336 0.000433
337 0.000422
338 0.000419
339 0.000425
340 0.000435
341 0.000438
342 0.000432
343 0.000420
344 0.000413
345 0.000425
346 0.000434
347 0.000436
348 0.000441
349 0.000448
350 0.000450
351 0.000444
352 0.000428
353 0.000414
354 0.000407
355 0.000396
356 0.000384
357 0.000384
358 0.000388
359 0.000392
360 0.000400
361 0.000410
362 0.000417
363 0.000423
364 0.000427
365 0.000436
366 0.000446
367 0.000447
368 0.000450
369 0.000447
370 0.000451
371 0.000456
372 0.000465
373 0.000463
374 0.000454
375 0.000444
376 0.000445
377 0.000445
378 0.000448
379 0.000457
380 0.000460
381 0.000466
382 0.000470
383 0.000480
384 0.000483
385 0.000488
386 0.000496
387 0.000499
388 0.000497
389 0.000494
390 0.000496
391 0.000491
392 0.000479
393 0.000467
394 0.000457
395 0.000449
396 0.000445
397 0.000438
398 0.000422
399 0.000409
400 0.000397
401 0.000396
402 0.000396
403 0.000393
404 0.000388
405 0.000396
406 0.000399
407 0.000391
408 0.000390
409 0.000393
410 0.000396
411 0.000396
412 0.000388
413 0.000385
414 0.000379
415 0.000367
416 0.000355
417 0.000350
418 0.000348
419 0.000354
420 0.000356
421 0.000348
422 0.000341
423 0.000342
424 0.000349
425 0.000359
426 0.000372
427 0.000377
428 0.000377
429 0.000364
430 0.000351
431 0.000347
432 0.000342
433 0.000345
434 0.000353
435 0.000361
436 0.000357
437 0.000347
438 0.000336
439 0.000334
440 0.000339
441 0.000343
442 0.000351
443 0.000343
444 0.000332
445 0.000317
446 0.000306
447 0.000285
448 0.000272
449 0.000262
450 0.000258
451 0.000245
452 0.000238
453 0.000229
454 0.000216
455 0.000215
456 0.000223
457 0.000229
458 0.000233
459 0.000242
460 0.000249
461 0.000245
462 0.000242
463 0.000242
464 0.000254
465 0.000260
466 0.000266
467 0.000276
468 0.000283
469 0.000287
470 0.000297
471 0.000307
472 0.000312
473 0.000315
474 0.000305
475 0.000296
476 0.000292
477 0.000290
478 0.000289
479 0.000287
480 0.000283
481 0.000280
482 0.000275
483 0.000270
484 0.000265
485 0.000262
486 0.000254
487 0.000249
488 0.000246
489 0.000235
490 0.000228
491 0.000218
492 0.000198
493 0.000176
494 0.000154
495 0.000148
496 0.000145
497 0.000145
498 0.000150
499 0.000151
500 0.000157
501 0.000157
502 0.000150
503 0.000142
504 0.000126
505 0.000112
506 0.000101
507 0.000089
508 0.000089
509 0.000090
510 0.000086
511 0.000089
512 0.000098
513 0.000093
514 0.000094
515 0.000101
516 0.000109
517 0.000117
518 0.000126
519 0.000133
520 0.000146
521 0.000146
522 0.000145
523 0.000146
524 0.000149
525 0.000151
526 0.000143
527 0.000132
528 0.000119
529 0.000111
530 0.000114
531 0.000115
532 0.000125
533 0.000126
534 0.000110
535 0.000105
536 0.000097
537 0.000096
538 0.000091
539 0.000088
540 0.000088
541 0.000090
542 0.000085
543 0.000078
544 0.000074
545 0.000069
546 0.000066
547 0.000070
548 0.000075
549 0.000070
550 0.000064
551 0.000055
552 0.000042
553 0.000039
554 0.000045
555 0.000053
556 0.000058
557 0.000059
558 0.000059
559 0.000057
560 0.000059
561 0.000064
562 0.000075
563 0.000085
564 0.000091
565 0.000088
566 0.000085
567 0.000079
568 0.000082
569 0.000086
570 0.000086
571 0.000092
572 0.000097
573 0.000096
574 0.000093
575 0.000100
576 0.000112
577 0.000117
578 0.000121
579 0.000122
580 0.000126
581 0.000124
582 0.000126
583 0.000131
584 0.000131
585 0.000130
586 0.000119
587 0.000118
588 0.000115
589 0.000112
590 0.000108
591 0.000101
592 0.000095
593 0.000096
594 0.000101
595 0.000099
596 0.000109
597 0.000118
598 0.000129
599 0.000139
600 0.000153
601 0.000159
602 0.000170
603 0.000176
604 0.000175
605 0.000180
606 0.000184
607 0.000188
608 0.000180
609 0.000173
610 0.000169
611 0.000166
612 0.000168
613 0.000167
614 0.000176
615 0.000191
616 0.000203
617 0.000218
618 0.000229
619 0.000232
620 0.000240
621 0.000247
622 0.000246
623 0.000245
624 0.000240
625 0.000237
626 0.000234
627 0.000234
628 0.000233
629 0.000228
630 0.000220
631 0.000219
632 0.000225
633 0.000223
634 0.000223
635 0.000225
636 0.000228
637 0.000225
638 0.000220
639 0.000220
640 0.000216
641 0.000217
642 0.000213
643 0.000207
644 0.000198
645 0.000189
646 0.000180
647 0.000180
648 0.000181
649 0.000188
650 0.000191
651 0.000188
652 0.000191
653 0.000192
654 0.000193
655 0.000197
656 0.000202
657 0.000203
658 0.000209
659 0.000210
660 0.000213
661 0.000214
662 0.000218
663 0.000214
664 0.000212
665 0.000203
666 0.000195
667 0.000194
668 0.000191
669 0.000187
670 0.000193
671 0.000199
672 0.000204
673 0.000204
674 0.000213
675 0.000221
676 0.000230
677 0.000238
678 0.000245
679 0.000247
680 0.000246
681 0.000244
682 0.000247
683 0.000246
684 0.000243
685 0.000235
686 0.000231
687 0.000229
688 0.000234
689 0.000231
690 0.000229
691 0.000234
692 0.000235
693 0.000228
694 0.000220
695 0.000210
696 0.000201
697 0.000195
698 0.000187
699 0.000190
700 0.000190
701 0.000186
702 0.000180
703 0.000178
704 0.000182
705 0.000194
706 0.000214
707 0.000224
708 0.000235
709 0.000244
710 0.000247
711 0.000254
712 0.000266
713 0.000272
714 0.000272
715 0.000277
716 0.000276
717 0.000279
718 0.000281
719 0.000278
720 0.000273
721 0.000272
722 0.000267
723 0.000259
724 0.000254
725 0.000240
726 0.000232
727 0.000231
728 0.000229
729 0.000226
730 0.000226
731 0.000229
732 0.000235
733 0.000234
734 0.000234
735 0.000235
736 0.000237
737 0.000238
738 0.000237
739 0.000236
740 0.000234
741 0.000236
742 0.000238
743 0.000230
744 0.000230
745 0.000222
746 0.000216
747 0.000214
748 0.000208
749 0.000201
750 0.000197
751 0.000192
752 0.000184
753 0.000176
754 0.000172
755 0.000175
756 0.000179
757 0.000174
758 0.000163
759 0.000158
760 0.000150
761 0.000139
762 0.000140
763 0.000145
764 0.000149
765 0.000154
766 0.000157
767 0.000158
768 0.000164
769 0.000170
770 0.000172
771 0.000175
772 0.000174
773 0.000173
774 0.000170
775 0.000163
776 0.000158
777 0.000158
778 0.000150
779 0.000146
780 0.000146
781 0.000145
782 0.000141
783 0.000139
784 0.000137
785 0.000138
786 0.000138
787 0.000136
788 0.000133
789 0.000131
790 0.000129
791 0.000126
792 0.000125
793 0.000121
794 0.000119
795 0.000114
796 0.000109
797 0.000114
798 0.000119
799 0.000118
800 0.000118
801 0.000119
802 0.000115
803 0.000106
804 0.000100
805 0.000100
806 0.000097
807 0.000098
808 0.000095
809 0.000093
