# i correlation
1 0.001831
2 0.001711
3 0.001615
4 0.001523
5 0.001454
6 0.001390
7 0.001344
8 0.001302
9 0.001264
10 0.001233
11 0.001205
12 0.001184
13 0.001187
14 0.001198
15 0.001179
16 0.001151
17 0.001141
18 0.001138
19 0.001132
20 0.001120
21 0.001101
22 0.001081
23 0.001075
24 0.001076
25 0.001077
26 0.001071
27 0.001076
28 0.001089
29 0.001114
30 0.001131
31 0.001155
32 0.001175
33 0.001184
34 0.001194
35 0.001169
36 0.001142
37 0.001120
38 0.001111
39 0.001110
40 0.001095
41 0.001073
42 0.001054
43 0.001044
44 0.001030
45 0.001019
46 0.001013
47 0.001004
48 0.000992
49 0.000989
50 0.000989
51 0.000998
52 0.001006
53 0.001004
54 0.001000
55 0.000985
56 0.000961
57 0.000958
58 0.000958
59 0.000965
60 0.000973
61 0.000976
62 0.000967
63 0.000970
64 0.000970
65 0.000964
66 0.000958
67 0.000960
68 0.000963
69 0.000966
70 0.000961
71 0.000958
72 0.000959
73 0.000965
74 0.000966
75 0.000961
76 0.000941
77 0.000924
78 0.000904
79 0.000886
80 0.000882
81 0.000869
82 0.000860
83 0.000852
84 0.000854
85 0.000851
86 0.000840
87 0.000828
88 0.000831
89 0.000831
90 0.000828
91 0.000833
92 0.000835
93 0.000832
94 0.000822
95 0.000800
96 0.000773
97 0.000754
98 0.000741
99 0.000738
100 0.000736
101 0.000724
102 0.000717
103 0.000718
104 0.000714
105 0.000716
106 0.000722
107 0.000728
108 0.000732
109 0.000730
110 0.000724
111 0.000726
112 0.000730
113 0.000737
114 0.000764
115 0.000775
116 0.000771
117 0.000764
118 0.000751
119 0.000740
120 0.000729
121 0.000721
122 0.000724
123 0.000716
124 0.000711
125 0.000702
126 0.000691
127 0.000685
128 0.000684
129 0.000679
130 0.000667
131 0.000659
132 0.000641
133 0.000627
134 0.000617
135 0.000608
136 0.000605
137 0.000605
138 0.000605
139 0.000608
140 0.000613
141 0.000610
142 0.000604
143 0.000600
144 0.000602
145 0.000602
146 0.000602
147 0.000594
148 0.000588
149 0.000589
150 0.000602
151 0.000618
152 0.000636
153 0.000662
154 0.000684
155 0.000705
156 0.000703
157 0.000705
158 0.000704
159 0.000704
160 0.000714
161 0.000703
162 0.000689
163 0.000681
164 0.000673
165 0.000668
166 0.000649
167 0.000630
168 0.000614
169 0.000609
170 0.000593
171 0.000583
172 0.000579
173 0.000587
174 0.000597
175 0.000589
176 0.000583
177 0.000571
178 0.000566
179 0.000565
180 0.000556
181 0.000554
182 0.000550
183 0.000558
184 0.000565
185 0.000561
186 0.000571
187 0.000592
188 0.000607
189 0.000616
190 0.000622
191 0.000622
192 0.000621
193 0.000615
194 0.000606
195 0.000593
196 0.000587
197 0.000586
198 0.000596
199 0.000592
200 0.000601
201 0.000606
202 0.000604
203 0.000607
204 0.000602
205 0.000602
206 0.000604
207 0.000605
208 0.000607
209 0.000596
210 0.000590
211 0.000591
212 0.000588
213 0.000585
214 0.000595
215 0.000608
216 0.000605
217 0.000603
218 0.000598
219 0.000589
220 0.000587
221 0.000587
222 0.000592
223 0.000593
224 0.000588
225 0.000585
226 0.000585
227 0.000577
228 0.000583
229 0.000590
230 0.000600
231 0.000600
232 0.000594
233 0.000593
234 0.000588
235 0.000583
236 0.000574
237 0.000576
238 0.000571
239 0.000557
240 0.000540
241 0.000518
242 0.000508
243 0.000507
244 0.000512
245 0.000522
246 0.000526
247 0.000530
248 0.000528
249 0.000527
250 0.000525
251 0.000527
252 0.000526
253 0.000532
254 0.000538
255 0.000534
256 0.000528
257 0.000526
258 0.000519
259 0.000510
260 0.000492
261 0.000470
262 0.000458
263 0.000446
264 0.000447
265 0.000458
266 0.000462
267 0.000467
268 0.000473
269 0.000478
270 0.000474
271 0.000471
272 0.000477
273 0.000479
274 0.000468
275 0.000457
276 0.000443
277 0.000432
278 0.000425
279 0.000418
280 0.000409
281 0.000405
282 0.000420
283 0.000432
284 0.000436
285 0.000430
286 0.000421
287 0.000408
288 0.000406
289 0.000398
290 0.000392
291 0.000383
292 0.000366
293 0.000350
294 0.000330
295 0.000318
296 0.000324
297 0.000336
298 0.000347
299 0.000355
300 0.000353
301 0.000357
302 0.000360
303 0.000369
304 0.000378
305 0.000385
306 0.000394
307 0.000408
308 0.000412
309 0.000415
310 0.000429
311 0.000436
312 0.000442
313 0.000434
314 0.000439
315 0.000441
316 0.000442
317 0.000459
318 0.000464
319 0.000455
320 0.000453
321 0.000438
322 0.000427
323 0.000412
324 0.000403
325 0.000392
326 0.000376
327 0.000361
328 0.000348
329 0.000340
330 0.000348
331 0.000356
332 0.000346
333 0.000338
334 0.000331
335 0.000318
336 0.000314
337 0.000321
338 0.000323
339 0.000324
340 0.000325
341 0.000325
342 0.000327
343 0.000328
344 0.000339
345 0.000353
346 0.000357
347 0.000360
348 0.000368
349 0.000362
350 0.000360
351 0.000362
352 0.000343
353 0.000329
354 0.000319
355 0.000308
356 0.000296
357 0.000288
358 0.000292
359 0.000295
360 0.000300
361 0.000313
362 0.000329
363 0.000336
364 0.000329
365 0.000330
366 0.000317
367 0.000307
368 0.000296
369 0.000284
370 0.000277
371 0.000269
372 0.000266
373 0.000261
374 0.000254
375 0.000248
376 0.000248
377 0.000257
378 0.000253
379 0.000260
380 0.000266
381 0.000281
382 0.000280
383 0.000282
384 0.000293
385 0.000301
386 0.000300
387 0.000303
388 0.000309
389 0.000320
390 0.000334
391 0.000355
392 0.000364
393 0.000363
394 0.000370
395 0.000366
396 0.000353
397 0.000340
398 0.000336
399 0.000337
400 0.000329
401 0.000325
402 0.000321
403 0.000308
404 0.000300
405 0.000292
406 0.000280
407 0.000262
408 0.000247
409 0.000240
410 0.000238
411 0.000237
412 0.000242
413 0.000247
414 0.000241
415 0.000243
416 0.000237
417 0.000229
418 0.000234
419 0.000244
420 0.000245
421 0.000240
422 0.000240
423 0.000249
424 0.000263
425 0.000277
426 0.000283
427 0.000281
428 0.000288
429 0.000286
430 0.000285
431 0.000282
432 0.000281
433 0.000288
434 0.000292
435 0.000294
436 0.000296
437 0.000294
438 0.000298
439 0.000294
440 0.000278
441 0.000256
442 0.000243
443 0.000236
444 0.000232
445 0.000233
446 0.000231
447 0.000226
448 0.000222
449 0.000208
450 0.000190
451 0.000173
452 0.000167
453 0.000167
454 0.000168
455 0.000163
456 0.000158
457 0.000154
458 0.000159
459 0.000169
460 0.000165
461 0.000173
462 0.000195
463 0.000204
464 0.000216
465 0.000233
466 0.000241
467 0.000247
468 0.000252
469 0.000254
470 0.000268
471 0.000278
472 0.000295
473 0.000306
474 0.000304
475 0.000311
476 0.000324
477 0.000331
478 0.000326
479 0.000321
480 0.000319
481 0.000306
482 0.000296
483 0.000292
484 0.000297
485 0.000298
486 0.000292
487 0.000281
488 0.000270
489 0.000260
490 0.000250
491 0.000236
492 0.000213
493 0.000200
494 0.000190
495 0.000180
496 0.000175
497 0.000182
498 0.000195
499 0.000209
500 0.000218
501 0.000228
502 0.000229
503 0.000233
504 0.000245
505 0.000250
506 0.000245
507 0.000240
508 0.000239
509 0.000227
510 0.000217
511 0.000205
512 0.000194
513 0.000186
514 0.000183
515 0.000180
516 0.000183
517 0.000184
518 0.000190
519 0.000197
520 0.000199
521 0.000199
522 0.000202
523 0.000201
524 0.000188
525 0.000182
526 0.000169
527 0.000161
528 0.000160
529 0.000162
530 0.000165
531 0.000165
532 0.000169
533 0.000168
534 0.000167
535 0.000171
536 0.000179
537 0.000192
538 0.000197
539 0.000207
540 0.000213
541 0.000219
542 0.000224
543 0.000221
544 0.000219
545 0.000216
546 0.000215
547 0.000207
548 0.000205
549 0.000207
550 0.000214
551 0.000218
552 0.000223
553 0.000229
554 0.000232
555 0.000232
556 0.000235
557 0.000234
558 0.000225
559 0.000214
560 0.000204
561 0.000199
562 0.000192
563 0.000187
564 0.000187
565 0.000191
566 0.000187
567 0.000181
568 0.000179
569 0.000178
570 0.000182
571 0.000183
572 0.000180
573 0.000181
574 0.000183
575 0.000188
576 0.000194
577 0.000197
578 0.000196
579 0.000198
580 0.000194
581 0.000181
582 0.000172
583 0.000170
584 0.000174
585 0.000175
586 0.000169
587 0.000168
588 0.000174
589 0.000188
590 0.000201
591 0.000217
592 0.000231
593 0.000240
594 0.000249
595 0.000259
596 0.000262
597 0.000264
598 0.000267
599 0.000273
600 0.000278
601 0.000269
602 0.000262
603 0.000255
604 0.000250
605 0.000249
606 0.000236
607 0.000228
608 0.000220
609 0.000221
610 0.000215
611 0.000199
612 0.000190
613 0.000184
614 0.000181
615 0.000176
616 0.000179
617 0.000181
618 0.000175
619 0.000179
620 0.000171
621 0.000167
622 0.000168
623 0.000161
624 0.000162
625 0.000161
626 0.000164
627 0.000175
628 0.000190
629 0.000207
630 0.000224
631 0.000235
632 0.000237
633 0.000240
634 0.000246
635 0.000245
636 0.000245
637 0.000245
638 0.000248
639 0.000250
640 0.000246
641 0.000240
642 0.000227
643 0.000218
644 0.000216
645 0.000218
646 0.000219
647 0.000220
648 0.000222
649 0.000228
650 0.000237
651 0.000241
652 0.000239
653 0.000240
654 0.000243
655 0.000231
656 0.000224
657 0.000211
658 0.000209
659 0.000212
660 0.000218
661 0.000226
662 0.000234
663 0.000250
664 0.000261
665 0.000263
666 0.000258
667 0.000252
668 0.000259
669 0.000258
670 0.000255
671 0.000251
672 0.000252
673 0.000253
674 0.000245
675 0.000235
676 0.000229
677 0.000224
678 0.000221
679 0.000223
680 0.000221
681 0.000227
682 0.000236
683 0.000247
684 0.000259
685 0.000271
686 0.000267
687 0.000261
688 0.000252
689 0.000241
690 0.000234
691 0.000232
692 0.000238
693 0.000241
694 0.000237
695 0.000235
696 0.000231
697 0.000235
698 0.000237
699 0.000240
700 0.000240
701 0.000250
702 0.000264
703 0.000273
704 0.000277
705 0.000275
706 0.000279
707 0.000277
708 0.000274
709 0.000274
710 0.000276
711 0.000276
712 0.000274
713 0.000274
714 0.000271
715 0.000270
716 0.000270
717 0.000267
718 0.000261
719 0.000261
720 0.000255
721 0.000251
722 0.000251
723 0.000249
724 0.000250
725 0.000243
726 0.000233
727 0.000225
728 0.000217
729 0.000211
730 0.000208
731 0.000213
732 0.000212
733 0.000208
734 0.000205
735 0.000205
736 0.000206
737 0.000210
738 0.000212
739 0.000216
740 0.000216
741 0.000213
742 0.000211
743 0.000212
744 0.000210
745 0.000207
746 0.000200
747 0.000187
748 0.000179
749 0.000176
750 0.000176
751 0.000168
752 0.000166
753 0.000174
754 0.000180
755 0.000182
756 0.000185
757 0.000185
758 0.000182
759 0.000177
760 0.000171
761 0.000163
762 0.000153
763 0.000142
764 0.000130
765 0.000118
766 0.000104
767 0.000093
768 0.000084
769 0.000079
770 0.000075
771 0.000071
772 0.000073
773 0.000079
774 0.000086
775 0.000092
776 0.000099
777 0.000099
778 0.000094
779 0.000093
780 0.000084
781 0.000076
782 0.000075
783 0.000080
784 0.000084
785 0.000089
786 0.000098
787 0.000113
788 0.000123
789 0.000127
790 0.000134
791 0.000137
792 0.000140
793 0.000143
794 0.000148
795 0.000145
796 0.000140
797 0.000130
798 0.000118
799 0.000101
800 0.000092
801 0.000085
802 0.000079
803 0.000079
804 0.000078
805 0.000078
806 0.000077
807 0.000077
808 0.000077
809 0.000074
