# i correlation
1 0.001958
2 0.001849
3 0.001771
4 0.001707
5 0.001651
6 0.001602
7 0.001559
8 0.001504
9 0.001459
10 0.001418
11 0.001375
12 0.001322
13 0.001284
14 0.001261
15 0.001239
16 0.001216
17 0.001194
18 0.001177
19 0.001162
20 0.001140
21 0.001114
22 0.001093
23 0.001072
24 0.001061
25 0.001052
26 0.001053
27 0.001051
28 0.001043
29 0.001030
30 0.001026
31 0.001034
32 0.001025
33 0.001008
34 0.000986
35 0.000967
36 0.000949
37 0.000936
38 0.000921
39 0.000894
40 0.000884
41 0.000877
42 0.000865
43 0.000855
44 0.000842
45 0.000844
46 0.000837
47 0.000825
48 0.000819
49 0.000829
50 0.000837
51 0.000847
52 0.000866
53 0.000876
54 0.000885
55 0.000900
56 0.000908
57 0.000912
58 0.000919
59 0.000927
60 0.000939
61 0.000940
62 0.000934
63 0.000931
64 0.000922
65 0.000916
66 0.000906
67 0.000907
68 0.000909
69 0.000906
70 0.000900
71 0.000892
72 0.000883
73 0.000876
74 0.000868
75 0.000857
76 0.000861
77 0.000850
78 0.000841
79 0.000832
80 0.000818
81 0.000807
82 0.000815
83 0.000827
84 0.000838
85 0.000834
86 0.000827
87 0.000834
88 0.000834
89 0.000826
90 0.000836
91 0.000847
92 0.000849
93 0.000851
94 0.000855
95 0.000849
96 0.000833
97 0.000828
98 0.000834
99 0.000845
100 0.000837
101 0.000847
102 0.000842
103 0.000837
104 0.000840
105 0.000844
106 0.000830
107 0.000795
108 0.000776
109 0.000766
110 0.000762
111 0.000748
112 0.000738
113 0.000740
114 0.000740
115 0.000717
116 0.000697
117 0.000690
118 0.000684
119 0.000689
120 0.000700
121 0.000696
122 0.000685
123 0.000671
124 0.000672
125 0.000680
126 0.000676
127 0.000665
128 0.000662
129 0.000668
130 0.000675
131 0.000684
132 0.000680
133 0.000679
134 0.000671
135 0.000658
136 0.000659
137 0.000656
138 0.000651
139 0.000642
140 0.000634
141 0.000608
142 0.000581
143 0.000575
144 0.000581
145 0.000576
146 0.000564
147 0.000556
148 0.000545
149 0.000534
150 0.000528
151 0.000529
152 0.000516
153 0.000504
154 0.000499
155 0.000491
156 0.000486
157 0.000488
158 0.000496
159 0.000514
160 0.000533
161 0.000536
162 0.000549
163 0.000563
164 0.000576
165 0.000577
166 0.000582
167 0.000578
168 0.000573
169 0.000570
170 0.000562
171 0.000555
172 0.000542
173 0.000530
174 0.000535
175 0.000539
176 0.000534
177 0.000535
178 0.000550
179 0.000553
180 0.000562
181 0.000582
182 0.000590
183 0.000596
184 0.000600
185 0.000610
186 0.000613
187 0.000613
188 0.000624
189 0.000638
190 0.000637
191 0.000640
192 0.000644
193 0.000644
194 0.000641
195 0.000632
196 0.000635
197 0.000625
198 0.000606
199 0.000600
200 0.000592
201 0.000584
202 0.000572
203 0.000557
204 0.000542
205 0.000530
206 0.000498
207 0.000478
208 0.000463
209 0.000452
210 0.000445
211 0.000435
212 0.000429
213 0.000415
214 0.000411
215 0.000410
216 0.000396
217 0.000379
218 0.000381
219 0.000396
220 0.000403
221 0.000415
222 0.000419
223 0.000422
224 0.000418
225 0.000411
226 0.000397
227 0.000391
228 0.000391
229 0.000388
230 0.000385
231 0.000382
232 0.000377
233 0.000367
234 0.000360
235 0.000349
236 0.000341
237 0.000327
238 0.000328
239 0.000333
240 0.000336
241 0.000350
242 0.000370
243 0.000370
244 0.000361
245 0.000360
246 0.000357
247 0.000351
248 0.000352
249 0.000363
250 0.000377
251 0.000383
252 0.000385
253 0.000383
254 0.000391
255 0.000393
256 0.000387
257 0.000390
258 0.000395
259 0.000399
260 0.000400
261 0.000402
262 0.000399
263 0.000400
264 0.000400
265 0.000410
266 0.000406
267 0.000405
268 0.000417
269 0.000419
270 0.000415
271 0.000404
272 0.000398
273 0.000402
274 0.000396
275 0.000384
276 0.000374
277 0.000363
278 0.000363
279 0.000368
280 0.000367
281 0.000363
282 0.000367
283 0.000383
284 0.000399
285 0.000405
286 0.000407
287 0.000410
288 0.000409
289 0.000403
290 0.000398
291 0.000397
292 0.000385
293 0.000370
294 0.000364
295 0.000364
296 0.000356
297 0.000353
298 0.000362
299 0.000365
300 0.000370
301 0.000362
302 0.000361
303 0.000358
304 0.000372
305 0.000391
306 0.000404
307 0.000397
308 0.000384
309 0.000380
310 0.000381
311 0.000385
312 0.000386
313 0.000393
314 0.000405
315 0.000416
316 0.000429
317 0.000423
318 0.000427
319 0.000432
320 0.000429
321 0.000424
322 0.000424
323 0.000427
324 0.000425
325 0.000430
326 0.000434
327 0.000435
328 0.000433
329 0.000431
330 0.000421
331 0.000410
332 0.000407
333 0.000415
334 0.000415
335 0.000409
336 0.000412
337 0.000414
338 0.000422
339 0.000429
340 0.000438
341 0.000454
342 0.000469
343 0.000488
344 0.000501
345 0.000516
346 0.000528
347 0.000536
348 0.000531
349 0.000523
350 0.000520
351 0.000518
352 0.000521
353 0.000510
354 0.000509
355 0.000508
356 0.000511
357 0.000498
358 0.000485
359 0.000488
360 0.000487
361 0.000478
362 0.000474
363 0.000464
364 0.000451
365 0.000439
366 0.000429
367 0.000430
368 0.000424
369 0.000414
370 0.000401
371 0.000389
372 0.000388
373 0.000392
374 0.000408
375 0.000419
376 0.000422
377 0.000416
378 0.000411
379 0.000405
380 0.000397
381 0.000388
382 0.000388
383 0.000391
384 0.000388
385 0.000385
386 0.000377
387 0.000372
388 0.000376
389 0.000381
390 0.000382
391 0.000374
392 0.000366
393 0.000370
394 0.000368
395 0.000358
396 0.000348
397 0.000338
398 0.000330
399 0.000326
400 0.000313
401 0.000306
402 0.000293
403 0.000288
404 0.000289
405 0.000286
406 0.000275
407 0.000263
408 0.000254
409 0.000248
410 0.000243
411 0.000239
412 0.000234
413 0.000227
414 0.000214
415 0.000210
416 0.000200
417 0.000209
418 0.000215
419 0.000219
420 0.000217
421 0.000200
422 0.000188
423 0.000176
424 0.000173
425 0.000166
426 0.000163
427 0.000152
428 0.000139
429 0.000132
430 0.000131
431 0.000128
432 0.000127
433 0.000121
434 0.000117
435 0.000125
436 0.000127
437 0.000126
438 0.000123
439 0.000126
440 0.000117
441 0.000105
442 0.000106
443 0.000109
444 0.000117
445 0.000121
446 0.000124
447 0.000114
448 0.000110
449 0.000107
450 0.000118
451 0.000135
452 0.000139
453 0.000146
454 0.000149
455 0.000143
456 0.000137
457 0.000127
458 0.000119
459 0.000121
460 0.000125
461 0.000128
462 0.000128
463 0.000131
464 0.000133
465 0.000131
466 0.000125
467 0.000121
468 0.000107
469 0.000104
470 0.000103
471 0.000096
472 0.000102
473 0.000109
474 0.000106
475 0.000102
476 0.000099
477 0.000102
478 0.000101
479 0.000094
480 0.000091
481 0.000084
482 0.000084
483 0.000083
484 0.000083
485 0.000070
486 0.000064
487 0.000076
488 0.000088
489 0.000092
490 0.000086
491 0.000080
492 0.000075
493 0.000078
494 0.000086
495 0.000083
496 0.000079
497 0.000079
498 0.000077
499 0.000076
500 0.000068
501 0.000057
502 0.000054
503 0.000056
504 0.000062
505 0.000074
506 0.000079
507 0.000087
508 0.000103
509 0.000111
510 0.000121
511 0.000120
512 0.000119
513 0.000117
514 0.000119
515 0.000115
516 0.000104
517 0.000087
518 0.000080
519 0.000080
520 0.000079
521 0.000077
522 0.000071
523 0.000072
524 0.000078
525 0.000082
526 0.000083
527 0.000090
528 0.000094
529 0.000099
530 0.000102
531 0.000094
532 0.000087
533 0.000079
534 0.000071
535 0.000062
536 0.000055
537 0.000050
538 0.000053
539 0.000057
540 0.000056
541 0.000052
542 0.000040
543 0.000040
544 0.000031
545 0.000026
546 0.000015
547 0.000013
548 0.000011
549 0.000009
550 -0.000003
551 -0.000012
552 -0.000022
553 -0.000032
554 -0.000038
555 -0.000034
556 -0.000028
557 -0.000020
558 -0.000015
559 -0.000015
560 -0.000019
561 -0.000015
562 -0.000019
563 -0.000019
564 -0.000006
565 0.000014
566 0.000031
567 0.000039
568 0.000046
569 0.000049
570 0.000054
571 0.000056
572 0.000057
573 0.000056
574 0.000048
575 0.000058
576 0.000061
577 0.000065
578 0.000069
579 0.000077
580 0.000072
581 0.000061
582 0.000050
583 0.000050
584 0.000051
585 0.000051
586 0.000055
587 0.000054
588 0.000054
589 0.000045
590 0.000035
591 0.000016
592 0.000006
593 0.000003
594 -0.000003
595 -0.000011
596 -0.000019
597 -0.000027
598 -0.000032
599 -0.000044
600 -0.000061
601 -0.000075
602 -0.000086
603 -0.000091
604 -0.000093
605 -0.000104
606 -0.000118
607 -0.000131
608 -0.000130
609 -0.000128
610 -0.000123
611 -0.000112
612 -0.000108
613 -0.000101
614 -0.000091
615 -0.000085
616 -0.000081
617 -0.000072
618 -0.000063
619 -0.000054
620 -0.000039
621 -0.000028
622 -0.000025
623 -0.000022
624 -0.000014
625 -0.000000
626 0.000004
627 0.000016
628 0.000025
629 0.000024
630 0.000022
631 0.000026
632 0.000025
633 0.000023
634 0.000029
635 0.000032
636 0.000026
637 0.000026
638 0.000032
639 0.000046
640 0.000057
641 0.000064
642 0.000070
643 0.000078
644 0.000088
645 0.000096
646 0.000099
647 0.000099
648 0.000105
649 0.000110
650 0.000118
651 0.000130
652 0.000138
653 0.000144
654 0.000143
655 0.000140
656 0.000138
657 0.000139
658 0.000142
659 0.000146
660 0.000151
661 0.000148
662 0.000141
663 0.000144
664 0.000143
665 0.000139
666 0.000140
667 0.000142
668 0.000139
669 0.000137
670 0.000138
671 0.000144
672 0.000146
673 0.000144
674 0.000146
675 0.000140
676 0.000131
677 0.000127
678 0.000127
679 0.000123
680 0.000122
681 0.000113
682 0.000101
683 0.000097
684 0.000093
685 0.000091
686 0.000089
687 0.000085
688 0.000083
689 0.000083
690 0.000083
691 0.000082
692 0.000082
693 0.000082
694 0.000081
695 0.000082
696 0.000079
697 0.000075
698 0.000073
699 0.000069
700 0.000059
701 0.000056
702 0.000057
703 0.000058
704 0.000065
705 0.000078
706 0.000084
707 0.000086
708 0.000089
709 0.000099
710 0.000100
711 0.000098
712 0.000094
713 0.000093
714 0.000088
715 0.000086
716 0.000085
717 0.000090
718 0.000095
719 0.000099
720 0.000093
721 0.000092
722 0.000096
723 0.000103
724 0.000118
725 0.000118
726 0.000124
727 0.000124
728 0.000122
729 0.000121
730 0.000123
731 0.000122
732 0.000117
733 0.000115
734 0.000115
735 0.000114
736 0.000115
737 0.000120
738 0.000117
739 0.000117
740 0.000115
741 0.000117
742 0.000118
743 0.000118
744 0.000120
745 0.000124
746 0.000125
747 0.000121
748 0.000126
749 0.000127
750 0.000137
751 0.000148
752 0.000152
753 0.000158
754 0.000161
755 0.000162
756 0.000168
757 0.000181
758 0.000197
759 0.000210
760 0.000219
761 0.000218
762 0.000219
763 0.000213
764 0.000213
765 0.000217
766 0.000214
767 0.000207
768 0.000206
769 0.000202
770 0.000194
771 0.000191
772 0.000187
773 0.000182
774 0.000176
775 0.000167
776 0.000159
777 0.000157
778 0.000160
779 0.000162
780 0.000156
781 0.000149
782 0.000147
783 0.000138
784 0.000131
785 0.000123
786 0.000111
787 0.000098
788 0.000093
789 0.000092
790 0.000085
791 0.000082
792 0.000076
793 0.000071
794 0.000064
795 0.000047
796 0.000030
797 0.000024
798 0.000015
799 0.000009
800 0.000011
801 0.000001
802 -0.000011
803 -0.000020
804 -0.000027
805 -0.000038
806 -0.000043
807 -0.000048
808 -0.000046
809 -0.000044
