# i correlation
1 0.001902
2 0.001795
3 0.001697
4 0.001632
5 0.001585
6 0.001545
7 0.001503
8 0.001471
9 0.001433
10 0.001400
11 0.001371
12 0.001354
13 0.001341
14 0.001330
15 0.001317
16 0.001303
17 0.001290
18 0.001287
19 0.001287
20 0.001282
21 0.001289
22 0.001283
23 0.001271
24 0.001258
25 0.001252
26 0.001259
27 0.001246
28 0.001220
29 0.001201
30 0.001200
31 0.001194
32 0.001185
33 0.001181
34 0.001168
35 0.001162
36 0.001141
37 0.001117
38 0.001095
39 0.001081
40 0.001074
41 0.001067
42 0.001056
43 0.001054
44 0.001049
45 0.001049
46 0.001038
47 0.001027
48 0.001028
49 0.001034
50 0.001018
51 0.001004
52 0.000986
53 0.000984
54 0.000971
55 0.000961
56 0.000970
57 0.000983
58 0.000981
59 0.000978
60 0.000984
61 0.000997
62 0.001004
63 0.001005
64 0.001006
65 0.001010
66 0.001020
67 0.001029
68 0.001033
69 0.001035
70 0.001032
71 0.001029
72 0.001026
73 0.001012
74 0.001008
75 0.001005
76 0.000995
77 0.000990
78 0.000986
79 0.000987
80 0.000984
81 0.000979
82 0.000972
83 0.000977
84 0.000995
85 0.001008
86 0.001013
87 0.001019
88 0.001020
89 0.001010
90 0.000992
91 0.000971
92 0.000951
93 0.000929
94 0.000927
95 0.000923
96 0.000920
97 0.000908
98 0.000887
99 0.000857
100 0.000846
101 0.000852
102 0.000853
103 0.000850
104 0.000851
105 0.000845
106 0.000830
107 0.000818
108 0.000805
109 0.000798
110 0.000811
111 0.000818
112 0.000810
113 0.000806
114 0.000802
115 0.000800
116 0.000795
117 0.000791
118 0.000790
119 0.000777
120 0.000773
121 0.000759
122 0.000754
123 0.000751
124 0.000749
125 0.000739
126 0.000719
127 0.000697
128 0.000681
129 0.000667
130 0.000659
131 0.000653
132 0.000646
133 0.000643
134 0.000647
135 0.000654
136 0.000658
137 0.000678
138 0.000680
139 0.000670
140 0.000653
141 0.000636
142 0.000628
143 0.000624
144 0.000631
145 0.000634
146 0.000640
147 0.000636
148 0.000632
149 0.000627
150 0.000626
151 0.000636
152 0.000633
153 0.000627
154 0.000619
155 0.000604
156 0.000590
157 0.000572
158 0.000561
159 0.000545
160 0.000546
161 0.000545
162 0.000537
163 0.000535
164 0.000530
165 0.000519
166 0.000504
167 0.000500
168 0.000501
169 0.000515
170 0.000540
171 0.000549
172 0.000556
173 0.000562
174 0.000572
175 0.000572
176 0.000575
177 0.000573
178 0.000575
179 0.000593
180 0.000615
181 0.000627
182 0.000636
183 0.000620
184 0.000607
185 0.000597
186 0.000592
187 0.000583
188 0.000595
189 0.000599
190 0.000604
191 0.000610
192 0.000609
193 0.000598
194 0.000600
195 0.000602
196 0.000618
197 0.000622
198 0.000623
199 0.000624
200 0.000620
201 0.000607
202 0.000588
203 0.000577
204 0.000572
205 0.000581
206 0.000577
207 0.000564
208 0.000542
209 0.000533
210 0.000527
211 0.000528
212 0.000534
213 0.000545
214 0.000561
215 0.000564
216 0.000553
217 0.000546
218 0.000539
219 0.000528
220 0.000529
221 0.000542
222 0.000538
223 0.000532
224 0.000519
225 0.000511
226 0.000507
227 0.000497
228 0.000483
229 0.000476
230 0.000468
231 0.000469
232 0.000463
233 0.000456
234 0.000449
235 0.000447
236 0.000448
237 0.000441
238 0.000445
239 0.000446
240 0.000455
241 0.000461
242 0.000472
243 0.000469
244 0.000466
245 0.000458
246 0.000447
247 0.000442
248 0.000439
249 0.000441
250 0.000437
251 0.000434
252 0.000419
253 0.000409
254 0.000399
255 0.000401
256 0.000404
257 0.000411
258 0.000418
259 0.000427
260 0.000429
261 0.000442
262 0.000456
263 0.000462
264 0.000460
265 0.000459
266 0.000463
267 0.000472
268 0.000472
269 0.000463
270 0.000457
271 0.000457
272 0.000447
273 0.000433
274 0.000430
275 0.000431
276 0.000431
277 0.000436
278 0.000434
279 0.000427
280 0.000419
281 0.000415
282 0.000409
283 0.000416
284 0.000429
285 0.000443
286 0.000451
287 0.000443
288 0.000434
289 0.000425
290 0.000415
291 0.000408
292 0.000407
293 0.000408
294 0.000395
295 0.000382
296 0.000372
297 0.000360
298 0.000356
299 0.000358
300 0.000363
301 0.000369
302 0.000382
303 0.000390
304 0.000400
305 0.000406
306 0.000416
307 0.000428
308 0.000435
309 0.000440
310 0.000443
311 0.000446
312 0.000445
313 0.000434
314 0.000432
315 0.000436
316 0.000444
317 0.000445
318 0.000445
319 0.000447
320 0.000434
321 0.000415
322 0.000397
323 0.000383
324 0.000374
325 0.000365
326 0.000357
327 0.000356
328 0.000362
329 0.000360
330 0.000360
331 0.000371
332 0.000374
333 0.000371
334 0.000379
335 0.000370
336 0.000373
337 0.000366
338 0.000356
339 0.000349
340 0.000350
341 0.000355
342 0.000363
343 0.000361
344 0.000354
345 0.000346
346 0.000336
347 0.000323
348 0.000303
349 0.000292
350 0.000279
351 0.000280
352 0.000286
353 0.000280
354 0.000274
355 0.000270
356 0.000266
357 0.000256
358 0.000247
359 0.000241
360 0.000237
361 0.000237
362 0.000229
363 0.000225
364 0.000223
365 0.000225
366 0.000223
367 0.000226
368 0.000233
369 0.000226
370 0.000210
371 0.000199
372 0.000193
373 0.000193
374 0.000192
375 0.000192
376 0.000197
377 0.000211
378 0.000215
379 0.000215
380 0.000214
381 0.000213
382 0.000213
383 0.000203
384 0.000194
385 0.000197
386 0.000199
387 0.000209
388 0.000212
389 0.000215
390 0.000221
391 0.000220
392 0.000214
393 0.000218
394 0.000224
395 0.000233
396 0.000233
397 0.000230
398 0.000219
399 0.000214
400 0.000214
401 0.000222
402 0.000230
403 0.000246
404 0.000248
405 0.000247
406 0.000244
407 0.000231
408 0.000226
409 0.000219
410 0.000207
411 0.000202
412 0.000208
413 0.000217
414 0.000223
415 0.000224
416 0.000224
417 0.000224
418 0.000225
419 0.000224
420 0.000229
421 0.000236
422 0.000248
423 0.000250
424 0.000241
425 0.000233
426 0.000227
427 0.000219
428 0.000216
429 0.000204
430 0.000197
431 0.000185
432 0.000178
433 0.000171
434 0.000166
435 0.000163
436 0.000161
437 0.000163
438 0.000166
439 0.000168
440 0.000171
441 0.000174
442 0.000180
443 0.000185
444 0.000183
445 0.000184
446 0.000185
447 0.000192
448 0.000204
449 0.000200
450 0.000193
451 0.000189
452 0.000183
453 0.000184
454 0.000185
455 0.000184
456 0.000196
457 0.000198
458 0.000197
459 0.000199
460 0.000189
461 0.000178
462 0.000172
463 0.000173
464 0.000169
465 0.000171
466 0.000168
467 0.000167
468 0.000163
469 0.000165
470 0.000163
471 0.000161
472 0.000165
473 0.000167
474 0.000164
475 0.000161
476 0.000152
477 0.000145
478 0.000149
479 0.000154
480 0.000151
481 0.000152
482 0.000157
483 0.000156
484 0.000159
485 0.000160
486 0.000154
487 0.000143
488 0.000136
489 0.000136
490 0.000131
491 0.000133
492 0.000132
493 0.000129
494 0.000120
495 0.000103
496 0.000084
497 0.000070
498 0.000070
499 0.000077
500 0.000088
501 0.000097
502 0.000104
503 0.000113
504 0.000122
505 0.000138
506 0.000150
507 0.000159
508 0.000165
509 0.000166
510 0.000161
511 0.000152
512 0.000144
513 0.000136
514 0.000133
515 0.000130
516 0.000135
517 0.000141
518 0.000139
519 0.000142
520 0.000144
521 0.000141
522 0.000142
523 0.000140
524 0.000141
525 0.000142
526 0.000143
527 0.000148
528 0.000160
529 0.000168
530 0.000181
531 0.000192
532 0.000201
533 0.000207
534 0.000207
535 0.000211
536 0.000217
537 0.000226
538 0.000233
539 0.000235
540 0.000234
541 0.000238
542 0.000242
543 0.000244
544 0.000234
545 0.000223
546 0.000210
547 0.000207
548 0.000209
549 0.000209
550 0.000205
551 0.000202
552 0.000205
553 0.000199
554 0.000189
555 0.000184
556 0.000174
557 0.000175
558 0.000171
559 0.000166
560 0.000166
561 0.000154
562 0.000148
563 0.000150
564 0.000143
565 0.000141
566 0.000140
567 0.000138
568 0.000134
569 0.000130
570 0.000130
571 0.000125
572 0.000119
573 0.000121
574 0.000121
575 0.000113
576 0.000110
577 0.000102
578 0.000107
579 0.000104
580 0.000091
581 0.000076
582 0.000066
583 0.000057
584 0.000051
585 0.000055
586 0.000064
587 0.000065
588 0.000063
589 0.000060
590 0.000062
591 0.000067
592 0.000073
593 0.000078
594 0.000083
595 0.000086
596 0.000091
597 0.000090
598 0.000083
599 0.000074
600 0.000070
601 0.000064
602 0.000061
603 0.000064
604 0.000079
605 0.000087
606 0.000091
607 0.000093
608 0.000099
609 0.000108
610 0.000109
611 0.000108
612 0.000108
613 0.000107
614 0.000101
615 0.000095
616 0.000105
617 0.000112
618 0.000115
619 0.000121
620 0.000121
621 0.000117
622 0.000119
623 0.000125
624 0.000132
625 0.000136
626 0.000143
627 0.000162
628 0.000165
629 0.000163
630 0.000160
631 0.000157
632 0.000153
633 0.000151
634 0.000142
635 0.000138
636 0.000128
637 0.000122
638 0.000109
639 0.000103
640 0.000093
641 0.000083
642 0.000077
643 0.000075
644 0.000076
645 0.000078
646 0.000082
647 0.000079
648 0.000073
649 0.000067
650 0.000062
651 0.000054
652 0.000054
653 0.000062
654 0.000071
655 0.000075
656 0.000074
657 0.000072
658 0.000073
659 0.000071
660 0.000063
661 0.000050
662 0.000039
663 0.000034
664 0.000025
665 0.000021
666 0.000010
667 -0.000007
668 -0.000026
669 -0.000045
670 -0.000054
671 -0.000066
672 -0.000076
673 -0.000085
674 -0.000090
675 -0.000096
676 -0.000095
677 -0.000096
678 -0.000103
679 -0.000104
680 -0.000100
681 -0.000093
682 -0.000094
683 -0.000085
684 -0.000077
685 -0.000072
686 -0.000066
687 -0.000067
688 -0.000065
689 -0.000067
690 -0.000065
691 -0.000070
692 -0.000075
693 -0.000080
694 -0.000081
695 -0.000089
696 -0.000097
697 -0.000103
698 -0.000108
699 -0.000104
700 -0.000103
701 -0.000103
702 -0.000110
703 -0.000118
704 -0.000120
705 -0.000125
706 -0.000135
707 -0.000135
708 -0.000135
709 -0.000129
710 -0.000124
711 -0.000119
712 -0.000116
713 -0.000115
714 -0.000114
715 -0.000111
716 -0.000107
717 -0.000106
718 -0.000107
719 -0.000108
720 -0.000098
721 -0.000086
722 -0.000072
723 -0.000059
724 -0.000048
725 -0.000041
726 -0.000041
727 -0.000038
728 -0.000035
729 -0.000025
730 -0.000016
731 -0.000004
732 0.000003
733 0.000010
734 0.000017
735 0.000016
736 0.000008
737 0.000006
738 -0.000003
739 -0.000010
740 -0.000014
741 -0.000015
742 -0.000008
743 -0.000003
744 -0.000003
745 -0.000009
746 -0.000017
747 -0.000018
748 -0.000015
749 -0.000019
750 -0.000023
751 -0.000030
752 -0.000034
753 -0.000039
754 -0.000035
755 -0.000033
756 -0.000030
757 -0.000029
758 -0.000033
759 -0.000044
760 -0.000048
761 -0.000052
762 -0.000050
763 -0.000051
764 -0.000047
765 -0.000045
766 -0.000040
767 -0.000037
768 -0.000033
769 -0.000028
770 -0.000024
771 -0.000021
772 -0.000028
773 -0.000036
774 -0.000042
775 -0.000050
776 -0.000055
777 -0.000057
778 -0.000050
779 -0.000049
780 -0.000052
781 -0.000056
782 -0.000061
783 -0.000062
784 -0.000058
785 -0.000056
786 -0.000058
787 -0.000059
788 -0.000060
789 -0.000057
790 -0.000055
791 -0.000045
792 -0.000044
793 -0.000047
794 -0.000051
795 -0.000049
796 -0.000041
797 -0.000033
798 -0.000024
799 -0.000017
800 -0.000011
801 -0.000004
802 0.000000
803 0.000006
804 0.000016
805 0.000028
806 0.000035
807 0.000040
808 0.000044
809 0.000052
