# i correlation
1 0.001717
2 0.001625
3 0.001547
4 0.001488
5 0.001427
6 0.001357
7 0.001302
8 0.001256
9 0.001218
10 0.001184
11 0.001166
12 0.001150
13 0.001137
14 0.001130
15 0.001130
16 0.001133
17 0.001157
18 0.001162
19 0.001162
20 0.001160
21 0.001160
22 0.001154
23 0.001157
24 0.001147
25 0.001153
26 0.001155
27 0.001142
28 0.001138
29 0.001132
30 0.001114
31 0.001096
32 0.001074
33 0.001052
34 0.001037
35 0.001029
36 0.001028
37 0.001030
38 0.001035
39 0.001037
40 0.001052
41 0.001062
42 0.001066
43 0.001058
44 0.001055
45 0.001057
46 0.001054
47 0.001047
48 0.001036
49 0.001019
50 0.001006
51 0.001004
52 0.000991
53 0.000985
54 0.000997
55 0.001022
56 0.001042
57 0.001053
58 0.001057
59 0.001057
60 0.001040
61 0.001035
62 0.001024
63 0.001013
64 0.000996
65 0.000978
66 0.000957
67 0.000932
68 0.000925
69 0.000913
70 0.000892
71 0.000873
72 0.000864
73 0.000861
74 0.000852
75 0.000838
76 0.000848
77 0.000862
78 0.000872
79 0.000870
80 0.000884
81 0.000889
82 0.000895
83 0.000895
84 0.000903
85 0.000917
86 0.000926
87 0.000927
88 0.000918
89 0.000909
90 0.000889
91 0.000873
92 0.000848
93 0.000829
94 0.000812
95 0.000800
96 0.000785
97 0.000776
98 0.000765
99 0.000760
100 0.000749
101 0.000739
102 0.000727
103 0.000724
104 0.000724
105 0.000721
106 0.000725
107 0.000718
108 0.000711
109 0.000714
110 0.000718
111 0.000713
112 0.000719
113 0.000729
114 0.000742
115 0.000753
116 0.000755
117 0.000765
118 0.000779
119 0.000781
120 0.000786
121 0.000780
122 0.000763
123 0.000747
124 0.000729
125 0.000722
126 0.000717
127 0.000703
128 0.000687
129 0.000670
130 0.000655
131 0.000643
132 0.000635
133 0.000642
134 0.000640
135 0.000643
136 0.000641
137 0.000645
138 0.000640
139 0.000634
140 0.000629
141 0.000624
142 0.000625
143 0.000634
144 0.000649
145 0.000662
146 0.000666
147 0.000650
148 0.000642
149 0.000629
150 0.000625
151 0.000626
152 0.000616
153 0.000606
154 0.000607
155 0.000600
156 0.000600
157 0.000596
158 0.000597
159 0.000581
160 0.000564
161 0.000550
162 0.000542
163 0.000543
164 0.000539
165 0.000549
166 0.000554
167 0.000554
168 0.000567
169 0.000582
170 0.000586
171 0.000598
172 0.000607
173 0.000626
174 0.000642
175 0.000646
176 0.000653
177 0.000658
178 0.000655
179 0.000649
180 0.000636
181 0.000619
182 0.000609
183 0.000596
184 0.000574
185 0.000551
186 0.000543
187 0.000523
188 0.000510
189 0.000493
190 0.000490
191 0.000492
192 0.000501
193 0.000498
194 0.000498
195 0.000503
196 0.000506
197 0.000506
198 0.000510
199 0.000520
200 0.000531
201 0.000535
202 0.000539
203 0.000557
204 0.000557
205 0.000566
206 0.000571
207 0.000581
208 0.000576
209 0.000576
210 0.000569
211 0.000563
212 0.000557
213 0.000552
214 0.000551
215 0.000543
216 0.000540
217 0.000535
218 0.000525
219 0.000525
220 0.000520
221 0.000518
222 0.000511
223 0.000512
224 0.000520
225 0.000518
226 0.000509
227 0.000495
228 0.000480
229 0.000471
230 0.000468
231 0.000476
232 0.000481
233 0.000481
234 0.000488
235 0.000495
236 0.000505
237 0.000512
238 0.000516
239 0.000524
240 0.000526
241 0.000515
242 0.000518
243 0.000514
244 0.000505
245 0.000491
246 0.000477
247 0.000468
248 0.000455
249 0.000455
250 0.000454
251 0.000456
252 0.000453
253 0.000442
254 0.000445
255 0.000445
256 0.000452
257 0.000457
258 0.000456
259 0.000462
260 0.000479
261 0.000494
262 0.000510
263 0.000524
264 0.000542
265 0.000562
266 0.000580
267 0.000588
268 0.000597
269 0.000599
270 0.000593
271 0.000594
272 0.000598
273 0.000590
274 0.000573
275 0.000558
276 0.000546
277 0.000541
278 0.000536
279 0.000527
280 0.000523
281 0.000526
282 0.000531
283 0.000539
284 0.000540
285 0.000549
286 0.000558
287 0.000569
288 0.000579
289 0.000591
290 0.000602
291 0.000610
292 0.000608
293 0.000601
294 0.000599
295 0.000596
296 0.000586
297 0.000583
298 0.000583
299 0.000577
300 0.000562
301 0.000553
302 0.000546
303 0.000532
304 0.000517
305 0.000505
306 0.000495
307 0.000481
308 0.000476
309 0.000474
310 0.000470
311 0.000470
312 0.000473
313 0.000475
314 0.000465
315 0.000456
316 0.000453
317 0.000450
318 0.000436
319 0.000421
320 0.000413
321 0.000394
322 0.000386
323 0.000391
324 0.000395
325 0.000394
326 0.000394
327 0.000403
328 0.000420
329 0.000438
330 0.000452
331 0.000470
332 0.000476
333 0.000485
334 0.000488
335 0.000488
336 0.000493
337 0.000495
338 0.000494
339 0.000479
340 0.000471
341 0.000464
342 0.000462
343 0.000456
344 0.000446
345 0.000444
346 0.000446
347 0.000441
348 0.000441
349 0.000450
350 0.000463
351 0.000479
352 0.000500
353 0.000517
354 0.000530
355 0.000535
356 0.000539
357 0.000539
358 0.000538
359 0.000533
360 0.000529
361 0.000516
362 0.000496
363 0.000472
364 0.000458
365 0.000441
366 0.000425
367 0.000411
368 0.000393
369 0.000393
370 0.000398
371 0.000406
372 0.000413
373 0.000409
374 0.000405
375 0.000416
376 0.000421
377 0.000435
378 0.000445
379 0.000450
380 0.000452
381 0.000456
382 0.000472
383 0.000473
384 0.000476
385 0.000475
386 0.000471
387 0.000469
388 0.000465
389 0.000465
390 0.000459
391 0.000448
392 0.000441
393 0.000448
394 0.000447
395 0.000452
396 0.000452
397 0.000453
398 0.000450
399 0.000445
400 0.000446
401 0.000442
402 0.000436
403 0.000416
404 0.000397
405 0.000384
406 0.000368
407 0.000359
408 0.000354
409 0.000348
410 0.000345
411 0.000351
412 0.000359
413 0.000364
414 0.000367
415 0.000376
416 0.000387
417 0.000395
418 0.000401
419 0.000407
420 0.000413
421 0.000410
422 0.000405
423 0.000406
424 0.000396
425 0.000393
426 0.000389
427 0.000381
428 0.000381
429 0.000368
430 0.000361
431 0.000348
432 0.000344
433 0.000342
434 0.000345
435 0.000343
436 0.000341
437 0.000336
438 0.000340
439 0.000345
440 0.000351
441 0.000352
442 0.000357
443 0.000370
444 0.000368
445 0.000370
446 0.000373
447 0.000369
448 0.000358
449 0.000348
450 0.000334
451 0.000326
452 0.000315
453 0.000308
454 0.000297
455 0.000294
456 0.000299
457 0.000307
458 0.000308
459 0.000304
460 0.000299
461 0.000293
462 0.000292
463 0.000298
464 0.000296
465 0.000292
466 0.000296
467 0.000300
468 0.000315
469 0.000320
470 0.000327
471 0.000341
472 0.000348
473 0.000352
474 0.000360
475 0.000367
476 0.000374
477 0.000373
478 0.000364
479 0.000354
480 0.000345
481 0.000345
482 0.000343
483 0.000334
484 0.000333
485 0.000331
486 0.000328
487 0.000323
488 0.000318
489 0.000315
490 0.000313
491 0.000315
492 0.000307
493 0.000294
494 0.000289
495 0.000278
496 0.000279
497 0.000288
498 0.000295
499 0.000302
500 0.000302
501 0.000304
502 0.000312
503 0.000313
504 0.000312
505 0.000306
506 0.000304
507 0.000303
508 0.000311
509 0.000306
510 0.000305
511 0.000303
512 0.000299
513 0.000292
514 0.000290
515 0.000297
516 0.000305
517 0.000308
518 0.000310
519 0.000312
520 0.000312
521 0.000314
522 0.000317
523 0.000323
524 0.000318
525 0.000313
526 0.000311
527 0.000308
528 0.000307
529 0.000308
530 0.000308
531 0.000312
532 0.000318
533 0.000322
534 0.000322
535 0.000327
536 0.000332
537 0.000331
538 0.000337
539 0.000344
540 0.000353
541 0.000355
542 0.000350
543 0.000347
544 0.000348
545 0.000348
546 0.000348
547 0.000346
548 0.000351
549 0.000355
550 0.000353
551 0.000347
552 0.000347
553 0.000352
554 0.000357
555 0.000358
556 0.000361
557 0.000364
558 0.000365
559 0.000360
560 0.000355
561 0.000358
562 0.000358
563 0.000361
564 0.000356
565 0.000353
566 0.000352
567 0.000352
568 0.000346
569 0.000345
570 0.000341
571 0.000338
572 0.000333
573 0.000331
574 0.000328
575 0.000322
576 0.000324
577 0.000327
578 0.000329
579 0.000326
580 0.000324
581 0.000322
582 0.000311
583 0.000302
584 0.000289
585 0.000281
586 0.000276
587 0.000263
588 0.000261
589 0.000261
590 0.000261
591 0.000264
592 0.000266
593 0.000265
594 0.000273
595 0.000280
596 0.000287
597 0.000292
598 0.000288
599 0.000284
600 0.000281
601 0.000279
602 0.000276
603 0.000276
604 0.000271
605 0.000269
606 0.000262
607 0.000254
608 0.000251
609 0.000250
610 0.000239
611 0.000231
612 0.000227
613 0.000218
614 0.000217
615 0.000213
616 0.000214
617 0.000215
618 0.000218
619 0.000224
620 0.000231
621 0.000235
622 0.000245
623 0.000252
624 0.000253
625 0.000261
626 0.000270
627 0.000268
628 0.000262
629 0.000250
630 0.000232
631 0.000219
632 0.000205
633 0.000194
634 0.000189
635 0.000190
636 0.000189
637 0.000193
638 0.000186
639 0.000192
640 0.000194
641 0.000193
642 0.000195
643 0.000195
644 0.000197
645 0.000200
646 0.000197
647 0.000196
648 0.000192
649 0.000188
650 0.000188
651 0.000188
652 0.000185
653 0.000181
654 0.000183
655 0.000182
656 0.000181
657 0.000182
658 0.000180
659 0.000178
660 0.000179
661 0.000175
662 0.000179
663 0.000182
664 0.000184
665 0.000187
666 0.000197
667 0.000208
668 0.000215
669 0.000214
670 0.000213
671 0.000210
672 0.000201
673 0.000192
674 0.000187
675 0.000181
676 0.000176
677 0.000172
678 0.000161
679 0.000151
680 0.000146
681 0.000148
682 0.000153
683 0.000156
684 0.000167
685 0.000170
686 0.000170
687 0.000172
688 0.000174
689 0.000170
690 0.000167
691 0.000164
692 0.000163
693 0.000159
694 0.000158
695 0.000157
696 0.000156
697 0.000159
698 0.000157
699 0.000153
700 0.000142
701 0.000130
702 0.000125
703 0.000117
704 0.000110
705 0.000104
706 0.000101
707 0.000106
708 0.000110
709 0.000114
710 0.000116
711 0.000122
712 0.000128
713 0.000140
714 0.000153
715 0.000162
716 0.000163
717 0.000158
718 0.000148
719 0.000136
720 0.000123
721 0.000110
722 0.000101
723 0.000098
724 0.000100
725 0.000105
726 0.000107
727 0.000106
728 0.000104
729 0.000096
730 0.000089
731 0.000086
732 0.000085
733 0.000084
734 0.000084
735 0.000079
736 0.000075
737 0.000073
738 0.000071
739 0.000070
740 0.000068
741 0.000061
742 0.000061
743 0.000065
744 0.000068
745 0.000072
746 0.000073
747 0.000070
748 0.000065
749 0.000059
750 0.000050
751 0.000044
752 0.000043
753 0.000048
754 0.000053
755 0.000055
756 0.000051
757 0.000051
758 0.000049
759 0.000047
760 0.000046
761 0.000042
762 0.000041
763 0.000042
764 0.000043
765 0.000044
766 0.000041
767 0.000034
768 0.000030
769 0.000030
770 0.000035
771 0.000042
772 0.000049
773 0.000052
774 0.000055
775 0.000056
776 0.000049
777 0.000040
778 0.000031
779 0.000025
780 0.000021
781 0.000018
782 0.000014
783 0.000014
784 0.000014
785 0.000014
786 0.000010
787 0.000007
788 0.000009
789 0.000014
790 0.000013
791 0.000011
792 0.000012
793 0.000012
794 0.000011
795 0.000008
796 0.000002
797 0.000001
798 -0.000001
799 -0.000004
800 -0.000003
801 -0.000001
802 -0.000001
803 -0.000004
804 -0.000010
805 -0.000011
806 -0.000014
807 -0.000019
808 -0.000019
809 -0.000018
