# i correlation
1 0.002681
2 0.002553
3 0.002440
4 0.002340
5 0.002253
6 0.002183
7 0.002122
8 0.002064
9 0.002006
10 0.001966
11 0.001931
12 0.001877
13 0.001815
14 0.001764
15 0.001719
16 0.001678
17 0.001666
18 0.001643
19 0.001612
20 0.001587
21 0.001557
22 0.001555
23 0.001557
24 0.001560
25 0.001553
26 0.001543
27 0.001536
28 0.001520
29 0.001510
30 0.001498
31 0.001487
32 0.001468
33 0.001448
34 0.001444
35 0.001423
36 0.001411
37 0.001399
38 0.001376
39 0.001361
40 0.001355
41 0.001346
42 0.001325
43 0.001296
44 0.001284
45 0.001269
46 0.001256
47 0.001250
48 0.001244
49 0.001239
50 0.001246
51 0.001259
52 0.001263
53 0.001261
54 0.001274
55 0.001285
56 0.001307
57 0.001334
58 0.001358
59 0.001370
60 0.001362
61 0.001359
62 0.001335
63 0.001317
64 0.001301
65 0.001278
66 0.001257
67 0.001249
68 0.001250
69 0.001242
70 0.001244
71 0.001247
72 0.001249
73 0.001253
74 0.001266
75 0.001283
76 0.001305
77 0.001310
78 0.001332
79 0.001356
80 0.001368
81 0.001387
82 0.001407
83 0.001420
84 0.001412
85 0.001404
86 0.001395
87 0.001387
88 0.001389
89 0.001376
90 0.001364
91 0.001348
92 0.001337
93 0.001335
94 0.001327
95 0.001321
96 0.001302
97 0.001272
98 0.001245
99 0.001228
100 0.001205
101 0.001180
102 0.001140
103 0.001109
104 0.001068
105 0.001045
106 0.001028
107 0.001014
108 0.001002
109 0.000990
110 0.000980
111 0.000976
112 0.000977
113 0.000972
114 0.000968
115 0.000975
116 0.000964
117 0.000978
118 0.000977
119 0.000975
120 0.000975
121 0.000952
122 0.000927
123 0.000906
124 0.000874
125 0.000855
126 0.000836
127 0.000824
128 0.000811
129 0.000810
130 0.000790
131 0.000772
132 0.000769
133 0.000775
134 0.000786
135 0.000802
136 0.000814
137 0.000836
138 0.000846
139 0.000863
140 0.000895
141 0.000893
142 0.000884
143 0.000873
144 0.000865
145 0.000848
146 0.000841
147 0.000831
148 0.000824
149 0.000818
150 0.000817
151 0.000834
152 0.000840
153 0.000827
154 0.000813
155 0.000792
156 0.000775
157 0.000777
158 0.000779
159 0.000771
160 0.000769
161 0.000771
162 0.000773
163 0.000780
164 0.000786
165 0.000782
166 0.000776
167 0.000768
168 0.000768
169 0.000765
170 0.000747
171 0.000741
172 0.000733
173 0.000736
174 0.000741
175 0.000755
176 0.000775
177 0.000785
178 0.000783
179 0.000782
180 0.000783
181 0.000785
182 0.000785
183 0.000777
184 0.000766
185 0.000753
186 0.000748
187 0.000747
188 0.000750
189 0.000730
190 0.000710
191 0.000701
192 0.000684
193 0.000673
194 0.000674
195 0.000680
196 0.000679
197 0.000682
198 0.000690
199 0.000698
200 0.000697
201 0.000685
202 0.000674
203 0.000651
204 0.000624
205 0.000610
206 0.000587
207 0.000574
208 0.000567
209 0.000548
210 0.000534
211 0.000525
212 0.000528
213 0.000530
214 0.000534
215 0.000552
216 0.000571
217 0.000580
218 0.000584
219 0.000587
220 0.000581
221 0.000569
222 0.000568
223 0.000562
224 0.000563
225 0.000567
226 0.000566
227 0.000567
228 0.000576
229 0.000575
230 0.000564
231 0.000557
232 0.000561
233 0.000557
234 0.000558
235 0.000570
236 0.000579
237 0.000571
238 0.000559
239 0.000563
240 0.000579
241 0.000586
242 0.000601
243 0.000611
244 0.000613
245 0.000605
246 0.000607
247 0.000601
248 0.000585
249 0.000578
250 0.000575
251 0.000582
252 0.000584
253 0.000589
254 0.000597
255 0.000600
256 0.000603
257 0.000614
258 0.000630
259 0.000641
260 0.000641
261 0.000650
262 0.000640
263 0.000633
264 0.000623
265 0.000614
266 0.000619
267 0.000619
268 0.000615
269 0.000627
270 0.000639
271 0.000658
272 0.000668
273 0.000679
274 0.000682
275 0.000687
276 0.000703
277 0.000711
278 0.000722
279 0.000724
280 0.000727
281 0.000742
282 0.000727
283 0.000711
284 0.000690
285 0.000664
286 0.000638
287 0.000613
288 0.000596
289 0.000575
290 0.000556
291 0.000539
292 0.000527
293 0.000496
294 0.000470
295 0.000456
296 0.000444
297 0.000436
298 0.000432
299 0.000421
300 0.000428
301 0.000437
302 0.000433
303 0.000446
304 0.000440
305 0.000430
306 0.000420
307 0.000416
308 0.000410
309 0.000406
310 0.000406
311 0.000418
312 0.000430
313 0.000438
314 0.000446
315 0.000473
316 0.000481
317 0.000498
318 0.000512
319 0.000520
320 0.000520
321 0.000514
322 0.000518
323 0.000518
324 0.000517
325 0.000523
326 0.000520
327 0.000513
328 0.000508
329 0.000500
330 0.000498
331 0.000491
332 0.000486
333 0.000479
334 0.000480
335 0.000495
336 0.000518
337 0.000554
338 0.000559
339 0.000566
340 0.000571
341 0.000574
342 0.000582
343 0.000579
344 0.000565
345 0.000558
346 0.000545
347 0.000539
348 0.000530
349 0.000527
350 0.000513
351 0.000507
352 0.000502
353 0.000504
354 0.000508
355 0.000509
356 0.000499
357 0.000489
358 0.000475
359 0.000469
360 0.000462
361 0.000459
362 0.000450
363 0.000440
364 0.000439
365 0.000423
366 0.000409
367 0.000399
368 0.000396
369 0.000391
370 0.000385
371 0.000385
372 0.000377
373 0.000365
374 0.000362
375 0.000359
376 0.000370
377 0.000378
378 0.000384
379 0.000387
380 0.000391
381 0.000390
382 0.000388
383 0.000388
384 0.000383
385 0.000368
386 0.000359
387 0.000352
388 0.000343
389 0.000330
390 0.000309
391 0.000299
392 0.000286
393 0.000291
394 0.000307
395 0.000332
396 0.000344
397 0.000352
398 0.000367
399 0.000373
400 0.000379
401 0.000394
402 0.000402
403 0.000409
404 0.000416
405 0.000421
406 0.000428
407 0.000436
408 0.000436
409 0.000442
410 0.000450
411 0.000467
412 0.000486
413 0.000503
414 0.000513
415 0.000523
416 0.000526
417 0.000528
418 0.000542
419 0.000544
420 0.000544
421 0.000543
422 0.000537
423 0.000532
424 0.000519
425 0.000507
426 0.000497
427 0.000488
428 0.000472
429 0.000471
430 0.000473
431 0.000474
432 0.000483
433 0.000483
434 0.000486
435 0.000495
436 0.000505
437 0.000520
438 0.000542
439 0.000547
440 0.000556
441 0.000560
442 0.000563
443 0.000574
444 0.000572
445 0.000563
446 0.000541
447 0.000520
448 0.000497
449 0.000482
450 0.000457
451 0.000427
452 0.000407
453 0.000385
454 0.000367
455 0.000364
456 0.000360
457 0.000372
458 0.000382
459 0.000381
460 0.000376
461 0.000368
462 0.000352
463 0.000338
464 0.000321
465 0.000313
466 0.000310
467 0.000310
468 0.000315
469 0.000335
470 0.000347
471 0.000351
472 0.000356
473 0.000347
474 0.000337
475 0.000323
476 0.000323
477 0.000323
478 0.000319
479 0.000314
480 0.000306
481 0.000289
482 0.000270
483 0.000255
484 0.000235
485 0.000211
486 0.000196
487 0.000185
488 0.000183
489 0.000192
490 0.000197
491 0.000200
492 0.000199
493 0.000205
494 0.000226
495 0.000237
496 0.000248
497 0.000265
498 0.000283
499 0.000301
500 0.000320
501 0.000341
502 0.000355
503 0.000366
504 0.000369
505 0.000366
506 0.000372
507 0.000367
508 0.000361
509 0.000355
510 0.000352
511 0.000340
512 0.000334
513 0.000330
514 0.000329
515 0.000324
516 0.000328
517 0.000328
518 0.000332
519 0.000332
520 0.000338
521 0.000342
522 0.000345
523 0.000341
524 0.000359
525 0.000365
526 0.000367
527 0.000372
528 0.000378
529 0.000375
530 0.000373
531 0.000374
532 0.000383
533 0.000384
534 0.000383
535 0.000388
536 0.000390
537 0.000392
538 0.000386
539 0.000389
540 0.000391
541 0.000384
542 0.000381
543 0.000375
544 0.000372
545 0.000363
546 0.000356
547 0.000351
548 0.000337
549 0.000322
550 0.000320
551 0.000324
552 0.000329
553 0.000338
554 0.000346
555 0.000356
556 0.000372
557 0.000385
558 0.000398
559 0.000404
560 0.000403
561 0.000401
562 0.000394
563 0.000386
564 0.000377
565 0.000365
566 0.000352
567 0.000335
568 0.000325
569 0.000322
570 0.000318
571 0.000313
572 0.000315
573 0.000312
574 0.000299
575 0.000282
576 0.000272
577 0.000268
578 0.000268
579 0.000271
580 0.000280
581 0.000290
582 0.000302
583 0.000317
584 0.000334
585 0.000339
586 0.000350
587 0.000360
588 0.000364
589 0.000361
590 0.000358
591 0.000353
592 0.000350
593 0.000347
594 0.000344
595 0.000344
596 0.000351
597 0.000362
598 0.000370
599 0.000361
600 0.000353
601 0.000339
602 0.000316
603 0.000303
604 0.000293
605 0.000280
606 0.000275
607 0.000276
608 0.000272
609 0.000270
610 0.000267
611 0.000260
612 0.000252
613 0.000248
614 0.000248
615 0.000249
616 0.000241
617 0.000237
618 0.000238
619 0.000235
620 0.000240
621 0.000240
622 0.000233
623 0.000232
624 0.000221
625 0.000210
626 0.000196
627 0.000184
628 0.000168
629 0.000163
630 0.000163
631 0.000159
632 0.000146
633 0.000142
634 0.000139
635 0.000138
636 0.000125
637 0.000122
638 0.000128
639 0.000137
640 0.000144
641 0.000152
642 0.000154
643 0.000158
644 0.000165
645 0.000175
646 0.000181
647 0.000182
648 0.000175
649 0.000168
650 0.000151
651 0.000135
652 0.000128
653 0.000121
654 0.000127
655 0.000128
656 0.000133
657 0.000141
658 0.000149
659 0.000148
660 0.000146
661 0.000138
662 0.000132
663 0.000116
664 0.000110
665 0.000116
666 0.000118
667 0.000125
668 0.000131
669 0.000133
670 0.000129
671 0.000132
672 0.000136
673 0.000137
674 0.000136
675 0.000140
676 0.000152
677 0.000160
678 0.000163
679 0.000165
680 0.000174
681 0.000171
682 0.000169
683 0.000174
684 0.000180
685 0.000191
686 0.000196
687 0.000200
688 0.000201
689 0.000202
690 0.000198
691 0.000196
692 0.000188
693 0.000188
694 0.000187
695 0.000181
696 0.000177
697 0.000174
698 0.000177
699 0.000172
700 0.000161
701 0.000159
702 0.000152
703 0.000143
704 0.000135
705 0.000131
706 0.000127
707 0.000115
708 0.000109
709 0.000102
710 0.000087
711 0.000075
712 0.000067
713 0.000063
714 0.000060
715 0.000064
716 0.000070
717 0.000069
718 0.000066
719 0.000065
720 0.000059
721 0.000059
722 0.000062
723 0.000068
724 0.000082
725 0.000091
726 0.000102
727 0.000103
728 0.000098
729 0.000088
730 0.000084
731 0.000073
732 0.000063
733 0.000054
734 0.000046
735 0.000040
736 0.000034
737 0.000032
738 0.000035
739 0.000039
740 0.000045
741 0.000048
742 0.000044
743 0.000036
744 0.000038
745 0.000042
746 0.000048
747 0.000057
748 0.000079
749 0.000095
750 0.000115
751 0.000118
752 0.000125
753 0.000133
754 0.000136
755 0.000150
756 0.000162
757 0.000169
758 0.000176
759 0.000187
760 0.000194
761 0.000198
762 0.000196
763 0.000191
764 0.000185
765 0.000175
766 0.000168
767 0.000160
768 0.000150
769 0.000134
770 0.000119
771 0.000108
772 0.000109
773 0.000117
774 0.000128
775 0.000139
776 0.000142
777 0.000139
778 0.000132
779 0.000127
780 0.000129
781 0.000135
782 0.000142
783 0.000144
784 0.000142
785 0.000146
786 0.000146
787 0.000147
788 0.000145
789 0.000141
790 0.000130
791 0.000124
792 0.000120
793 0.000110
794 0.000101
795 0.000095
796 0.000089
797 0.000090
798 0.000099
799 0.000097
800 0.000096
801 0.000090
802 0.000083
803 0.000077
804 0.000068
805 0.000065
806 0.000065
807 0.000066
808 0.000070
809 0.000075
