# i correlation
1 0.001855
2 0.001745
3 0.001665
4 0.001583
5 0.001520
6 0.001465
7 0.001411
8 0.001358
9 0.001308
10 0.001264
11 0.001225
12 0.001197
13 0.001181
14 0.001158
15 0.001138
16 0.001121
17 0.001097
18 0.001063
19 0.001039
20 0.001039
21 0.001025
22 0.001018
23 0.001005
24 0.000987
25 0.000979
26 0.000970
27 0.000961
28 0.000965
29 0.000963
30 0.000974
31 0.000961
32 0.000953
33 0.000941
34 0.000929
35 0.000919
36 0.000922
37 0.000918
38 0.000911
39 0.000916
40 0.000922
41 0.000934
42 0.000945
43 0.000951
44 0.000961
45 0.000976
46 0.000976
47 0.000980
48 0.000973
49 0.000955
50 0.000935
51 0.000908
52 0.000894
53 0.000865
54 0.000822
55 0.000792
56 0.000756
57 0.000724
58 0.000690
59 0.000672
60 0.000664
61 0.000667
62 0.000667
63 0.000668
64 0.000653
65 0.000641
66 0.000644
67 0.000633
68 0.000628
69 0.000626
70 0.000626
71 0.000626
72 0.000633
73 0.000646
74 0.000650
75 0.000666
76 0.000680
77 0.000685
78 0.000703
79 0.000714
80 0.000711
81 0.000699
82 0.000687
83 0.000692
84 0.000703
85 0.000715
86 0.000727
87 0.000723
88 0.000721
89 0.000722
90 0.000707
91 0.000708
92 0.000702
93 0.000701
94 0.000707
95 0.000697
96 0.000699
97 0.000691
98 0.000682
99 0.000673
100 0.000677
101 0.000659
102 0.000652
103 0.000647
104 0.000639
105 0.000642
106 0.000657
107 0.000659
108 0.000665
109 0.000663
110 0.000662
111 0.000657
112 0.000643
113 0.000654
114 0.000655
115 0.000657
116 0.000674
117 0.000677
118 0.000684
119 0.000698
120 0.000708
121 0.000704
122 0.000710
123 0.000716
124 0.000719
125 0.000719
126 0.000726
127 0.000721
128 0.000712
129 0.000700
130 0.000698
131 0.000689
132 0.000671
133 0.000667
134 0.000663
135 0.000669
136 0.000686
137 0.000686
138 0.000693
139 0.000705
140 0.000713
141 0.000726
142 0.000729
143 0.000724
144 0.000728
145 0.000719
146 0.000711
147 0.000703
148 0.000702
149 0.000703
150 0.000706
151 0.000713
152 0.000723
153 0.000726
154 0.000724
155 0.000726
156 0.000727
157 0.000725
158 0.000714
159 0.000719
160 0.000736
161 0.000740
162 0.000739
163 0.000748
164 0.000748
165 0.000745
166 0.000748
167 0.000758
168 0.000764
169 0.000772
170 0.000770
171 0.000759
172 0.000755
173 0.000745
174 0.000721
175 0.000702
176 0.000700
177 0.000687
178 0.000668
179 0.000656
180 0.000655
181 0.000641
182 0.000641
183 0.000644
184 0.000645
185 0.000654
186 0.000660
187 0.000664
188 0.000666
189 0.000668
190 0.000658
191 0.000652
192 0.000637
193 0.000629
194 0.000614
195 0.000589
196 0.000582
197 0.000574
198 0.000568
199 0.000567
200 0.000555
201 0.000535
202 0.000519
203 0.000500
204 0.000495
205 0.000495
206 0.000486
207 0.000468
208 0.000443
209 0.000426
210 0.000422
211 0.000424
212 0.000436
213 0.000451
214 0.000455
215 0.000463
216 0.000474
217 0.000473
218 0.000464
219 0.000466
220 0.000468
221 0.000462
222 0.000462
223 0.000450
224 0.000443
225 0.000439
226 0.000435
227 0.000444
228 0.000463
229 0.000486
230 0.000510
231 0.000523
232 0.000545
233 0.000573
234 0.000584
235 0.000606
236 0.000629
237 0.000641
238 0.000641
239 0.000639
240 0.000636
241 0.000631
242 0.000628
243 0.000622
244 0.000621
245 0.000614
246 0.000618
247 0.000619
248 0.000632
249 0.000645
250 0.000648
251 0.000643
252 0.000644
253 0.000632
254 0.000618
255 0.000616
256 0.000608
257 0.000621
258 0.000621
259 0.000615
260 0.000619
261 0.000623
262 0.000634
263 0.000644
264 0.000654
265 0.000671
266 0.000689
267 0.000698
268 0.000705
269 0.000706
270 0.000700
271 0.000683
272 0.000685
273 0.000684
274 0.000675
275 0.000666
276 0.000674
277 0.000689
278 0.000699
279 0.000708
280 0.000714
281 0.000707
282 0.000719
283 0.000727
284 0.000718
285 0.000726
286 0.000728
287 0.000718
288 0.000706
289 0.000694
290 0.000690
291 0.000690
292 0.000689
293 0.000693
294 0.000693
295 0.000690
296 0.000696
297 0.000696
298 0.000694
299 0.000686
300 0.000682
301 0.000669
302 0.000664
303 0.000651
304 0.000648
305 0.000645
306 0.000641
307 0.000637
308 0.000637
309 0.000641
310 0.000637
311 0.000637
312 0.000644
313 0.000650
314 0.000648
315 0.000654
316 0.000658
317 0.000660
318 0.000666
319 0.000652
320 0.000641
321 0.000634
322 0.000620
323 0.000614
324 0.000614
325 0.000601
326 0.000587
327 0.000581
328 0.000576
329 0.000572
330 0.000569
331 0.000565
332 0.000563
333 0.000568
334 0.000559
335 0.000550
336 0.000545
337 0.000530
338 0.000530
339 0.000533
340 0.000529
341 0.000523
342 0.000509
343 0.000507
344 0.000497
345 0.000487
346 0.000491
347 0.000480
348 0.000485
349 0.000483
350 0.000475
351 0.000462
352 0.000456
353 0.000461
354 0.000469
355 0.000482
356 0.000490
357 0.000494
358 0.000497
359 0.000497
360 0.000492
361 0.000490
362 0.000479
363 0.000479
364 0.000481
365 0.000482
366 0.000482
367 0.000467
368 0.000458
369 0.000444
370 0.000439
371 0.000432
372 0.000431
373 0.000435
374 0.000429
375 0.000424
376 0.000432
377 0.000429
378 0.000433
379 0.000437
380 0.000441
381 0.000448
382 0.000449
383 0.000457
384 0.000459
385 0.000469
386 0.000476
387 0.000469
388 0.000463
389 0.000459
390 0.000459
391 0.000461
392 0.000452
393 0.000457
394 0.000453
395 0.000447
396 0.000450
397 0.000432
398 0.000423
399 0.000418
400 0.000416
401 0.000421
402 0.000434
403 0.000446
404 0.000457
405 0.000459
406 0.000465
407 0.000466
408 0.000465
409 0.000485
410 0.000498
411 0.000509
412 0.000512
413 0.000514
414 0.000500
415 0.000486
416 0.000487
417 0.000496
418 0.000505
419 0.000510
420 0.000508
421 0.000508
422 0.000506
423 0.000500
424 0.000503
425 0.000503
426 0.000498
427 0.000494
428 0.000485
429 0.000477
430 0.000468
431 0.000463
432 0.000465
433 0.000472
434 0.000473
435 0.000469
436 0.000460
437 0.000452
438 0.000432
439 0.000427
440 0.000422
441 0.000405
442 0.000399
443 0.000388
444 0.000372
445 0.000358
446 0.000349
447 0.000331
448 0.000327
449 0.000334
450 0.000334
451 0.000337
452 0.000341
453 0.000352
454 0.000364
455 0.000379
456 0.000398
457 0.000417
458 0.000428
459 0.000443
460 0.000442
461 0.000446
462 0.000458
463 0.000455
464 0.000454
465 0.000471
466 0.000489
467 0.000487
468 0.000483
469 0.000489
470 0.000489
471 0.000484
472 0.000492
473 0.000497
474 0.000505
475 0.000494
476 0.000483
477 0.000474
478 0.000467
479 0.000459
480 0.000442
481 0.000424
482 0.000406
483 0.000380
484 0.000367
485 0.000355
486 0.000340
487 0.000332
488 0.000324
489 0.000315
490 0.000311
491 0.000302
492 0.000292
493 0.000276
494 0.000269
495 0.000261
496 0.000265
497 0.000268
498 0.000273
499 0.000281
500 0.000290
501 0.000304
502 0.000316
503 0.000326
504 0.000336
505 0.000342
506 0.000353
507 0.000356
508 0.000358
509 0.000368
510 0.000374
511 0.000368
512 0.000353
513 0.000333
514 0.000322
515 0.000306
516 0.000290
517 0.000275
518 0.000267
519 0.000261
520 0.000252
521 0.000245
522 0.000239
523 0.000228
524 0.000222
525 0.000212
526 0.000207
527 0.000201
528 0.000192
529 0.000193
530 0.000196
531 0.000200
532 0.000200
533 0.000197
534 0.000190
535 0.000188
536 0.000181
537 0.000175
538 0.000161
539 0.000163
540 0.000168
541 0.000162
542 0.000159
543 0.000156
544 0.000162
545 0.000181
546 0.000202
547 0.000215
548 0.000224
549 0.000228
550 0.000237
551 0.000250
552 0.000266
553 0.000288
554 0.000297
555 0.000301
556 0.000300
557 0.000291
558 0.000278
559 0.000276
560 0.000268
561 0.000264
562 0.000266
563 0.000273
564 0.000268
565 0.000266
566 0.000259
567 0.000245
568 0.000231
569 0.000229
570 0.000221
571 0.000216
572 0.000217
573 0.000223
574 0.000222
575 0.000225
576 0.000238
577 0.000241
578 0.000242
579 0.000246
580 0.000245
581 0.000235
582 0.000231
583 0.000223
584 0.000217
585 0.000213
586 0.000209
587 0.000210
588 0.000211
589 0.000220
590 0.000220
591 0.000219
592 0.000224
593 0.000231
594 0.000239
595 0.000254
596 0.000268
597 0.000280
598 0.000284
599 0.000270
600 0.000261
601 0.000256
602 0.000244
603 0.000236
604 0.000223
605 0.000217
606 0.000213
607 0.000199
608 0.000188
609 0.000180
610 0.000177
611 0.000166
612 0.000158
613 0.000148
614 0.000137
615 0.000136
616 0.000145
617 0.000150
618 0.000161
619 0.000163
620 0.000159
621 0.000153
622 0.000147
623 0.000139
624 0.000141
625 0.000153
626 0.000164
627 0.000160
628 0.000159
629 0.000156
630 0.000156
631 0.000164
632 0.000165
633 0.000167
634 0.000165
635 0.000161
636 0.000156
637 0.000146
638 0.000153
639 0.000162
640 0.000163
641 0.000173
642 0.000188
643 0.000186
644 0.000182
645 0.000185
646 0.000187
647 0.000186
648 0.000191
649 0.000197
650 0.000199
651 0.000198
652 0.000197
653 0.000197
654 0.000193
655 0.000200
656 0.000197
657 0.000189
658 0.000188
659 0.000189
660 0.000182
661 0.000181
662 0.000180
663 0.000179
664 0.000173
665 0.000164
666 0.000160
667 0.000161
668 0.000162
669 0.000161
670 0.000160
671 0.000164
672 0.000172
673 0.000176
674 0.000171
675 0.000171
676 0.000175
677 0.000170
678 0.000164
679 0.000156
680 0.000139
681 0.000127
682 0.000114
683 0.000107
684 0.000092
685 0.000078
686 0.000069
687 0.000063
688 0.000056
689 0.000059
690 0.000066
691 0.000074
692 0.000079
693 0.000074
694 0.000077
695 0.000082
696 0.000085
697 0.000092
698 0.000094
699 0.000097
700 0.000106
701 0.000114
702 0.000121
703 0.000132
704 0.000144
705 0.000147
706 0.000152
707 0.000152
708 0.000148
709 0.000145
710 0.000142
711 0.000142
712 0.000139
713 0.000141
714 0.000147
715 0.000152
716 0.000154
717 0.000160
718 0.000168
719 0.000173
720 0.000180
721 0.000182
722 0.000189
723 0.000192
724 0.000202
725 0.000210
726 0.000215
727 0.000222
728 0.000226
729 0.000221
730 0.000209
731 0.000200
732 0.000186
733 0.000172
734 0.000167
735 0.000166
736 0.000166
737 0.000163
738 0.000167
739 0.000178
740 0.000190
741 0.000198
742 0.000208
743 0.000207
744 0.000212
745 0.000215
746 0.000214
747 0.000210
748 0.000205
749 0.000204
750 0.000201
751 0.000204
752 0.000214
753 0.000213
754 0.000210
755 0.000205
756 0.000199
757 0.000197
758 0.000199
759 0.000194
760 0.000188
761 0.000187
762 0.000180
763 0.000172
764 0.000171
765 0.000169
766 0.000175
767 0.000184
768 0.000189
769 0.000191
770 0.000191
771 0.000183
772 0.000177
773 0.000171
774 0.000167
775 0.000167
776 0.000163
777 0.000158
778 0.000156
779 0.000153
780 0.000148
781 0.000145
782 0.000140
783 0.000136
784 0.000129
785 0.000116
786 0.000105
787 0.000100
788 0.000097
789 0.000098
790 0.000098
791 0.000091
792 0.000086
793 0.000081
794 0.000077
795 0.000076
796 0.000076
797 0.000078
798 0.000076
799 0.000067
800 0.000056
801 0.000047
802 0.000043
803 0.000040
804 0.000035
805 0.000029
806 0.000026
807 0.000018
808 0.000014
809 0.000014
