# i correlation
1 0.001554
2 0.001513
3 0.001478
4 0.001449
5 0.001423
6 0.001402
7 0.001385
8 0.001370
9 0.001354
10 0.001338
11 0.001330
12 0.001326
13 0.001315
14 0.001305
15 0.001295
16 0.001283
17 0.001278
18 0.001276
19 0.001269
20 0.001262
21 0.001256
22 0.001249
23 0.001241
24 0.001237
25 0.001235
26 0.001227
27 0.001216
28 0.001205
29 0.001197
30 0.001194
31 0.001189
32 0.001188
33 0.001186
34 0.001183
35 0.001182
36 0.001176
37 0.001170
38 0.001165
39 0.001159
40 0.001151
41 0.001143
42 0.001140
43 0.001135
44 0.001126
45 0.001119
46 0.001114
47 0.001113
48 0.001113
49 0.001116
50 0.001119
51 0.001120
52 0.001119
53 0.001116
54 0.001114
55 0.001111
56 0.001108
57 0.001105
58 0.001100
59 0.001094
60 0.001088
61 0.001083
62 0.001074
63 0.001062
64 0.001055
65 0.001048
66 0.001042
67 0.001036
68 0.001030
69 0.001023
70 0.001015
71 0.001004
72 0.000996
73 0.000992
74 0.000987
75 0.000982
76 0.000975
77 0.000969
78 0.000963
79 0.000962
80 0.000960
81 0.000957
82 0.000956
83 0.000953
84 0.000949
85 0.000946
86 0.000947
87 0.000944
88 0.000938
89 0.000933
90 0.000928
91 0.000927
92 0.000928
93 0.000926
94 0.000928
95 0.000926
96 0.000923
97 0.000919
98 0.000916
99 0.000912
100 0.000906
101 0.000902
102 0.000900
103 0.000898
104 0.000895
105 0.000892
106 0.000888
107 0.000883
108 0.000875
109 0.000871
110 0.000869
111 0.000866
112 0.000864
113 0.000860
114 0.000855
115 0.000853
116 0.000850
117 0.000848
118 0.000845
119 0.000846
120 0.000843
121 0.000839
122 0.000835
123 0.000830
124 0.000825
125 0.000820
126 0.000815
127 0.000815
128 0.000815
129 0.000818
130 0.000819
131 0.000819
132 0.000817
133 0.000813
134 0.000811
135 0.000811
136 0.000812
137 0.000816
138 0.000815
139 0.000815
140 0.000816
141 0.000815
142 0.000814
143 0.000811
144 0.000811
145 0.000810
146 0.000805
147 0.000804
148 0.000802
149 0.000803
150 0.000803
151 0.000800
152 0.000800
153 0.000796
154 0.000795
155 0.000792
156 0.000790
157 0.000789
158 0.000785
159 0.000783
160 0.000780
161 0.000780
162 0.000777
163 0.000771
164 0.000771
165 0.000770
166 0.000771
167 0.000767
168 0.000764
169 0.000762
170 0.000758
171 0.000751
172 0.000748
173 0.000744
174 0.000742
175 0.000739
176 0.000735
177 0.000731
178 0.000727
179 0.000724
180 0.000719
181 0.000715
182 0.000708
183 0.000706
184 0.000704
185 0.000702
186 0.000704
187 0.000700
188 0.000696
189 0.000696
190 0.000696
191 0.000698
192 0.000696
193 0.000692
194 0.000689
195 0.000685
196 0.000676
197 0.000671
198 0.000670
199 0.000666
200 0.000662
201 0.000661
202 0.000658
203 0.000656
204 0.000657
205 0.000657
206 0.000655
207 0.000655
208 0.000657
209 0.000657
210 0.000654
211 0.000650
212 0.000646
213 0.000642
214 0.000636
215 0.000635
216 0.000635
217 0.000632
218 0.000631
219 0.000633
220 0.000635
221 0.000633
222 0.000632
223 0.000632
224 0.000631
225 0.000631
226 0.000633
227 0.000637
228 0.000633
229 0.000625
230 0.000624
231 0.000626
232 0.000626
233 0.000625
234 0.000625
235 0.000619
236 0.000614
237 0.000606
238 0.000598
239 0.000596
240 0.000594
241 0.000597
242 0.000597
243 0.000600
244 0.000601
245 0.000607
246 0.000609
247 0.000609
248 0.000605
249 0.000598
250 0.000594
251 0.000594
252 0.000591
253 0.000587
254 0.000579
255 0.000577
256 0.000575
257 0.000574
258 0.000576
259 0.000580
260 0.000582
261 0.000581
262 0.000579
263 0.000577
264 0.000577
265 0.000574
266 0.000575
267 0.000573
268 0.000572
269 0.000572
270 0.000574
271 0.000576
272 0.000577
273 0.000575
274 0.000572
275 0.000572
276 0.000570
277 0.000573
278 0.000575
279 0.000578
280 0.000580
281 0.000581
282 0.000578
283 0.000577
284 0.000574
285 0.000572
286 0.000565
287 0.000562
288 0.000560
289 0.000556
290 0.000553
291 0.000548
292 0.000545
293 0.000538
294 0.000534
295 0.000534
296 0.000535
297 0.000537
298 0.000537
299 0.000537
300 0.000534
301 0.000534
302 0.000533
303 0.000533
304 0.000530
305 0.000530
306 0.000533
307 0.000534
308 0.000532
309 0.000531
310 0.000532
311 0.000531
312 0.000529
313 0.000532
314 0.000535
315 0.000533
316 0.000530
317 0.000527
318 0.000524
319 0.000520
320 0.000520
321 0.000520
322 0.000522
323 0.000520
324 0.000515
325 0.000513
326 0.000510
327 0.000505
328 0.000502
329 0.000497
330 0.000496
331 0.000496
332 0.000494
333 0.000491
334 0.000490
335 0.000490
336 0.000485
337 0.000486
338 0.000490
339 0.000496
340 0.000501
341 0.000506
342 0.000505
343 0.000504
344 0.000499
345 0.000494
346 0.000493
347 0.000489
348 0.000485
349 0.000483
350 0.000481
351 0.000475
352 0.000470
353 0.000467
354 0.000461
355 0.000460
356 0.000459
357 0.000455
358 0.000453
359 0.000451
360 0.000450
361 0.000449
362 0.000448
363 0.000451
364 0.000455
365 0.000457
366 0.000453
367 0.000452
368 0.000450
369 0.000446
370 0.000444
371 0.000441
372 0.000440
373 0.000436
374 0.000436
375 0.000436
376 0.000438
377 0.000441
378 0.000444
379 0.000439
380 0.000432
381 0.000430
382 0.000431
383 0.000434
384 0.000434
385 0.000433
386 0.000430
387 0.000426
388 0.000423
389 0.000424
390 0.000426
391 0.000429
392 0.000428
393 0.000426
394 0.000421
395 0.000419
396 0.000421
397 0.000422
398 0.000422
399 0.000425
400 0.000430
401 0.000432
402 0.000432
403 0.000429
404 0.000428
405 0.000424
406 0.000417
407 0.000412
408 0.000412
409 0.000413
410 0.000415
411 0.000415
412 0.000416
413 0.000418
414 0.000418
415 0.000412
416 0.000409
417 0.000407
418 0.000403
419 0.000398
420 0.000395
421 0.000392
422 0.000393
423 0.000392
424 0.000392
425 0.000396
426 0.000398
427 0.000399
428 0.000397
429 0.000390
430 0.000384
431 0.000378
432 0.000376
433 0.000372
434 0.000370
435 0.000370
436 0.000372
437 0.000372
438 0.000372
439 0.000374
440 0.000374
441 0.000374
442 0.000374
443 0.000371
444 0.000372
445 0.000371
446 0.000370
447 0.000368
448 0.000362
449 0.000360
450 0.000360
451 0.000364
452 0.000366
453 0.000367
454 0.000364
455 0.000359
456 0.000354
457 0.000351
458 0.000349
459 0.000347
460 0.000343
461 0.000341
462 0.000338
463 0.000337
464 0.000336
465 0.000338
466 0.000343
467 0.000344
468 0.000345
469 0.000347
470 0.000349
471 0.000351
472 0.000353
473 0.000353
474 0.000351
475 0.000349
476 0.000345
477 0.000344
478 0.000343
479 0.000345
480 0.000345
481 0.000342
482 0.000342
483 0.000345
484 0.000347
485 0.000346
486 0.000347
487 0.000349
488 0.000350
489 0.000347
490 0.000344
491 0.000342
492 0.000341
493 0.000338
494 0.000336
495 0.000334
496 0.000335
497 0.000333
498 0.000331
499 0.000329
500 0.000329
501 0.000325
502 0.000321
503 0.000318
504 0.000317
505 0.000318
506 0.000315
507 0.000310
508 0.000304
509 0.000297
510 0.000290
511 0.000286
512 0.000282
513 0.000274
514 0.000271
515 0.000265
516 0.000261
517 0.000259
518 0.000260
519 0.000261
520 0.000262
521 0.000265
522 0.000267
523 0.000269
524 0.000267
525 0.000264
526 0.000260
527 0.000254
528 0.000248
529 0.000249
530 0.000248
531 0.000245
532 0.000242
533 0.000244
534 0.000243
535 0.000240
536 0.000238
537 0.000235
538 0.000235
539 0.000236
540 0.000235
541 0.000237
542 0.000237
543 0.000240
544 0.000240
545 0.000240
546 0.000236
547 0.000236
548 0.000235
549 0.000235
550 0.000235
551 0.000237
552 0.000237
553 0.000238
554 0.000239
555 0.000239
556 0.000238
557 0.000239
558 0.000239
559 0.000236
560 0.000232
561 0.000228
562 0.000225
563 0.000221
564 0.000217
565 0.000215
566 0.000209
567 0.000201
568 0.000196
569 0.000191
570 0.000186
571 0.000181
572 0.000176
573 0.000172
574 0.000168
575 0.000162
576 0.000160
577 0.000156
578 0.000152
579 0.000147
580 0.000146
581 0.000144
582 0.000144
583 0.000144
584 0.000142
585 0.000142
586 0.000147
587 0.000149
588 0.000150
589 0.000149
590 0.000150
591 0.000150
592 0.000149
593 0.000148
594 0.000148
595 0.000147
596 0.000143
597 0.000140
598 0.000139
599 0.000141
600 0.000141
601 0.000140
602 0.000141
603 0.000142
604 0.000143
605 0.000143
606 0.000145
607 0.000145
608 0.000144
609 0.000145
610 0.000145
611 0.000147
612 0.000144
613 0.000142
614 0.000138
615 0.000137
616 0.000136
617 0.000137
618 0.000140
619 0.000145
620 0.000150
621 0.000153
622 0.000154
623 0.000153
624 0.000152
625 0.000150
626 0.000147
627 0.000144
628 0.000142
629 0.000141
630 0.000138
631 0.000137
632 0.000135
633 0.000132
634 0.000128
635 0.000126
636 0.000126
637 0.000128
638 0.000130
639 0.000130
640 0.000130
641 0.000133
642 0.000134
643 0.000134
644 0.000138
645 0.000142
646 0.000142
647 0.000144
648 0.000145
649 0.000148
650 0.000149
651 0.000149
652 0.000151
653 0.000154
654 0.000155
655 0.000156
656 0.000160
657 0.000162
658 0.000165
659 0.000170
660 0.000176
661 0.000180
662 0.000183
663 0.000184
664 0.000184
665 0.000179
666 0.000175
667 0.000170
668 0.000167
669 0.000162
670 0.000160
671 0.000161
672 0.000165
673 0.000169
674 0.000172
675 0.000175
676 0.000172
677 0.000169
678 0.000168
679 0.000167
680 0.000168
681 0.000170
682 0.000173
683 0.000174
684 0.000177
685 0.000179
686 0.000181
687 0.000182
688 0.000183
689 0.000183
690 0.000182
691 0.000182
692 0.000182
693 0.000181
694 0.000178
695 0.000175
696 0.000170
697 0.000169
698 0.000167
699 0.000166
700 0.000164
701 0.000161
702 0.000159
703 0.000159
704 0.000158
705 0.000159
706 0.000161
707 0.000162
708 0.000162
709 0.000162
710 0.000163
711 0.000166
712 0.000168
713 0.000169
714 0.000171
715 0.000173
716 0.000171
717 0.000172
718 0.000172
719 0.000170
720 0.000167
721 0.000162
722 0.000160
723 0.000159
724 0.000160
725 0.000159
726 0.000159
727 0.000160
728 0.000159
729 0.000156
730 0.000157
731 0.000159
732 0.000159
733 0.000158
734 0.000156
735 0.000153
736 0.000149
737 0.000145
738 0.000143
739 0.000144
740 0.000142
741 0.000142
742 0.000142
743 0.000144
744 0.000143
745 0.000142
746 0.000139
747 0.000138
748 0.000140
749 0.000142
750 0.000143
751 0.000143
752 0.000146
753 0.000147
754 0.000147
755 0.000148
756 0.000150
757 0.000151
758 0.000147
759 0.000143
760 0.000140
761 0.000136
762 0.000132
763 0.000130
764 0.000130
765 0.000131
766 0.000134
767 0.000136
768 0.000138
769 0.000141
770 0.000140
771 0.000136
772 0.000130
773 0.000125
774 0.000123
775 0.000123
776 0.000122
777 0.000123
778 0.000123
779 0.000123
780 0.000123
781 0.000125
782 0.000125
783 0.000124
784 0.000123
785 0.000124
786 0.000124
787 0.000124
788 0.000126
789 0.000126
790 0.000128
791 0.000131
792 0.000133
793 0.000131
794 0.000129
795 0.000129
796 0.000127
797 0.000125
798 0.000121
799 0.000117
800 0.000114
801 0.000113
802 0.000112
803 0.000113
804 0.000114
805 0.000113
806 0.000113
807 0.000111
808 0.000109
809 0.000109
