# i correlation
1 0.001702
2 0.001662
3 0.001626
4 0.001597
5 0.001574
6 0.001554
7 0.001537
8 0.001520
9 0.001504
10 0.001490
11 0.001473
12 0.001455
13 0.001438
14 0.001419
15 0.001405
16 0.001397
17 0.001391
18 0.001382
19 0.001373
20 0.001364
21 0.001359
22 0.001348
23 0.001340
24 0.001331
25 0.001326
26 0.001323
27 0.001323
28 0.001325
29 0.001324
30 0.001322
31 0.001322
32 0.001318
33 0.001317
34 0.001314
35 0.001308
36 0.001303
37 0.001299
38 0.001298
39 0.001293
40 0.001292
41 0.001288
42 0.001285
43 0.001285
44 0.001282
45 0.001278
46 0.001280
47 0.001278
48 0.001275
49 0.001270
50 0.001260
51 0.001256
52 0.001252
53 0.001248
54 0.001243
55 0.001235
56 0.001229
57 0.001223
58 0.001217
59 0.001207
60 0.001197
61 0.001187
62 0.001179
63 0.001170
64 0.001162
65 0.001155
66 0.001144
67 0.001137
68 0.001130
69 0.001122
70 0.001112
71 0.001109
72 0.001105
73 0.001104
74 0.001104
75 0.001101
76 0.001099
77 0.001098
78 0.001097
79 0.001098
80 0.001097
81 0.001098
82 0.001096
83 0.001095
84 0.001096
85 0.001094
86 0.001090
87 0.001087
88 0.001083
89 0.001077
90 0.001072
91 0.001066
92 0.001057
93 0.001048
94 0.001039
95 0.001034
96 0.001032
97 0.001023
98 0.001016
99 0.001010
100 0.001003
101 0.000999
102 0.000995
103 0.000988
104 0.000980
105 0.000973
106 0.000967
107 0.000961
108 0.000953
109 0.000946
110 0.000937
111 0.000932
112 0.000931
113 0.000932
114 0.000934
115 0.000940
116 0.000942
117 0.000944
118 0.000944
119 0.000940
120 0.000935
121 0.000930
122 0.000926
123 0.000922
124 0.000916
125 0.000910
126 0.000905
127 0.000904
128 0.000903
129 0.000903
130 0.000903
131 0.000898
132 0.000892
133 0.000889
134 0.000884
135 0.000876
136 0.000869
137 0.000865
138 0.000866
139 0.000870
140 0.000876
141 0.000878
142 0.000875
143 0.000869
144 0.000863
145 0.000861
146 0.000858
147 0.000854
148 0.000852
149 0.000851
150 0.000849
151 0.000846
152 0.000842
153 0.000838
154 0.000832
155 0.000828
156 0.000829
157 0.000829
158 0.000830
159 0.000832
160 0.000833
161 0.000831
162 0.000824
163 0.000823
164 0.000821
165 0.000817
166 0.000814
167 0.000812
168 0.000811
169 0.000811
170 0.000816
171 0.000818
172 0.000817
173 0.000815
174 0.000812
175 0.000803
176 0.000798
177 0.000792
178 0.000786
179 0.000780
180 0.000775
181 0.000768
182 0.000761
183 0.000754
184 0.000749
185 0.000743
186 0.000739
187 0.000737
188 0.000735
189 0.000734
190 0.000732
191 0.000734
192 0.000733
193 0.000731
194 0.000731
195 0.000728
196 0.000725
197 0.000725
198 0.000725
199 0.000723
200 0.000724
201 0.000724
202 0.000725
203 0.000723
204 0.000725
205 0.000731
206 0.000732
207 0.000730
208 0.000723
209 0.000713
210 0.000706
211 0.000697
212 0.000690
213 0.000683
214 0.000679
215 0.000673
216 0.000667
217 0.000664
218 0.000660
219 0.000657
220 0.000651
221 0.000645
222 0.000642
223 0.000640
224 0.000638
225 0.000638
226 0.000638
227 0.000635
228 0.000632
229 0.000631
230 0.000632
231 0.000634
232 0.000634
233 0.000634
234 0.000633
235 0.000633
236 0.000633
237 0.000631
238 0.000630
239 0.000626
240 0.000624
241 0.000622
242 0.000622
243 0.000620
244 0.000618
245 0.000615
246 0.000609
247 0.000607
248 0.000608
249 0.000605
250 0.000600
251 0.000596
252 0.000594
253 0.000592
254 0.000593
255 0.000593
256 0.000594
257 0.000593
258 0.000592
259 0.000595
260 0.000598
261 0.000604
262 0.000609
263 0.000613
264 0.000615
265 0.000613
266 0.000608
267 0.000605
268 0.000601
269 0.000598
270 0.000597
271 0.000597
272 0.000598
273 0.000602
274 0.000604
275 0.000604
276 0.000596
277 0.000588
278 0.000585
279 0.000584
280 0.000583
281 0.000582
282 0.000579
283 0.000576
284 0.000575
285 0.000574
286 0.000571
287 0.000569
288 0.000565
289 0.000564
290 0.000564
291 0.000566
292 0.000565
293 0.000564
294 0.000564
295 0.000564
296 0.000563
297 0.000561
298 0.000557
299 0.000552
300 0.000550
301 0.000548
302 0.000546
303 0.000542
304 0.000539
305 0.000536
306 0.000535
307 0.000536
308 0.000535
309 0.000532
310 0.000527
311 0.000523
312 0.000520
313 0.000520
314 0.000521
315 0.000522
316 0.000523
317 0.000523
318 0.000525
319 0.000530
320 0.000537
321 0.000543
322 0.000546
323 0.000548
324 0.000550
325 0.000547
326 0.000543
327 0.000542
328 0.000536
329 0.000530
330 0.000525
331 0.000523
332 0.000522
333 0.000518
334 0.000515
335 0.000515
336 0.000513
337 0.000510
338 0.000505
339 0.000501
340 0.000499
341 0.000496
342 0.000495
343 0.000499
344 0.000498
345 0.000496
346 0.000496
347 0.000494
348 0.000493
349 0.000489
350 0.000486
351 0.000482
352 0.000480
353 0.000482
354 0.000484
355 0.000484
356 0.000481
357 0.000477
358 0.000473
359 0.000471
360 0.000469
361 0.000466
362 0.000461
363 0.000460
364 0.000459
365 0.000458
366 0.000455
367 0.000451
368 0.000447
369 0.000445
370 0.000447
371 0.000452
372 0.000454
373 0.000454
374 0.000455
375 0.000458
376 0.000462
377 0.000467
378 0.000474
379 0.000478
380 0.000482
381 0.000486
382 0.000488
383 0.000489
384 0.000488
385 0.000487
386 0.000485
387 0.000483
388 0.000481
389 0.000481
390 0.000479
391 0.000475
392 0.000472
393 0.000467
394 0.000465
395 0.000460
396 0.000455
397 0.000452
398 0.000450
399 0.000451
400 0.000448
401 0.000447
402 0.000446
403 0.000444
404 0.000442
405 0.000438
406 0.000432
407 0.000425
408 0.000423
409 0.000418
410 0.000414
411 0.000409
412 0.000409
413 0.000407
414 0.000406
415 0.000402
416 0.000395
417 0.000390
418 0.000386
419 0.000385
420 0.000389
421 0.000391
422 0.000395
423 0.000394
424 0.000396
425 0.000396
426 0.000393
427 0.000392
428 0.000388
429 0.000386
430 0.000387
431 0.000389
432 0.000391
433 0.000391
434 0.000391
435 0.000393
436 0.000398
437 0.000401
438 0.000403
439 0.000403
440 0.000401
441 0.000402
442 0.000402
443 0.000400
444 0.000398
445 0.000398
446 0.000396
447 0.000395
448 0.000392
449 0.000391
450 0.000391
451 0.000389
452 0.000386
453 0.000382
454 0.000379
455 0.000375
456 0.000369
457 0.000362
458 0.000358
459 0.000357
460 0.000358
461 0.000360
462 0.000359
463 0.000359
464 0.000357
465 0.000356
466 0.000356
467 0.000358
468 0.000361
469 0.000362
470 0.000363
471 0.000363
472 0.000362
473 0.000363
474 0.000360
475 0.000361
476 0.000360
477 0.000360
478 0.000357
479 0.000355
480 0.000355
481 0.000356
482 0.000353
483 0.000351
484 0.000346
485 0.000342
486 0.000335
487 0.000327
488 0.000323
489 0.000319
490 0.000317
491 0.000314
492 0.000316
493 0.000318
494 0.000319
495 0.000319
496 0.000317
497 0.000317
498 0.000317
499 0.000317
500 0.000314
501 0.000311
502 0.000307
503 0.000304
504 0.000302
505 0.000299
506 0.000296
507 0.000289
508 0.000284
509 0.000279
510 0.000273
511 0.000272
512 0.000273
513 0.000273
514 0.000276
515 0.000276
516 0.000277
517 0.000277
518 0.000276
519 0.000275
520 0.000273
521 0.000275
522 0.000275
523 0.000276
524 0.000276
525 0.000275
526 0.000278
527 0.000282
528 0.000286
529 0.000290
530 0.000290
531 0.000289
532 0.000289
533 0.000288
534 0.000289
535 0.000288
536 0.000284
537 0.000282
538 0.000279
539 0.000276
540 0.000272
541 0.000270
542 0.000270
543 0.000271
544 0.000274
545 0.000276
546 0.000276
547 0.000277
548 0.000278
549 0.000277
550 0.000277
551 0.000276
552 0.000277
553 0.000278
554 0.000281
555 0.000284
556 0.000282
557 0.000280
558 0.000277
559 0.000275
560 0.000274
561 0.000270
562 0.000269
563 0.000266
564 0.000263
565 0.000261
566 0.000258
567 0.000253
568 0.000246
569 0.000242
570 0.000239
571 0.000234
572 0.000231
573 0.000227
574 0.000221
575 0.000217
576 0.000216
577 0.000216
578 0.000217
579 0.000219
580 0.000221
581 0.000224
582 0.000226
583 0.000229
584 0.000230
585 0.000232
586 0.000234
587 0.000236
588 0.000237
589 0.000239
590 0.000242
591 0.000246
592 0.000247
593 0.000247
594 0.000250
595 0.000255
596 0.000258
597 0.000257
598 0.000257
599 0.000257
600 0.000259
601 0.000259
602 0.000260
603 0.000258
604 0.000257
605 0.000254
606 0.000254
607 0.000253
608 0.000253
609 0.000254
610 0.000255
611 0.000256
612 0.000256
613 0.000257
614 0.000256
615 0.000257
616 0.000257
617 0.000256
618 0.000256
619 0.000256
620 0.000255
621 0.000256
622 0.000256
623 0.000255
624 0.000255
625 0.000251
626 0.000246
627 0.000244
628 0.000243
629 0.000243
630 0.000243
631 0.000242
632 0.000243
633 0.000245
634 0.000249
635 0.000251
636 0.000251
637 0.000251
638 0.000253
639 0.000255
640 0.000259
641 0.000261
642 0.000264
643 0.000267
644 0.000270
645 0.000271
646 0.000269
647 0.000266
648 0.000262
649 0.000256
650 0.000252
651 0.000251
652 0.000250
653 0.000248
654 0.000248
655 0.000248
656 0.000246
657 0.000245
658 0.000240
659 0.000236
660 0.000234
661 0.000232
662 0.000235
663 0.000236
664 0.000235
665 0.000234
666 0.000232
667 0.000231
668 0.000231
669 0.000229
670 0.000228
671 0.000223
672 0.000222
673 0.000221
674 0.000221
675 0.000222
676 0.000223
677 0.000222
678 0.000222
679 0.000219
680 0.000214
681 0.000210
682 0.000207
683 0.000206
684 0.000205
685 0.000207
686 0.000212
687 0.000216
688 0.000219
689 0.000217
690 0.000214
691 0.000210
692 0.000204
693 0.000199
694 0.000195
695 0.000194
696 0.000190
697 0.000188
698 0.000188
699 0.000187
700 0.000186
701 0.000183
702 0.000181
703 0.000181
704 0.000180
705 0.000178
706 0.000176
707 0.000174
708 0.000175
709 0.000173
710 0.000171
711 0.000167
712 0.000162
713 0.000157
714 0.000154
715 0.000152
716 0.000154
717 0.000155
718 0.000157
719 0.000162
720 0.000167
721 0.000171
722 0.000173
723 0.000176
724 0.000180
725 0.000182
726 0.000185
727 0.000183
728 0.000182
729 0.000180
730 0.000179
731 0.000176
732 0.000171
733 0.000167
734 0.000165
735 0.000163
736 0.000164
737 0.000163
738 0.000160
739 0.000155
740 0.000152
741 0.000150
742 0.000149
743 0.000148
744 0.000144
745 0.000140
746 0.000138
747 0.000135
748 0.000131
749 0.000127
750 0.000123
751 0.000119
752 0.000115
753 0.000114
754 0.000114
755 0.000115
756 0.000117
757 0.000119
758 0.000121
759 0.000122
760 0.000124
761 0.000126
762 0.000129
763 0.000133
764 0.000135
765 0.000137
766 0.000137
767 0.000139
768 0.000140
769 0.000141
770 0.000143
771 0.000143
772 0.000144
773 0.000146
774 0.000147
775 0.000147
776 0.000145
777 0.000144
778 0.000143
779 0.000141
780 0.000137
781 0.000135
782 0.000129
783 0.000127
784 0.000125
785 0.000121
786 0.000117
787 0.000113
788 0.000109
789 0.000106
790 0.000104
791 0.000103
792 0.000101
793 0.000100
794 0.000098
795 0.000098
796 0.000098
797 0.000096
798 0.000091
799 0.000087
800 0.000085
801 0.000084
802 0.000084
803 0.000086
804 0.000090
805 0.000092
806 0.000095
807 0.000099
808 0.000100
809 0.000102
