# i correlation
1 0.001584
2 0.001534
3 0.001487
4 0.001445
5 0.001412
6 0.001383
7 0.001365
8 0.001345
9 0.001328
10 0.001314
11 0.001304
12 0.001297
13 0.001288
14 0.001276
15 0.001271
16 0.001267
17 0.001268
18 0.001270
19 0.001272
20 0.001272
21 0.001269
22 0.001268
23 0.001258
24 0.001252
25 0.001242
26 0.001233
27 0.001224
28 0.001212
29 0.001200
30 0.001193
31 0.001187
32 0.001178
33 0.001171
34 0.001162
35 0.001152
36 0.001134
37 0.001121
38 0.001111
39 0.001110
40 0.001113
41 0.001118
42 0.001120
43 0.001114
44 0.001109
45 0.001106
46 0.001104
47 0.001100
48 0.001095
49 0.001086
50 0.001080
51 0.001076
52 0.001077
53 0.001074
54 0.001070
55 0.001064
56 0.001060
57 0.001053
58 0.001052
59 0.001052
60 0.001053
61 0.001056
62 0.001058
63 0.001063
64 0.001065
65 0.001062
66 0.001053
67 0.001041
68 0.001033
69 0.001026
70 0.001020
71 0.001021
72 0.001024
73 0.001021
74 0.001022
75 0.001024
76 0.001021
77 0.001011
78 0.001002
79 0.000989
80 0.000974
81 0.000963
82 0.000955
83 0.000952
84 0.000945
85 0.000943
86 0.000945
87 0.000951
88 0.000957
89 0.000957
90 0.000957
91 0.000957
92 0.000960
93 0.000960
94 0.000957
95 0.000951
96 0.000945
97 0.000933
98 0.000923
99 0.000914
100 0.000908
101 0.000902
102 0.000896
103 0.000895
104 0.000893
105 0.000894
106 0.000895
107 0.000895
108 0.000893
109 0.000891
110 0.000885
111 0.000878
112 0.000873
113 0.000873
114 0.000877
115 0.000882
116 0.000885
117 0.000888
118 0.000889
119 0.000890
120 0.000892
121 0.000891
122 0.000889
123 0.000885
124 0.000879
125 0.000874
126 0.000866
127 0.000863
128 0.000863
129 0.000860
130 0.000861
131 0.000854
132 0.000847
133 0.000840
134 0.000837
135 0.000836
136 0.000835
137 0.000839
138 0.000844
139 0.000846
140 0.000849
141 0.000848
142 0.000846
143 0.000845
144 0.000848
145 0.000848
146 0.000847
147 0.000850
148 0.000853
149 0.000857
150 0.000864
151 0.000872
152 0.000878
153 0.000877
154 0.000875
155 0.000872
156 0.000865
157 0.000854
158 0.000840
159 0.000823
160 0.000812
161 0.000801
162 0.000797
163 0.000795
164 0.000795
165 0.000800
166 0.000799
167 0.000796
168 0.000793
169 0.000794
170 0.000795
171 0.000795
172 0.000795
173 0.000792
174 0.000786
175 0.000780
176 0.000776
177 0.000772
178 0.000770
179 0.000768
180 0.000766
181 0.000763
182 0.000759
183 0.000754
184 0.000753
185 0.000745
186 0.000738
187 0.000725
188 0.000715
189 0.000709
190 0.000699
191 0.000692
192 0.000688
193 0.000689
194 0.000691
195 0.000695
196 0.000696
197 0.000696
198 0.000694
199 0.000693
200 0.000696
201 0.000698
202 0.000703
203 0.000707
204 0.000705
205 0.000703
206 0.000697
207 0.000692
208 0.000693
209 0.000691
210 0.000695
211 0.000697
212 0.000699
213 0.000701
214 0.000701
215 0.000704
216 0.000710
217 0.000713
218 0.000712
219 0.000705
220 0.000700
221 0.000694
222 0.000687
223 0.000682
224 0.000678
225 0.000674
226 0.000675
227 0.000677
228 0.000681
229 0.000680
230 0.000684
231 0.000680
232 0.000674
233 0.000668
234 0.000664
235 0.000662
236 0.000661
237 0.000659
238 0.000658
239 0.000657
240 0.000654
241 0.000655
242 0.000659
243 0.000667
244 0.000673
245 0.000679
246 0.000678
247 0.000676
248 0.000673
249 0.000665
250 0.000659
251 0.000649
252 0.000645
253 0.000639
254 0.000634
255 0.000628
256 0.000631
257 0.000634
258 0.000637
259 0.000635
260 0.000637
261 0.000640
262 0.000640
263 0.000639
264 0.000638
265 0.000641
266 0.000648
267 0.000653
268 0.000659
269 0.000664
270 0.000666
271 0.000666
272 0.000668
273 0.000666
274 0.000669
275 0.000670
276 0.000673
277 0.000672
278 0.000672
279 0.000671
280 0.000668
281 0.000663
282 0.000654
283 0.000647
284 0.000641
285 0.000638
286 0.000636
287 0.000637
288 0.000641
289 0.000642
290 0.000642
291 0.000643
292 0.000648
293 0.000652
294 0.000655
295 0.000653
296 0.000650
297 0.000645
298 0.000638
299 0.000628
300 0.000621
301 0.000618
302 0.000617
303 0.000615
304 0.000614
305 0.000613
306 0.000609
307 0.000602
308 0.000599
309 0.000605
310 0.000609
311 0.000609
312 0.000606
313 0.000601
314 0.000598
315 0.000594
316 0.000594
317 0.000593
318 0.000595
319 0.000594
320 0.000596
321 0.000600
322 0.000604
323 0.000606
324 0.000606
325 0.000602
326 0.000599
327 0.000595
328 0.000592
329 0.000586
330 0.000584
331 0.000585
332 0.000586
333 0.000591
334 0.000594
335 0.000602
336 0.000608
337 0.000612
338 0.000611
339 0.000612
340 0.000614
341 0.000609
342 0.000602
343 0.000600
344 0.000603
345 0.000605
346 0.000609
347 0.000606
348 0.000606
349 0.000602
350 0.000604
351 0.000599
352 0.000597
353 0.000597
354 0.000591
355 0.000588
356 0.000587
357 0.000588
358 0.000590
359 0.000586
360 0.000583
361 0.000579
362 0.000577
363 0.000575
364 0.000574
365 0.000580
366 0.000584
367 0.000586
368 0.000588
369 0.000583
370 0.000579
371 0.000572
372 0.000572
373 0.000571
374 0.000570
375 0.000565
376 0.000558
377 0.000556
378 0.000550
379 0.000545
380 0.000544
381 0.000547
382 0.000544
383 0.000541
384 0.000543
385 0.000543
386 0.000544
387 0.000544
388 0.000544
389 0.000541
390 0.000534
391 0.000528
392 0.000527
393 0.000524
394 0.000522
395 0.000519
396 0.000520
397 0.000522
398 0.000525
399 0.000529
400 0.000532
401 0.000532
402 0.000526
403 0.000519
404 0.000512
405 0.000507
406 0.000503
407 0.000501
408 0.000501
409 0.000501
410 0.000503
411 0.000506
412 0.000511
413 0.000517
414 0.000524
415 0.000527
416 0.000532
417 0.000533
418 0.000533
419 0.000534
420 0.000536
421 0.000535
422 0.000536
423 0.000535
424 0.000532
425 0.000531
426 0.000526
427 0.000523
428 0.000519
429 0.000514
430 0.000506
431 0.000505
432 0.000507
433 0.000510
434 0.000510
435 0.000504
436 0.000501
437 0.000496
438 0.000494
439 0.000493
440 0.000496
441 0.000502
442 0.000503
443 0.000503
444 0.000506
445 0.000506
446 0.000507
447 0.000501
448 0.000497
449 0.000491
450 0.000484
451 0.000474
452 0.000465
453 0.000458
454 0.000446
455 0.000438
456 0.000435
457 0.000429
458 0.000429
459 0.000429
460 0.000432
461 0.000435
462 0.000434
463 0.000436
464 0.000435
465 0.000436
466 0.000437
467 0.000437
468 0.000436
469 0.000433
470 0.000427
471 0.000422
472 0.000418
473 0.000415
474 0.000414
475 0.000412
476 0.000408
477 0.000404
478 0.000403
479 0.000403
480 0.000403
481 0.000403
482 0.000402
483 0.000403
484 0.000400
485 0.000399
486 0.000401
487 0.000402
488 0.000407
489 0.000409
490 0.000410
491 0.000412
492 0.000410
493 0.000409
494 0.000407
495 0.000404
496 0.000404
497 0.000401
498 0.000401
499 0.000398
500 0.000395
501 0.000390
502 0.000387
503 0.000388
504 0.000394
505 0.000402
506 0.000407
507 0.000408
508 0.000410
509 0.000413
510 0.000416
511 0.000413
512 0.000409
513 0.000408
514 0.000406
515 0.000404
516 0.000401
517 0.000399
518 0.000399
519 0.000398
520 0.000400
521 0.000404
522 0.000406
523 0.000407
524 0.000408
525 0.000405
526 0.000405
527 0.000402
528 0.000402
529 0.000401
530 0.000401
531 0.000400
532 0.000400
533 0.000400
534 0.000400
535 0.000399
536 0.000396
537 0.000396
538 0.000392
539 0.000392
540 0.000388
541 0.000384
542 0.000377
543 0.000369
544 0.000364
545 0.000359
546 0.000356
547 0.000351
548 0.000348
549 0.000343
550 0.000342
551 0.000345
552 0.000349
553 0.000352
554 0.000356
555 0.000359
556 0.000361
557 0.000362
558 0.000360
559 0.000358
560 0.000354
561 0.000355
562 0.000353
563 0.000354
564 0.000351
565 0.000347
566 0.000344
567 0.000343
568 0.000343
569 0.000344
570 0.000345
571 0.000346
572 0.000346
573 0.000344
574 0.000340
575 0.000337
576 0.000338
577 0.000335
578 0.000337
579 0.000336
580 0.000337
581 0.000336
582 0.000335
583 0.000334
584 0.000332
585 0.000332
586 0.000331
587 0.000327
588 0.000327
589 0.000326
590 0.000323
591 0.000318
592 0.000314
593 0.000311
594 0.000304
595 0.000298
596 0.000297
597 0.000299
598 0.000302
599 0.000299
600 0.000295
601 0.000290
602 0.000288
603 0.000285
604 0.000281
605 0.000274
606 0.000267
607 0.000258
608 0.000249
609 0.000242
610 0.000236
611 0.000237
612 0.000235
613 0.000236
614 0.000234
615 0.000232
616 0.000229
617 0.000224
618 0.000222
619 0.000220
620 0.000218
621 0.000214
622 0.000215
623 0.000214
624 0.000216
625 0.000218
626 0.000219
627 0.000219
628 0.000217
629 0.000217
630 0.000217
631 0.000217
632 0.000215
633 0.000213
634 0.000211
635 0.000206
636 0.000198
637 0.000193
638 0.000189
639 0.000182
640 0.000180
641 0.000179
642 0.000180
643 0.000183
644 0.000192
645 0.000199
646 0.000203
647 0.000203
648 0.000206
649 0.000206
650 0.000206
651 0.000209
652 0.000210
653 0.000213
654 0.000213
655 0.000215
656 0.000212
657 0.000208
658 0.000206
659 0.000202
660 0.000201
661 0.000201
662 0.000202
663 0.000201
664 0.000201
665 0.000199
666 0.000198
667 0.000197
668 0.000196
669 0.000194
670 0.000192
671 0.000192
672 0.000196
673 0.000198
674 0.000199
675 0.000203
676 0.000207
677 0.000211
678 0.000214
679 0.000218
680 0.000219
681 0.000218
682 0.000216
683 0.000218
684 0.000219
685 0.000219
686 0.000223
687 0.000225
688 0.000223
689 0.000225
690 0.000228
691 0.000231
692 0.000233
693 0.000232
694 0.000232
695 0.000229
696 0.000224
697 0.000216
698 0.000210
699 0.000203
700 0.000197
701 0.000193
702 0.000191
703 0.000187
704 0.000184
705 0.000182
706 0.000183
707 0.000185
708 0.000186
709 0.000188
710 0.000191
711 0.000195
712 0.000200
713 0.000203
714 0.000205
715 0.000203
716 0.000199
717 0.000196
718 0.000194
719 0.000191
720 0.000187
721 0.000182
722 0.000176
723 0.000171
724 0.000166
725 0.000163
726 0.000163
727 0.000163
728 0.000160
729 0.000157
730 0.000154
731 0.000152
732 0.000152
733 0.000154
734 0.000155
735 0.000155
736 0.000157
737 0.000162
738 0.000166
739 0.000169
740 0.000169
741 0.000167
742 0.000164
743 0.000161
744 0.000158
745 0.000155
746 0.000153
747 0.000154
748 0.000154
749 0.000155
750 0.000157
751 0.000157
752 0.000157
753 0.000157
754 0.000158
755 0.000160
756 0.000159
757 0.000159
758 0.000159
759 0.000157
760 0.000155
761 0.000152
762 0.000150
763 0.000147
764 0.000145
765 0.000145
766 0.000145
767 0.000145
768 0.000145
769 0.000146
770 0.000145
771 0.000145
772 0.000143
773 0.000141
774 0.000139
775 0.000136
776 0.000133
777 0.000131
778 0.000133
779 0.000134
780 0.000135
781 0.000137
782 0.000141
783 0.000144
784 0.000147
785 0.000149
786 0.000151
787 0.000151
788 0.000150
789 0.000148
790 0.000147
791 0.000144
792 0.000142
793 0.000139
794 0.000136
795 0.000133
796 0.000134
797 0.000134
798 0.000136
799 0.000139
800 0.000145
801 0.000150
802 0.000155
803 0.000159
804 0.000158
805 0.000156
806 0.000159
807 0.000159
808 0.000161
809 0.000164
