# i correlation
1 0.001625
2 0.001584
3 0.001549
4 0.001522
5 0.001496
6 0.001474
7 0.001452
8 0.001436
9 0.001420
10 0.001402
11 0.001385
12 0.001367
13 0.001346
14 0.001328
15 0.001316
16 0.001308
17 0.001301
18 0.001297
19 0.001295
20 0.001291
21 0.001289
22 0.001286
23 0.001285
24 0.001284
25 0.001277
26 0.001273
27 0.001272
28 0.001268
29 0.001262
30 0.001253
31 0.001245
32 0.001236
33 0.001220
34 0.001204
35 0.001191
36 0.001176
37 0.001164
38 0.001159
39 0.001156
40 0.001155
41 0.001145
42 0.001132
43 0.001123
44 0.001117
45 0.001115
46 0.001114
47 0.001115
48 0.001114
49 0.001114
50 0.001110
51 0.001106
52 0.001105
53 0.001102
54 0.001096
55 0.001093
56 0.001091
57 0.001092
58 0.001088
59 0.001084
60 0.001076
61 0.001069
62 0.001064
63 0.001059
64 0.001054
65 0.001044
66 0.001038
67 0.001032
68 0.001024
69 0.001018
70 0.001013
71 0.001008
72 0.001003
73 0.001001
74 0.001000
75 0.000997
76 0.000998
77 0.000998
78 0.000997
79 0.000996
80 0.000996
81 0.000997
82 0.000996
83 0.000993
84 0.000993
85 0.000991
86 0.000990
87 0.000988
88 0.000984
89 0.000980
90 0.000981
91 0.000977
92 0.000972
93 0.000963
94 0.000953
95 0.000948
96 0.000943
97 0.000937
98 0.000933
99 0.000929
100 0.000925
101 0.000922
102 0.000921
103 0.000918
104 0.000917
105 0.000917
106 0.000917
107 0.000916
108 0.000913
109 0.000914
110 0.000913
111 0.000910
112 0.000904
113 0.000899
114 0.000895
115 0.000892
116 0.000886
117 0.000882
118 0.000879
119 0.000878
120 0.000875
121 0.000873
122 0.000874
123 0.000874
124 0.000871
125 0.000869
126 0.000869
127 0.000868
128 0.000867
129 0.000870
130 0.000876
131 0.000880
132 0.000877
133 0.000877
134 0.000873
135 0.000867
136 0.000864
137 0.000865
138 0.000864
139 0.000864
140 0.000860
141 0.000853
142 0.000840
143 0.000831
144 0.000817
145 0.000805
146 0.000796
147 0.000791
148 0.000784
149 0.000781
150 0.000780
151 0.000779
152 0.000775
153 0.000768
154 0.000761
155 0.000760
156 0.000756
157 0.000752
158 0.000747
159 0.000744
160 0.000739
161 0.000737
162 0.000736
163 0.000734
164 0.000731
165 0.000727
166 0.000729
167 0.000735
168 0.000738
169 0.000738
170 0.000741
171 0.000746
172 0.000749
173 0.000750
174 0.000747
175 0.000745
176 0.000743
177 0.000741
178 0.000743
179 0.000750
180 0.000754
181 0.000760
182 0.000763
183 0.000764
184 0.000765
185 0.000764
186 0.000765
187 0.000767
188 0.000769
189 0.000770
190 0.000771
191 0.000775
192 0.000776
193 0.000772
194 0.000769
195 0.000769
196 0.000767
197 0.000764
198 0.000756
199 0.000754
200 0.000754
201 0.000753
202 0.000751
203 0.000750
204 0.000748
205 0.000743
206 0.000743
207 0.000747
208 0.000750
209 0.000748
210 0.000748
211 0.000749
212 0.000748
213 0.000746
214 0.000743
215 0.000741
216 0.000739
217 0.000736
218 0.000730
219 0.000730
220 0.000725
221 0.000720
222 0.000713
223 0.000706
224 0.000700
225 0.000692
226 0.000682
227 0.000673
228 0.000667
229 0.000664
230 0.000663
231 0.000661
232 0.000658
233 0.000653
234 0.000649
235 0.000644
236 0.000640
237 0.000633
238 0.000628
239 0.000625
240 0.000625
241 0.000625
242 0.000625
243 0.000627
244 0.000627
245 0.000628
246 0.000628
247 0.000629
248 0.000632
249 0.000632
250 0.000630
251 0.000630
252 0.000631
253 0.000632
254 0.000635
255 0.000634
256 0.000636
257 0.000638
258 0.000635
259 0.000636
260 0.000635
261 0.000632
262 0.000634
263 0.000634
264 0.000628
265 0.000620
266 0.000613
267 0.000609
268 0.000610
269 0.000611
270 0.000615
271 0.000619
272 0.000623
273 0.000623
274 0.000621
275 0.000618
276 0.000613
277 0.000611
278 0.000608
279 0.000605
280 0.000601
281 0.000603
282 0.000601
283 0.000597
284 0.000588
285 0.000580
286 0.000576
287 0.000574
288 0.000571
289 0.000565
290 0.000560
291 0.000556
292 0.000553
293 0.000551
294 0.000548
295 0.000548
296 0.000548
297 0.000549
298 0.000554
299 0.000556
300 0.000559
301 0.000562
302 0.000564
303 0.000566
304 0.000564
305 0.000561
306 0.000557
307 0.000554
308 0.000550
309 0.000547
310 0.000546
311 0.000546
312 0.000548
313 0.000545
314 0.000542
315 0.000538
316 0.000536
317 0.000531
318 0.000526
319 0.000524
320 0.000524
321 0.000525
322 0.000527
323 0.000524
324 0.000521
325 0.000520
326 0.000520
327 0.000522
328 0.000521
329 0.000521
330 0.000525
331 0.000521
332 0.000518
333 0.000518
334 0.000519
335 0.000521
336 0.000521
337 0.000518
338 0.000518
339 0.000520
340 0.000522
341 0.000522
342 0.000522
343 0.000523
344 0.000527
345 0.000528
346 0.000528
347 0.000526
348 0.000527
349 0.000525
350 0.000522
351 0.000520
352 0.000518
353 0.000516
354 0.000514
355 0.000513
356 0.000511
357 0.000508
358 0.000509
359 0.000512
360 0.000514
361 0.000515
362 0.000516
363 0.000517
364 0.000517
365 0.000517
366 0.000516
367 0.000514
368 0.000515
369 0.000518
370 0.000519
371 0.000519
372 0.000513
373 0.000510
374 0.000513
375 0.000513
376 0.000513
377 0.000510
378 0.000505
379 0.000505
380 0.000505
381 0.000505
382 0.000507
383 0.000511
384 0.000519
385 0.000525
386 0.000529
387 0.000534
388 0.000540
389 0.000542
390 0.000542
391 0.000545
392 0.000549
393 0.000554
394 0.000557
395 0.000556
396 0.000552
397 0.000547
398 0.000545
399 0.000539
400 0.000533
401 0.000528
402 0.000525
403 0.000527
404 0.000528
405 0.000526
406 0.000524
407 0.000523
408 0.000522
409 0.000524
410 0.000522
411 0.000524
412 0.000527
413 0.000525
414 0.000525
415 0.000522
416 0.000519
417 0.000516
418 0.000515
419 0.000513
420 0.000510
421 0.000508
422 0.000507
423 0.000505
424 0.000504
425 0.000502
426 0.000503
427 0.000504
428 0.000501
429 0.000501
430 0.000501
431 0.000500
432 0.000496
433 0.000497
434 0.000496
435 0.000493
436 0.000490
437 0.000486
438 0.000485
439 0.000484
440 0.000484
441 0.000482
442 0.000480
443 0.000481
444 0.000481
445 0.000480
446 0.000474
447 0.000464
448 0.000458
449 0.000453
450 0.000454
451 0.000456
452 0.000460
453 0.000463
454 0.000464
455 0.000465
456 0.000465
457 0.000466
458 0.000463
459 0.000458
460 0.000455
461 0.000452
462 0.000449
463 0.000448
464 0.000446
465 0.000443
466 0.000440
467 0.000438
468 0.000435
469 0.000435
470 0.000431
471 0.000426
472 0.000423
473 0.000422
474 0.000420
475 0.000418
476 0.000417
477 0.000415
478 0.000414
479 0.000414
480 0.000413
481 0.000413
482 0.000414
483 0.000417
484 0.000419
485 0.000421
486 0.000420
487 0.000418
488 0.000414
489 0.000409
490 0.000404
491 0.000403
492 0.000401
493 0.000401
494 0.000399
495 0.000395
496 0.000392
497 0.000386
498 0.000380
499 0.000372
500 0.000367
501 0.000360
502 0.000358
503 0.000357
504 0.000356
505 0.000354
506 0.000351
507 0.000350
508 0.000349
509 0.000348
510 0.000344
511 0.000344
512 0.000342
513 0.000341
514 0.000343
515 0.000350
516 0.000356
517 0.000363
518 0.000366
519 0.000369
520 0.000370
521 0.000373
522 0.000374
523 0.000377
524 0.000382
525 0.000386
526 0.000388
527 0.000390
528 0.000388
529 0.000384
530 0.000379
531 0.000379
532 0.000383
533 0.000384
534 0.000382
535 0.000383
536 0.000381
537 0.000378
538 0.000373
539 0.000368
540 0.000365
541 0.000364
542 0.000364
543 0.000366
544 0.000370
545 0.000370
546 0.000369
547 0.000370
548 0.000368
549 0.000364
550 0.000361
551 0.000359
552 0.000360
553 0.000357
554 0.000354
555 0.000355
556 0.000354
557 0.000353
558 0.000350
559 0.000350
560 0.000352
561 0.000352
562 0.000349
563 0.000347
564 0.000345
565 0.000343
566 0.000341
567 0.000339
568 0.000337
569 0.000332
570 0.000333
571 0.000333
572 0.000332
573 0.000334
574 0.000333
575 0.000332
576 0.000330
577 0.000328
578 0.000327
579 0.000327
580 0.000325
581 0.000322
582 0.000321
583 0.000321
584 0.000320
585 0.000318
586 0.000314
587 0.000310
588 0.000306
589 0.000301
590 0.000298
591 0.000297
592 0.000295
593 0.000297
594 0.000300
595 0.000303
596 0.000303
597 0.000302
598 0.000303
599 0.000302
600 0.000304
601 0.000306
602 0.000308
603 0.000310
604 0.000310
605 0.000310
606 0.000309
607 0.000308
608 0.000307
609 0.000307
610 0.000305
611 0.000304
612 0.000302
613 0.000303
614 0.000303
615 0.000303
616 0.000303
617 0.000305
618 0.000308
619 0.000311
620 0.000315
621 0.000315
622 0.000316
623 0.000318
624 0.000321
625 0.000324
626 0.000327
627 0.000328
628 0.000328
629 0.000326
630 0.000326
631 0.000325
632 0.000324
633 0.000321
634 0.000321
635 0.000317
636 0.000314
637 0.000311
638 0.000309
639 0.000307
640 0.000305
641 0.000304
642 0.000305
643 0.000306
644 0.000306
645 0.000306
646 0.000309
647 0.000315
648 0.000320
649 0.000323
650 0.000327
651 0.000332
652 0.000337
653 0.000339
654 0.000342
655 0.000343
656 0.000344
657 0.000347
658 0.000351
659 0.000350
660 0.000351
661 0.000349
662 0.000348
663 0.000348
664 0.000348
665 0.000348
666 0.000350
667 0.000348
668 0.000343
669 0.000340
670 0.000336
671 0.000331
672 0.000328
673 0.000322
674 0.000322
675 0.000322
676 0.000321
677 0.000318
678 0.000315
679 0.000310
680 0.000303
681 0.000297
682 0.000292
683 0.000287
684 0.000283
685 0.000279
686 0.000276
687 0.000273
688 0.000266
689 0.000259
690 0.000253
691 0.000247
692 0.000241
693 0.000236
694 0.000230
695 0.000225
696 0.000222
697 0.000221
698 0.000221
699 0.000220
700 0.000218
701 0.000215
702 0.000210
703 0.000207
704 0.000207
705 0.000206
706 0.000208
707 0.000211
708 0.000211
709 0.000210
710 0.000212
711 0.000213
712 0.000214
713 0.000216
714 0.000218
715 0.000219
716 0.000220
717 0.000220
718 0.000220
719 0.000220
720 0.000216
721 0.000211
722 0.000205
723 0.000202
724 0.000203
725 0.000204
726 0.000205
727 0.000206
728 0.000207
729 0.000205
730 0.000205
731 0.000205
732 0.000209
733 0.000213
734 0.000219
735 0.000224
736 0.000228
737 0.000230
738 0.000231
739 0.000235
740 0.000235
741 0.000235
742 0.000232
743 0.000232
744 0.000233
745 0.000232
746 0.000232
747 0.000230
748 0.000227
749 0.000222
750 0.000218
751 0.000215
752 0.000211
753 0.000209
754 0.000209
755 0.000210
756 0.000212
757 0.000214
758 0.000214
759 0.000215
760 0.000214
761 0.000212
762 0.000212
763 0.000213
764 0.000216
765 0.000220
766 0.000222
767 0.000223
768 0.000224
769 0.000223
770 0.000223
771 0.000222
772 0.000221
773 0.000222
774 0.000221
775 0.000220
776 0.000217
777 0.000215
778 0.000212
779 0.000210
780 0.000205
781 0.000203
782 0.000201
783 0.000200
784 0.000196
785 0.000195
786 0.000193
787 0.000192
788 0.000191
789 0.000190
790 0.000188
791 0.000188
792 0.000185
793 0.000183
794 0.000182
795 0.000181
796 0.000180
797 0.000180
798 0.000179
799 0.000178
800 0.000178
801 0.000176
802 0.000177
803 0.000178
804 0.000178
805 0.000177
806 0.000176
807 0.000174
808 0.000172
809 0.000170
