# i correlation
1 0.001679
2 0.001647
3 0.001614
4 0.001587
5 0.001566
6 0.001544
7 0.001521
8 0.001501
9 0.001485
10 0.001469
11 0.001449
12 0.001429
13 0.001414
14 0.001403
15 0.001393
16 0.001385
17 0.001379
18 0.001367
19 0.001353
20 0.001343
21 0.001332
22 0.001320
23 0.001304
24 0.001291
25 0.001279
26 0.001273
27 0.001265
28 0.001261
29 0.001254
30 0.001249
31 0.001246
32 0.001244
33 0.001239
34 0.001235
35 0.001229
36 0.001224
37 0.001219
38 0.001211
39 0.001203
40 0.001194
41 0.001190
42 0.001184
43 0.001180
44 0.001169
45 0.001166
46 0.001161
47 0.001158
48 0.001160
49 0.001158
50 0.001156
51 0.001155
52 0.001152
53 0.001148
54 0.001144
55 0.001136
56 0.001133
57 0.001130
58 0.001127
59 0.001121
60 0.001118
61 0.001114
62 0.001113
63 0.001108
64 0.001104
65 0.001100
66 0.001097
67 0.001095
68 0.001092
69 0.001085
70 0.001081
71 0.001076
72 0.001069
73 0.001063
74 0.001054
75 0.001047
76 0.001038
77 0.001028
78 0.001019
79 0.001010
80 0.001004
81 0.000999
82 0.000994
83 0.000987
84 0.000985
85 0.000980
86 0.000973
87 0.000965
88 0.000960
89 0.000955
90 0.000951
91 0.000947
92 0.000941
93 0.000940
94 0.000938
95 0.000934
96 0.000932
97 0.000930
98 0.000928
99 0.000926
100 0.000926
101 0.000927
102 0.000927
103 0.000930
104 0.000931
105 0.000933
106 0.000929
107 0.000927
108 0.000921
109 0.000917
110 0.000915
111 0.000912
112 0.000906
113 0.000901
114 0.000898
115 0.000894
116 0.000893
117 0.000893
118 0.000889
119 0.000888
120 0.000884
121 0.000883
122 0.000874
123 0.000867
124 0.000861
125 0.000855
126 0.000849
127 0.000845
128 0.000841
129 0.000838
130 0.000836
131 0.000835
132 0.000834
133 0.000829
134 0.000825
135 0.000819
136 0.000815
137 0.000811
138 0.000807
139 0.000799
140 0.000792
141 0.000786
142 0.000787
143 0.000785
144 0.000785
145 0.000782
146 0.000777
147 0.000777
148 0.000781
149 0.000783
150 0.000789
151 0.000793
152 0.000799
153 0.000804
154 0.000807
155 0.000809
156 0.000810
157 0.000809
158 0.000810
159 0.000810
160 0.000815
161 0.000819
162 0.000821
163 0.000821
164 0.000825
165 0.000823
166 0.000821
167 0.000816
168 0.000813
169 0.000810
170 0.000806
171 0.000803
172 0.000795
173 0.000787
174 0.000781
175 0.000772
176 0.000767
177 0.000766
178 0.000767
179 0.000767
180 0.000764
181 0.000759
182 0.000752
183 0.000747
184 0.000744
185 0.000743
186 0.000741
187 0.000741
188 0.000739
189 0.000736
190 0.000730
191 0.000727
192 0.000726
193 0.000728
194 0.000733
195 0.000738
196 0.000743
197 0.000746
198 0.000747
199 0.000750
200 0.000751
201 0.000755
202 0.000759
203 0.000757
204 0.000756
205 0.000757
206 0.000757
207 0.000752
208 0.000749
209 0.000743
210 0.000744
211 0.000742
212 0.000744
213 0.000743
214 0.000741
215 0.000741
216 0.000740
217 0.000742
218 0.000738
219 0.000738
220 0.000737
221 0.000737
222 0.000734
223 0.000731
224 0.000729
225 0.000730
226 0.000731
227 0.000729
228 0.000731
229 0.000732
230 0.000733
231 0.000734
232 0.000735
233 0.000734
234 0.000735
235 0.000733
236 0.000732
237 0.000730
238 0.000729
239 0.000725
240 0.000718
241 0.000714
242 0.000709
243 0.000706
244 0.000702
245 0.000696
246 0.000690
247 0.000684
248 0.000678
249 0.000675
250 0.000671
251 0.000669
252 0.000666
253 0.000669
254 0.000668
255 0.000670
256 0.000666
257 0.000663
258 0.000667
259 0.000671
260 0.000674
261 0.000674
262 0.000678
263 0.000677
264 0.000677
265 0.000674
266 0.000670
267 0.000668
268 0.000666
269 0.000667
270 0.000670
271 0.000671
272 0.000672
273 0.000674
274 0.000673
275 0.000672
276 0.000666
277 0.000663
278 0.000657
279 0.000656
280 0.000657
281 0.000658
282 0.000657
283 0.000652
284 0.000646
285 0.000641
286 0.000636
287 0.000630
288 0.000623
289 0.000613
290 0.000609
291 0.000603
292 0.000603
293 0.000598
294 0.000594
295 0.000592
296 0.000593
297 0.000592
298 0.000593
299 0.000594
300 0.000594
301 0.000595
302 0.000596
303 0.000595
304 0.000590
305 0.000586
306 0.000579
307 0.000572
308 0.000563
309 0.000556
310 0.000551
311 0.000545
312 0.000541
313 0.000544
314 0.000543
315 0.000545
316 0.000547
317 0.000545
318 0.000544
319 0.000540
320 0.000540
321 0.000541
322 0.000543
323 0.000549
324 0.000554
325 0.000557
326 0.000557
327 0.000558
328 0.000556
329 0.000556
330 0.000558
331 0.000562
332 0.000562
333 0.000563
334 0.000560
335 0.000559
336 0.000554
337 0.000551
338 0.000546
339 0.000540
340 0.000532
341 0.000525
342 0.000515
343 0.000508
344 0.000504
345 0.000500
346 0.000497
347 0.000495
348 0.000491
349 0.000487
350 0.000486
351 0.000485
352 0.000482
353 0.000477
354 0.000472
355 0.000470
356 0.000463
357 0.000459
358 0.000455
359 0.000448
360 0.000443
361 0.000439
362 0.000437
363 0.000440
364 0.000441
365 0.000445
366 0.000444
367 0.000446
368 0.000444
369 0.000442
370 0.000440
371 0.000435
372 0.000436
373 0.000436
374 0.000437
375 0.000437
376 0.000438
377 0.000438
378 0.000440
379 0.000443
380 0.000445
381 0.000451
382 0.000453
383 0.000458
384 0.000459
385 0.000461
386 0.000465
387 0.000468
388 0.000469
389 0.000476
390 0.000480
391 0.000485
392 0.000489
393 0.000491
394 0.000492
395 0.000494
396 0.000497
397 0.000499
398 0.000503
399 0.000507
400 0.000509
401 0.000506
402 0.000505
403 0.000504
404 0.000502
405 0.000499
406 0.000496
407 0.000495
408 0.000492
409 0.000490
410 0.000484
411 0.000477
412 0.000472
413 0.000470
414 0.000466
415 0.000465
416 0.000458
417 0.000459
418 0.000456
419 0.000453
420 0.000451
421 0.000445
422 0.000443
423 0.000442
424 0.000441
425 0.000439
426 0.000436
427 0.000434
428 0.000432
429 0.000431
430 0.000430
431 0.000429
432 0.000428
433 0.000426
434 0.000426
435 0.000427
436 0.000428
437 0.000431
438 0.000434
439 0.000433
440 0.000433
441 0.000435
442 0.000433
443 0.000430
444 0.000430
445 0.000430
446 0.000430
447 0.000429
448 0.000429
449 0.000428
450 0.000426
451 0.000427
452 0.000424
453 0.000420
454 0.000420
455 0.000420
456 0.000420
457 0.000418
458 0.000417
459 0.000412
460 0.000408
461 0.000407
462 0.000401
463 0.000395
464 0.000389
465 0.000386
466 0.000382
467 0.000378
468 0.000374
469 0.000369
470 0.000364
471 0.000360
472 0.000355
473 0.000346
474 0.000339
475 0.000339
476 0.000337
477 0.000338
478 0.000331
479 0.000328
480 0.000323
481 0.000320
482 0.000316
483 0.000314
484 0.000311
485 0.000308
486 0.000308
487 0.000307
488 0.000306
489 0.000303
490 0.000298
491 0.000291
492 0.000286
493 0.000282
494 0.000281
495 0.000278
496 0.000278
497 0.000277
498 0.000276
499 0.000276
500 0.000274
501 0.000275
502 0.000277
503 0.000278
504 0.000279
505 0.000280
506 0.000278
507 0.000279
508 0.000280
509 0.000283
510 0.000283
511 0.000287
512 0.000290
513 0.000292
514 0.000293
515 0.000292
516 0.000291
517 0.000290
518 0.000288
519 0.000287
520 0.000281
521 0.000278
522 0.000275
523 0.000271
524 0.000269
525 0.000268
526 0.000268
527 0.000268
528 0.000270
529 0.000274
530 0.000274
531 0.000277
532 0.000279
533 0.000282
534 0.000288
535 0.000291
536 0.000294
537 0.000298
538 0.000298
539 0.000298
540 0.000294
541 0.000293
542 0.000293
543 0.000297
544 0.000300
545 0.000302
546 0.000303
547 0.000304
548 0.000304
549 0.000302
550 0.000303
551 0.000304
552 0.000305
553 0.000305
554 0.000305
555 0.000303
556 0.000302
557 0.000300
558 0.000297
559 0.000295
560 0.000295
561 0.000296
562 0.000297
563 0.000293
564 0.000289
565 0.000286
566 0.000282
567 0.000277
568 0.000273
569 0.000269
570 0.000266
571 0.000263
572 0.000261
573 0.000258
574 0.000252
575 0.000250
576 0.000245
577 0.000242
578 0.000239
579 0.000238
580 0.000237
581 0.000232
582 0.000232
583 0.000230
584 0.000232
585 0.000232
586 0.000234
587 0.000232
588 0.000233
589 0.000233
590 0.000233
591 0.000232
592 0.000231
593 0.000232
594 0.000231
595 0.000231
596 0.000233
597 0.000236
598 0.000240
599 0.000244
600 0.000245
601 0.000247
602 0.000247
603 0.000247
604 0.000250
605 0.000252
606 0.000257
607 0.000261
608 0.000264
609 0.000266
610 0.000268
611 0.000268
612 0.000268
613 0.000268
614 0.000269
615 0.000272
616 0.000273
617 0.000274
618 0.000274
619 0.000276
620 0.000278
621 0.000278
622 0.000274
623 0.000268
624 0.000263
625 0.000262
626 0.000260
627 0.000260
628 0.000258
629 0.000256
630 0.000254
631 0.000250
632 0.000250
633 0.000250
634 0.000251
635 0.000252
636 0.000253
637 0.000253
638 0.000253
639 0.000251
640 0.000247
641 0.000244
642 0.000241
643 0.000240
644 0.000237
645 0.000232
646 0.000230
647 0.000228
648 0.000223
649 0.000222
650 0.000221
651 0.000219
652 0.000217
653 0.000217
654 0.000216
655 0.000215
656 0.000214
657 0.000213
658 0.000211
659 0.000208
660 0.000205
661 0.000204
662 0.000202
663 0.000202
664 0.000203
665 0.000202
666 0.000203
667 0.000202
668 0.000204
669 0.000204
670 0.000206
671 0.000206
672 0.000204
673 0.000206
674 0.000204
675 0.000205
676 0.000205
677 0.000204
678 0.000203
679 0.000204
680 0.000205
681 0.000206
682 0.000209
683 0.000210
684 0.000208
685 0.000209
686 0.000207
687 0.000207
688 0.000208
689 0.000209
690 0.000210
691 0.000210
692 0.000210
693 0.000209
694 0.000208
695 0.000207
696 0.000207
697 0.000205
698 0.000204
699 0.000202
700 0.000203
701 0.000202
702 0.000203
703 0.000204
704 0.000204
705 0.000205
706 0.000206
707 0.000207
708 0.000206
709 0.000206
710 0.000204
711 0.000204
712 0.000201
713 0.000202
714 0.000204
715 0.000206
716 0.000208
717 0.000210
718 0.000210
719 0.000208
720 0.000206
721 0.000203
722 0.000202
723 0.000201
724 0.000200
725 0.000199
726 0.000197
727 0.000194
728 0.000190
729 0.000184
730 0.000181
731 0.000178
732 0.000175
733 0.000172
734 0.000165
735 0.000156
736 0.000150
737 0.000146
738 0.000142
739 0.000138
740 0.000134
741 0.000130
742 0.000126
743 0.000124
744 0.000121
745 0.000117
746 0.000114
747 0.000111
748 0.000110
749 0.000110
750 0.000110
751 0.000108
752 0.000104
753 0.000100
754 0.000098
755 0.000094
756 0.000089
757 0.000084
758 0.000081
759 0.000078
760 0.000078
761 0.000075
762 0.000073
763 0.000071
764 0.000069
765 0.000066
766 0.000062
767 0.000060
768 0.000060
769 0.000058
770 0.000057
771 0.000056
772 0.000056
773 0.000053
774 0.000051
775 0.000050
776 0.000050
777 0.000049
778 0.000050
779 0.000049
780 0.000049
781 0.000049
782 0.000049
783 0.000047
784 0.000047
785 0.000048
786 0.000048
787 0.000049
788 0.000051
789 0.000051
790 0.000051
791 0.000051
792 0.000053
793 0.000054
794 0.000054
795 0.000054
796 0.000054
797 0.000055
798 0.000056
799 0.000058
800 0.000057
801 0.000060
802 0.000061
803 0.000061
804 0.000061
805 0.000060
806 0.000061
807 0.000061
808 0.000059
809 0.000058
