# i correlation
1 0.001471
2 0.001427
3 0.001390
4 0.001356
5 0.001325
6 0.001289
7 0.001257
8 0.001228
9 0.001201
10 0.001173
11 0.001145
12 0.001120
13 0.001100
14 0.001082
15 0.001069
16 0.001059
17 0.001045
18 0.001033
19 0.001023
20 0.001012
21 0.001004
22 0.000996
23 0.000985
24 0.000980
25 0.000975
26 0.000977
27 0.000975
28 0.000971
29 0.000971
30 0.000971
31 0.000970
32 0.000971
33 0.000969
34 0.000963
35 0.000958
36 0.000952
37 0.000945
38 0.000939
39 0.000926
40 0.000914
41 0.000904
42 0.000895
43 0.000886
44 0.000877
45 0.000871
46 0.000870
47 0.000874
48 0.000879
49 0.000878
50 0.000876
51 0.000873
52 0.000873
53 0.000871
54 0.000872
55 0.000871
56 0.000869
57 0.000864
58 0.000851
59 0.000838
60 0.000824
61 0.000811
62 0.000798
63 0.000790
64 0.000782
65 0.000776
66 0.000771
67 0.000767
68 0.000765
69 0.000765
70 0.000770
71 0.000771
72 0.000770
73 0.000773
74 0.000781
75 0.000792
76 0.000802
77 0.000808
78 0.000818
79 0.000826
80 0.000828
81 0.000828
82 0.000829
83 0.000831
84 0.000831
85 0.000832
86 0.000831
87 0.000830
88 0.000831
89 0.000832
90 0.000831
91 0.000827
92 0.000825
93 0.000821
94 0.000814
95 0.000814
96 0.000812
97 0.000810
98 0.000812
99 0.000811
100 0.000803
101 0.000802
102 0.000800
103 0.000801
104 0.000805
105 0.000808
106 0.000812
107 0.000814
108 0.000812
109 0.000813
110 0.000814
111 0.000813
112 0.000807
113 0.000806
114 0.000803
115 0.000794
116 0.000779
117 0.000767
118 0.000754
119 0.000740
120 0.000727
121 0.000713
122 0.000703
123 0.000698
124 0.000695
125 0.000700
126 0.000705
127 0.000711
128 0.000716
129 0.000720
130 0.000724
131 0.000726
132 0.000724
133 0.000723
134 0.000719
135 0.000717
136 0.000721
137 0.000724
138 0.000719
139 0.000712
140 0.000712
141 0.000714
142 0.000716
143 0.000716
144 0.000714
145 0.000719
146 0.000724
147 0.000724
148 0.000718
149 0.000710
150 0.000705
151 0.000698
152 0.000693
153 0.000693
154 0.000690
155 0.000683
156 0.000671
157 0.000660
158 0.000657
159 0.000653
160 0.000652
161 0.000655
162 0.000660
163 0.000669
164 0.000672
165 0.000672
166 0.000675
167 0.000679
168 0.000682
169 0.000681
170 0.000678
171 0.000675
172 0.000671
173 0.000670
174 0.000673
175 0.000671
176 0.000668
177 0.000666
178 0.000666
179 0.000666
180 0.000671
181 0.000674
182 0.000677
183 0.000679
184 0.000681
185 0.000683
186 0.000681
187 0.000677
188 0.000672
189 0.000667
190 0.000663
191 0.000654
192 0.000644
193 0.000640
194 0.000636
195 0.000630
196 0.000623
197 0.000615
198 0.000602
199 0.000594
200 0.000590
201 0.000585
202 0.000580
203 0.000574
204 0.000568
205 0.000563
206 0.000559
207 0.000556
208 0.000552
209 0.000550
210 0.000546
211 0.000544
212 0.000542
213 0.000538
214 0.000533
215 0.000530
216 0.000532
217 0.000534
218 0.000534
219 0.000533
220 0.000534
221 0.000538
222 0.000540
223 0.000539
224 0.000537
225 0.000532
226 0.000528
227 0.000522
228 0.000520
229 0.000522
230 0.000521
231 0.000518
232 0.000519
233 0.000517
234 0.000514
235 0.000506
236 0.000500
237 0.000496
238 0.000497
239 0.000498
240 0.000497
241 0.000496
242 0.000499
243 0.000499
244 0.000499
245 0.000493
246 0.000490
247 0.000486
248 0.000480
249 0.000476
250 0.000472
251 0.000469
252 0.000466
253 0.000462
254 0.000461
255 0.000459
256 0.000464
257 0.000468
258 0.000473
259 0.000481
260 0.000488
261 0.000490
262 0.000493
263 0.000494
264 0.000496
265 0.000495
266 0.000493
267 0.000491
268 0.000491
269 0.000488
270 0.000485
271 0.000479
272 0.000476
273 0.000479
274 0.000477
275 0.000474
276 0.000470
277 0.000468
278 0.000472
279 0.000476
280 0.000476
281 0.000471
282 0.000465
283 0.000460
284 0.000451
285 0.000445
286 0.000438
287 0.000431
288 0.000425
289 0.000423
290 0.000423
291 0.000422
292 0.000420
293 0.000416
294 0.000418
295 0.000422
296 0.000423
297 0.000420
298 0.000417
299 0.000421
300 0.000426
301 0.000426
302 0.000420
303 0.000417
304 0.000413
305 0.000412
306 0.000410
307 0.000413
308 0.000417
309 0.000422
310 0.000430
311 0.000438
312 0.000443
313 0.000446
314 0.000449
315 0.000452
316 0.000455
317 0.000457
318 0.000455
319 0.000454
320 0.000450
321 0.000447
322 0.000442
323 0.000436
324 0.000427
325 0.000417
326 0.000409
327 0.000406
328 0.000401
329 0.000394
330 0.000387
331 0.000383
332 0.000378
333 0.000374
334 0.000369
335 0.000369
336 0.000369
337 0.000367
338 0.000365
339 0.000364
340 0.000362
341 0.000357
342 0.000351
343 0.000349
344 0.000345
345 0.000345
346 0.000346
347 0.000350
348 0.000359
349 0.000367
350 0.000371
351 0.000372
352 0.000372
353 0.000375
354 0.000375
355 0.000372
356 0.000365
357 0.000360
358 0.000360
359 0.000359
360 0.000358
361 0.000355
362 0.000352
363 0.000349
364 0.000352
365 0.000351
366 0.000352
367 0.000354
368 0.000355
369 0.000357
370 0.000356
371 0.000353
372 0.000347
373 0.000339
374 0.000335
375 0.000333
376 0.000328
377 0.000324
378 0.000318
379 0.000313
380 0.000309
381 0.000301
382 0.000297
383 0.000296
384 0.000298
385 0.000302
386 0.000306
387 0.000308
388 0.000308
389 0.000304
390 0.000301
391 0.000301
392 0.000305
393 0.000309
394 0.000312
395 0.000313
396 0.000314
397 0.000316
398 0.000313
399 0.000310
400 0.000308
401 0.000306
402 0.000309
403 0.000310
404 0.000310
405 0.000312
406 0.000315
407 0.000318
408 0.000319
409 0.000325
410 0.000330
411 0.000333
412 0.000335
413 0.000334
414 0.000333
415 0.000333
416 0.000335
417 0.000336
418 0.000334
419 0.000331
420 0.000329
421 0.000326
422 0.000323
423 0.000321
424 0.000319
425 0.000318
426 0.000318
427 0.000316
428 0.000313
429 0.000309
430 0.000302
431 0.000297
432 0.000294
433 0.000291
434 0.000289
435 0.000282
436 0.000279
437 0.000276
438 0.000273
439 0.000272
440 0.000270
441 0.000273
442 0.000276
443 0.000282
444 0.000285
445 0.000288
446 0.000290
447 0.000294
448 0.000296
449 0.000299
450 0.000303
451 0.000303
452 0.000303
453 0.000308
454 0.000310
455 0.000307
456 0.000303
457 0.000301
458 0.000300
459 0.000298
460 0.000298
461 0.000300
462 0.000306
463 0.000313
464 0.000319
465 0.000321
466 0.000323
467 0.000325
468 0.000322
469 0.000321
470 0.000315
471 0.000307
472 0.000301
473 0.000295
474 0.000291
475 0.000288
476 0.000287
477 0.000285
478 0.000281
479 0.000280
480 0.000284
481 0.000289
482 0.000292
483 0.000294
484 0.000294
485 0.000295
486 0.000296
487 0.000297
488 0.000296
489 0.000298
490 0.000305
491 0.000314
492 0.000317
493 0.000319
494 0.000324
495 0.000332
496 0.000336
497 0.000339
498 0.000342
499 0.000347
500 0.000351
501 0.000354
502 0.000357
503 0.000356
504 0.000353
505 0.000348
506 0.000345
507 0.000344
508 0.000340
509 0.000333
510 0.000326
511 0.000320
512 0.000318
513 0.000317
514 0.000315
515 0.000309
516 0.000305
517 0.000303
518 0.000300
519 0.000297
520 0.000294
521 0.000294
522 0.000294
523 0.000294
524 0.000294
525 0.000292
526 0.000286
527 0.000278
528 0.000272
529 0.000267
530 0.000258
531 0.000248
532 0.000241
533 0.000234
534 0.000224
535 0.000214
536 0.000200
537 0.000193
538 0.000187
539 0.000183
540 0.000184
541 0.000181
542 0.000179
543 0.000180
544 0.000178
545 0.000177
546 0.000178
547 0.000179
548 0.000181
549 0.000184
550 0.000183
551 0.000185
552 0.000185
553 0.000186
554 0.000186
555 0.000188
556 0.000189
557 0.000191
558 0.000193
559 0.000195
560 0.000194
561 0.000197
562 0.000197
563 0.000198
564 0.000196
565 0.000193
566 0.000187
567 0.000183
568 0.000180
569 0.000178
570 0.000180
571 0.000184
572 0.000185
573 0.000190
574 0.000194
575 0.000200
576 0.000203
577 0.000207
578 0.000213
579 0.000219
580 0.000228
581 0.000234
582 0.000239
583 0.000241
584 0.000239
585 0.000236
586 0.000230
587 0.000226
588 0.000221
589 0.000218
590 0.000218
591 0.000219
592 0.000217
593 0.000215
594 0.000216
595 0.000218
596 0.000219
597 0.000222
598 0.000221
599 0.000222
600 0.000227
601 0.000228
602 0.000226
603 0.000227
604 0.000229
605 0.000229
606 0.000231
607 0.000230
608 0.000231
609 0.000234
610 0.000238
611 0.000241
612 0.000245
613 0.000247
614 0.000248
615 0.000245
616 0.000242
617 0.000241
618 0.000240
619 0.000235
620 0.000230
621 0.000223
622 0.000218
623 0.000215
624 0.000211
625 0.000208
626 0.000208
627 0.000213
628 0.000219
629 0.000221
630 0.000229
631 0.000235
632 0.000241
633 0.000245
634 0.000249
635 0.000252
636 0.000255
637 0.000256
638 0.000256
639 0.000255
640 0.000250
641 0.000247
642 0.000241
643 0.000238
644 0.000234
645 0.000228
646 0.000221
647 0.000213
648 0.000206
649 0.000201
650 0.000201
651 0.000197
652 0.000191
653 0.000188
654 0.000189
655 0.000187
656 0.000186
657 0.000185
658 0.000185
659 0.000187
660 0.000194
661 0.000199
662 0.000206
663 0.000210
664 0.000212
665 0.000216
666 0.000221
667 0.000223
668 0.000223
669 0.000225
670 0.000227
671 0.000230
672 0.000230
673 0.000229
674 0.000229
675 0.000232
676 0.000236
677 0.000236
678 0.000235
679 0.000233
680 0.000231
681 0.000226
682 0.000223
683 0.000220
684 0.000215
685 0.000212
686 0.000208
687 0.000206
688 0.000209
689 0.000210
690 0.000208
691 0.000207
692 0.000205
693 0.000204
694 0.000201
695 0.000200
696 0.000197
697 0.000191
698 0.000188
699 0.000183
700 0.000178
701 0.000173
702 0.000169
703 0.000165
704 0.000162
705 0.000157
706 0.000153
707 0.000153
708 0.000153
709 0.000158
710 0.000158
711 0.000158
712 0.000158
713 0.000158
714 0.000159
715 0.000160
716 0.000158
717 0.000158
718 0.000158
719 0.000157
720 0.000158
721 0.000157
722 0.000153
723 0.000153
724 0.000150
725 0.000147
726 0.000146
727 0.000143
728 0.000141
729 0.000137
730 0.000135
731 0.000134
732 0.000132
733 0.000132
734 0.000129
735 0.000128
736 0.000129
737 0.000131
738 0.000130
739 0.000128
740 0.000129
741 0.000131
742 0.000134
743 0.000137
744 0.000140
745 0.000143
746 0.000144
747 0.000145
748 0.000144
749 0.000143
750 0.000141
751 0.000139
752 0.000138
753 0.000136
754 0.000135
755 0.000134
756 0.000133
757 0.000132
758 0.000134
759 0.000132
760 0.000130
761 0.000131
762 0.000131
763 0.000131
764 0.000133
765 0.000135
766 0.000136
767 0.000137
768 0.000137
769 0.000138
770 0.000141
771 0.000144
772 0.000148
773 0.000150
774 0.000154
775 0.000158
776 0.000159
777 0.000162
778 0.000165
779 0.000168
780 0.000171
781 0.000175
782 0.000177
783 0.000175
784 0.000173
785 0.000171
786 0.000170
787 0.000170
788 0.000168
789 0.000166
790 0.000166
791 0.000169
792 0.000168
793 0.000166
794 0.000163
795 0.000157
796 0.000155
797 0.000156
798 0.000153
799 0.000152
800 0.000151
801 0.000151
802 0.000152
803 0.000151
804 0.000151
805 0.000151
806 0.000151
807 0.000150
808 0.000152
809 0.000148
