# i correlation
1 0.001803
2 0.001765
3 0.001733
4 0.001708
5 0.001685
6 0.001667
7 0.001652
8 0.001638
9 0.001625
10 0.001606
11 0.001591
12 0.001581
13 0.001571
14 0.001565
15 0.001557
16 0.001551
17 0.001544
18 0.001535
19 0.001528
20 0.001518
21 0.001508
22 0.001498
23 0.001486
24 0.001473
25 0.001461
26 0.001455
27 0.001447
28 0.001440
29 0.001435
30 0.001428
31 0.001422
32 0.001415
33 0.001412
34 0.001407
35 0.001400
36 0.001391
37 0.001382
38 0.001377
39 0.001371
40 0.001365
41 0.001363
42 0.001364
43 0.001364
44 0.001361
45 0.001352
46 0.001345
47 0.001339
48 0.001329
49 0.001324
50 0.001319
51 0.001319
52 0.001314
53 0.001312
54 0.001311
55 0.001307
56 0.001302
57 0.001293
58 0.001285
59 0.001278
60 0.001270
61 0.001263
62 0.001259
63 0.001257
64 0.001252
65 0.001248
66 0.001242
67 0.001236
68 0.001229
69 0.001223
70 0.001224
71 0.001226
72 0.001226
73 0.001223
74 0.001213
75 0.001205
76 0.001200
77 0.001197
78 0.001193
79 0.001191
80 0.001188
81 0.001189
82 0.001190
83 0.001187
84 0.001182
85 0.001185
86 0.001190
87 0.001193
88 0.001197
89 0.001197
90 0.001197
91 0.001197
92 0.001195
93 0.001190
94 0.001183
95 0.001176
96 0.001169
97 0.001162
98 0.001154
99 0.001146
100 0.001139
101 0.001130
102 0.001124
103 0.001113
104 0.001104
105 0.001102
106 0.001098
107 0.001096
108 0.001092
109 0.001089
110 0.001081
111 0.001073
112 0.001064
113 0.001059
114 0.001056
115 0.001052
116 0.001050
117 0.001049
118 0.001045
119 0.001041
120 0.001038
121 0.001037
122 0.001036
123 0.001035
124 0.001039
125 0.001039
126 0.001039
127 0.001034
128 0.001031
129 0.001030
130 0.001027
131 0.001025
132 0.001026
133 0.001027
134 0.001025
135 0.001025
136 0.001025
137 0.001024
138 0.001021
139 0.001015
140 0.001014
141 0.001014
142 0.001015
143 0.001019
144 0.001021
145 0.001017
146 0.001012
147 0.001007
148 0.001000
149 0.000996
150 0.000991
151 0.000990
152 0.000994
153 0.001000
154 0.001001
155 0.001002
156 0.001000
157 0.001000
158 0.000999
159 0.000997
160 0.000993
161 0.000992
162 0.000985
163 0.000979
164 0.000978
165 0.000975
166 0.000973
167 0.000967
168 0.000965
169 0.000961
170 0.000961
171 0.000962
172 0.000966
173 0.000974
174 0.000979
175 0.000982
176 0.000981
177 0.000980
178 0.000981
179 0.000983
180 0.000987
181 0.000987
182 0.000987
183 0.000982
184 0.000979
185 0.000978
186 0.000981
187 0.000985
188 0.000988
189 0.000990
190 0.000988
191 0.000981
192 0.000974
193 0.000967
194 0.000964
195 0.000961
196 0.000958
197 0.000953
198 0.000950
199 0.000951
200 0.000945
201 0.000937
202 0.000931
203 0.000927
204 0.000922
205 0.000915
206 0.000909
207 0.000906
208 0.000907
209 0.000909
210 0.000906
211 0.000905
212 0.000902
213 0.000901
214 0.000900
215 0.000900
216 0.000901
217 0.000903
218 0.000904
219 0.000901
220 0.000901
221 0.000896
222 0.000894
223 0.000890
224 0.000889
225 0.000888
226 0.000887
227 0.000883
228 0.000880
229 0.000877
230 0.000875
231 0.000871
232 0.000870
233 0.000872
234 0.000872
235 0.000870
236 0.000867
237 0.000865
238 0.000860
239 0.000858
240 0.000856
241 0.000859
242 0.000864
243 0.000869
244 0.000868
245 0.000868
246 0.000869
247 0.000864
248 0.000854
249 0.000848
250 0.000845
251 0.000841
252 0.000837
253 0.000831
254 0.000824
255 0.000816
256 0.000809
257 0.000805
258 0.000802
259 0.000801
260 0.000800
261 0.000801
262 0.000801
263 0.000801
264 0.000801
265 0.000797
266 0.000798
267 0.000797
268 0.000797
269 0.000794
270 0.000791
271 0.000792
272 0.000793
273 0.000789
274 0.000786
275 0.000783
276 0.000780
277 0.000776
278 0.000774
279 0.000772
280 0.000776
281 0.000778
282 0.000780
283 0.000777
284 0.000776
285 0.000777
286 0.000775
287 0.000774
288 0.000774
289 0.000772
290 0.000771
291 0.000766
292 0.000761
293 0.000753
294 0.000745
295 0.000741
296 0.000740
297 0.000738
298 0.000738
299 0.000737
300 0.000732
301 0.000734
302 0.000730
303 0.000727
304 0.000725
305 0.000724
306 0.000720
307 0.000716
308 0.000713
309 0.000711
310 0.000710
311 0.000709
312 0.000707
313 0.000708
314 0.000707
315 0.000708
316 0.000709
317 0.000711
318 0.000712
319 0.000710
320 0.000703
321 0.000697
322 0.000699
323 0.000702
324 0.000703
325 0.000700
326 0.000691
327 0.000684
328 0.000681
329 0.000679
330 0.000679
331 0.000681
332 0.000683
333 0.000684
334 0.000686
335 0.000686
336 0.000684
337 0.000681
338 0.000680
339 0.000683
340 0.000684
341 0.000683
342 0.000684
343 0.000681
344 0.000680
345 0.000677
346 0.000676
347 0.000672
348 0.000668
349 0.000664
350 0.000661
351 0.000662
352 0.000664
353 0.000663
354 0.000667
355 0.000671
356 0.000672
357 0.000671
358 0.000670
359 0.000666
360 0.000666
361 0.000665
362 0.000663
363 0.000663
364 0.000662
365 0.000657
366 0.000653
367 0.000651
368 0.000652
369 0.000653
370 0.000654
371 0.000655
372 0.000656
373 0.000657
374 0.000658
375 0.000659
376 0.000659
377 0.000661
378 0.000664
379 0.000664
380 0.000661
381 0.000657
382 0.000653
383 0.000651
384 0.000651
385 0.000651
386 0.000649
387 0.000648
388 0.000647
389 0.000646
390 0.000646
391 0.000638
392 0.000630
393 0.000624
394 0.000616
395 0.000611
396 0.000609
397 0.000604
398 0.000602
399 0.000600
400 0.000596
401 0.000594
402 0.000591
403 0.000589
404 0.000589
405 0.000591
406 0.000594
407 0.000598
408 0.000599
409 0.000599
410 0.000599
411 0.000595
412 0.000592
413 0.000584
414 0.000577
415 0.000572
416 0.000568
417 0.000563
418 0.000560
419 0.000555
420 0.000547
421 0.000543
422 0.000537
423 0.000535
424 0.000536
425 0.000539
426 0.000539
427 0.000540
428 0.000541
429 0.000543
430 0.000541
431 0.000541
432 0.000543
433 0.000544
434 0.000544
435 0.000540
436 0.000535
437 0.000528
438 0.000519
439 0.000514
440 0.000507
441 0.000503
442 0.000502
443 0.000503
444 0.000502
445 0.000502
446 0.000501
447 0.000499
448 0.000498
449 0.000496
450 0.000495
451 0.000493
452 0.000490
453 0.000486
454 0.000483
455 0.000479
456 0.000475
457 0.000472
458 0.000468
459 0.000468
460 0.000470
461 0.000470
462 0.000470
463 0.000469
464 0.000466
465 0.000464
466 0.000465
467 0.000464
468 0.000459
469 0.000453
470 0.000449
471 0.000449
472 0.000450
473 0.000448
474 0.000447
475 0.000450
476 0.000455
477 0.000459
478 0.000462
479 0.000463
480 0.000462
481 0.000461
482 0.000457
483 0.000457
484 0.000457
485 0.000456
486 0.000454
487 0.000451
488 0.000451
489 0.000451
490 0.000450
491 0.000449
492 0.000448
493 0.000447
494 0.000446
495 0.000445
496 0.000444
497 0.000447
498 0.000451
499 0.000452
500 0.000453
501 0.000452
502 0.000451
503 0.000451
504 0.000454
505 0.000453
506 0.000452
507 0.000452
508 0.000450
509 0.000448
510 0.000447
511 0.000445
512 0.000444
513 0.000444
514 0.000442
515 0.000441
516 0.000439
517 0.000439
518 0.000435
519 0.000433
520 0.000428
521 0.000427
522 0.000429
523 0.000429
524 0.000427
525 0.000426
526 0.000425
527 0.000424
528 0.000423
529 0.000422
530 0.000422
531 0.000424
532 0.000428
533 0.000430
534 0.000432
535 0.000431
536 0.000429
537 0.000426
538 0.000425
539 0.000425
540 0.000424
541 0.000424
542 0.000426
543 0.000430
544 0.000433
545 0.000433
546 0.000432
547 0.000429
548 0.000428
549 0.000423
550 0.000420
551 0.000420
552 0.000419
553 0.000418
554 0.000419
555 0.000419
556 0.000419
557 0.000417
558 0.000417
559 0.000417
560 0.000418
561 0.000418
562 0.000419
563 0.000419
564 0.000420
565 0.000419
566 0.000421
567 0.000422
568 0.000421
569 0.000420
570 0.000419
571 0.000417
572 0.000416
573 0.000413
574 0.000412
575 0.000410
576 0.000410
577 0.000409
578 0.000406
579 0.000406
580 0.000403
581 0.000402
582 0.000399
583 0.000398
584 0.000399
585 0.000404
586 0.000409
587 0.000411
588 0.000415
589 0.000419
590 0.000424
591 0.000423
592 0.000423
593 0.000423
594 0.000422
595 0.000422
596 0.000423
597 0.000428
598 0.000430
599 0.000430
600 0.000431
601 0.000428
602 0.000426
603 0.000425
604 0.000425
605 0.000428
606 0.000430
607 0.000431
608 0.000429
609 0.000426
610 0.000424
611 0.000421
612 0.000416
613 0.000410
614 0.000407
615 0.000405
616 0.000403
617 0.000401
618 0.000400
619 0.000400
620 0.000401
621 0.000406
622 0.000407
623 0.000406
624 0.000407
625 0.000407
626 0.000405
627 0.000401
628 0.000400
629 0.000400
630 0.000400
631 0.000398
632 0.000398
633 0.000398
634 0.000396
635 0.000392
636 0.000389
637 0.000388
638 0.000385
639 0.000382
640 0.000379
641 0.000376
642 0.000372
643 0.000367
644 0.000360
645 0.000354
646 0.000348
647 0.000343
648 0.000340
649 0.000338
650 0.000335
651 0.000332
652 0.000331
653 0.000330
654 0.000328
655 0.000325
656 0.000323
657 0.000321
658 0.000317
659 0.000315
660 0.000310
661 0.000308
662 0.000303
663 0.000299
664 0.000293
665 0.000289
666 0.000284
667 0.000280
668 0.000278
669 0.000276
670 0.000275
671 0.000275
672 0.000274
673 0.000273
674 0.000271
675 0.000269
676 0.000268
677 0.000268
678 0.000267
679 0.000268
680 0.000269
681 0.000268
682 0.000263
683 0.000258
684 0.000253
685 0.000251
686 0.000249
687 0.000251
688 0.000252
689 0.000252
690 0.000251
691 0.000252
692 0.000253
693 0.000254
694 0.000256
695 0.000257
696 0.000257
697 0.000257
698 0.000254
699 0.000251
700 0.000249
701 0.000247
702 0.000245
703 0.000244
704 0.000237
705 0.000229
706 0.000223
707 0.000219
708 0.000216
709 0.000213
710 0.000209
711 0.000207
712 0.000206
713 0.000205
714 0.000203
715 0.000201
716 0.000201
717 0.000201
718 0.000200
719 0.000199
720 0.000199
721 0.000199
722 0.000200
723 0.000201
724 0.000203
725 0.000202
726 0.000203
727 0.000202
728 0.000203
729 0.000202
730 0.000205
731 0.000206
732 0.000206
733 0.000206
734 0.000207
735 0.000208
736 0.000207
737 0.000205
738 0.000204
739 0.000201
740 0.000200
741 0.000198
742 0.000196
743 0.000195
744 0.000194
745 0.000191
746 0.000189
747 0.000191
748 0.000191
749 0.000192
750 0.000195
751 0.000197
752 0.000197
753 0.000195
754 0.000196
755 0.000193
756 0.000191
757 0.000189
758 0.000190
759 0.000190
760 0.000188
761 0.000188
762 0.000187
763 0.000188
764 0.000187
765 0.000189
766 0.000191
767 0.000193
768 0.000194
769 0.000196
770 0.000198
771 0.000200
772 0.000201
773 0.000203
774 0.000205
775 0.000207
776 0.000206
777 0.000208
778 0.000211
779 0.000213
780 0.000216
781 0.000219
782 0.000222
783 0.000226
784 0.000230
785 0.000235
786 0.000236
787 0.000237
788 0.000236
789 0.000240
790 0.000241
791 0.000240
792 0.000239
793 0.000238
794 0.000238
795 0.000237
796 0.000236
797 0.000235
798 0.000234
799 0.000230
800 0.000225
801 0.000220
802 0.000216
803 0.000211
804 0.000204
805 0.000201
806 0.000197
807 0.000195
808 0.000193
809 0.000191
