# i correlation
1 0.001611
2 0.001562
3 0.001522
4 0.001484
5 0.001449
6 0.001424
7 0.001403
8 0.001383
9 0.001368
10 0.001352
11 0.001335
12 0.001314
13 0.001297
14 0.001283
15 0.001272
16 0.001259
17 0.001250
18 0.001242
19 0.001232
20 0.001224
21 0.001217
22 0.001213
23 0.001213
24 0.001218
25 0.001221
26 0.001228
27 0.001234
28 0.001240
29 0.001243
30 0.001240
31 0.001237
32 0.001233
33 0.001229
34 0.001221
35 0.001213
36 0.001200
37 0.001190
38 0.001179
39 0.001167
40 0.001156
41 0.001139
42 0.001123
43 0.001111
44 0.001102
45 0.001089
46 0.001081
47 0.001073
48 0.001060
49 0.001051
50 0.001046
51 0.001043
52 0.001038
53 0.001030
54 0.001023
55 0.001023
56 0.001018
57 0.001013
58 0.001008
59 0.001009
60 0.001011
61 0.001014
62 0.001020
63 0.001026
64 0.001030
65 0.001035
66 0.001038
67 0.001036
68 0.001031
69 0.001025
70 0.001019
71 0.001013
72 0.001008
73 0.001002
74 0.000993
75 0.000983
76 0.000972
77 0.000962
78 0.000952
79 0.000943
80 0.000937
81 0.000929
82 0.000923
83 0.000914
84 0.000908
85 0.000902
86 0.000897
87 0.000894
88 0.000891
89 0.000887
90 0.000890
91 0.000892
92 0.000888
93 0.000886
94 0.000887
95 0.000889
96 0.000891
97 0.000894
98 0.000895
99 0.000896
100 0.000894
101 0.000892
102 0.000887
103 0.000881
104 0.000875
105 0.000868
106 0.000863
107 0.000862
108 0.000860
109 0.000859
110 0.000852
111 0.000846
112 0.000840
113 0.000835
114 0.000830
115 0.000827
116 0.000827
117 0.000823
118 0.000818
119 0.000816
120 0.000812
121 0.000806
122 0.000802
123 0.000799
124 0.000798
125 0.000800
126 0.000803
127 0.000805
128 0.000809
129 0.000813
130 0.000815
131 0.000814
132 0.000807
133 0.000800
134 0.000792
135 0.000786
136 0.000781
137 0.000776
138 0.000772
139 0.000770
140 0.000770
141 0.000766
142 0.000767
143 0.000767
144 0.000766
145 0.000764
146 0.000763
147 0.000764
148 0.000763
149 0.000761
150 0.000760
151 0.000756
152 0.000754
153 0.000753
154 0.000758
155 0.000760
156 0.000759
157 0.000760
158 0.000766
159 0.000763
160 0.000756
161 0.000752
162 0.000751
163 0.000750
164 0.000746
165 0.000742
166 0.000732
167 0.000726
168 0.000726
169 0.000724
170 0.000717
171 0.000713
172 0.000708
173 0.000700
174 0.000693
175 0.000685
176 0.000676
177 0.000667
178 0.000659
179 0.000653
180 0.000645
181 0.000642
182 0.000638
183 0.000632
184 0.000626
185 0.000623
186 0.000621
187 0.000618
188 0.000611
189 0.000604
190 0.000596
191 0.000591
192 0.000587
193 0.000584
194 0.000581
195 0.000580
196 0.000573
197 0.000567
198 0.000562
199 0.000556
200 0.000551
201 0.000550
202 0.000552
203 0.000548
204 0.000539
205 0.000533
206 0.000527
207 0.000518
208 0.000511
209 0.000509
210 0.000510
211 0.000507
212 0.000504
213 0.000505
214 0.000506
215 0.000507
216 0.000508
217 0.000509
218 0.000509
219 0.000508
220 0.000510
221 0.000513
222 0.000511
223 0.000506
224 0.000504
225 0.000499
226 0.000497
227 0.000494
228 0.000494
229 0.000489
230 0.000484
231 0.000480
232 0.000476
233 0.000474
234 0.000474
235 0.000473
236 0.000471
237 0.000470
238 0.000469
239 0.000470
240 0.000468
241 0.000466
242 0.000466
243 0.000465
244 0.000466
245 0.000469
246 0.000470
247 0.000467
248 0.000466
249 0.000462
250 0.000458
251 0.000455
252 0.000454
253 0.000454
254 0.000453
255 0.000450
256 0.000449
257 0.000449
258 0.000447
259 0.000447
260 0.000448
261 0.000449
262 0.000444
263 0.000439
264 0.000437
265 0.000437
266 0.000435
267 0.000436
268 0.000439
269 0.000439
270 0.000433
271 0.000429
272 0.000428
273 0.000423
274 0.000424
275 0.000422
276 0.000422
277 0.000423
278 0.000425
279 0.000424
280 0.000419
281 0.000419
282 0.000414
283 0.000413
284 0.000416
285 0.000418
286 0.000421
287 0.000420
288 0.000423
289 0.000425
290 0.000426
291 0.000425
292 0.000423
293 0.000419
294 0.000423
295 0.000424
296 0.000422
297 0.000422
298 0.000426
299 0.000424
300 0.000428
301 0.000432
302 0.000428
303 0.000427
304 0.000426
305 0.000424
306 0.000423
307 0.000421
308 0.000422
309 0.000420
310 0.000416
311 0.000415
312 0.000417
313 0.000411
314 0.000407
315 0.000405
316 0.000403
317 0.000401
318 0.000401
319 0.000401
320 0.000398
321 0.000396
322 0.000390
323 0.000379
324 0.000372
325 0.000366
326 0.000366
327 0.000367
328 0.000367
329 0.000372
330 0.000376
331 0.000379
332 0.000378
333 0.000378
334 0.000373
335 0.000369
336 0.000366
337 0.000360
338 0.000357
339 0.000352
340 0.000347
341 0.000346
342 0.000342
343 0.000338
344 0.000333
345 0.000332
346 0.000333
347 0.000332
348 0.000329
349 0.000329
350 0.000327
351 0.000326
352 0.000324
353 0.000320
354 0.000316
355 0.000315
356 0.000318
357 0.000317
358 0.000316
359 0.000317
360 0.000316
361 0.000314
362 0.000311
363 0.000310
364 0.000312
365 0.000310
366 0.000306
367 0.000303
368 0.000302
369 0.000297
370 0.000291
371 0.000290
372 0.000290
373 0.000290
374 0.000290
375 0.000287
376 0.000286
377 0.000283
378 0.000278
379 0.000273
380 0.000269
381 0.000264
382 0.000264
383 0.000266
384 0.000266
385 0.000269
386 0.000270
387 0.000274
388 0.000275
389 0.000276
390 0.000276
391 0.000273
392 0.000271
393 0.000273
394 0.000270
395 0.000271
396 0.000275
397 0.000275
398 0.000275
399 0.000271
400 0.000266
401 0.000263
402 0.000262
403 0.000261
404 0.000260
405 0.000257
406 0.000249
407 0.000243
408 0.000238
409 0.000233
410 0.000231
411 0.000233
412 0.000234
413 0.000235
414 0.000238
415 0.000245
416 0.000251
417 0.000253
418 0.000253
419 0.000252
420 0.000251
421 0.000248
422 0.000245
423 0.000251
424 0.000252
425 0.000251
426 0.000251
427 0.000253
428 0.000256
429 0.000257
430 0.000257
431 0.000258
432 0.000254
433 0.000249
434 0.000242
435 0.000234
436 0.000228
437 0.000223
438 0.000218
439 0.000218
440 0.000221
441 0.000223
442 0.000223
443 0.000221
444 0.000219
445 0.000215
446 0.000217
447 0.000219
448 0.000221
449 0.000221
450 0.000220
451 0.000218
452 0.000221
453 0.000224
454 0.000229
455 0.000239
456 0.000247
457 0.000254
458 0.000260
459 0.000268
460 0.000272
461 0.000274
462 0.000280
463 0.000286
464 0.000288
465 0.000289
466 0.000291
467 0.000294
468 0.000294
469 0.000297
470 0.000299
471 0.000299
472 0.000299
473 0.000300
474 0.000296
475 0.000294
476 0.000290
477 0.000286
478 0.000281
479 0.000279
480 0.000282
481 0.000285
482 0.000287
483 0.000293
484 0.000300
485 0.000306
486 0.000310
487 0.000317
488 0.000320
489 0.000323
490 0.000322
491 0.000321
492 0.000320
493 0.000317
494 0.000314
495 0.000315
496 0.000315
497 0.000309
498 0.000303
499 0.000296
500 0.000291
501 0.000286
502 0.000279
503 0.000275
504 0.000273
505 0.000270
506 0.000270
507 0.000268
508 0.000260
509 0.000253
510 0.000249
511 0.000249
512 0.000249
513 0.000254
514 0.000262
515 0.000269
516 0.000270
517 0.000274
518 0.000279
519 0.000283
520 0.000288
521 0.000291
522 0.000297
523 0.000300
524 0.000304
525 0.000306
526 0.000304
527 0.000305
528 0.000305
529 0.000303
530 0.000299
531 0.000294
532 0.000293
533 0.000293
534 0.000293
535 0.000292
536 0.000292
537 0.000290
538 0.000287
539 0.000282
540 0.000278
541 0.000274
542 0.000271
543 0.000268
544 0.000265
545 0.000264
546 0.000262
547 0.000261
548 0.000263
549 0.000263
550 0.000265
551 0.000268
552 0.000270
553 0.000271
554 0.000274
555 0.000275
556 0.000276
557 0.000278
558 0.000283
559 0.000285
560 0.000289
561 0.000291
562 0.000292
563 0.000291
564 0.000287
565 0.000283
566 0.000281
567 0.000280
568 0.000276
569 0.000275
570 0.000271
571 0.000265
572 0.000261
573 0.000257
574 0.000255
575 0.000257
576 0.000257
577 0.000255
578 0.000257
579 0.000257
580 0.000255
581 0.000251
582 0.000250
583 0.000249
584 0.000251
585 0.000254
586 0.000257
587 0.000261
588 0.000264
589 0.000267
590 0.000269
591 0.000268
592 0.000266
593 0.000265
594 0.000267
595 0.000270
596 0.000275
597 0.000279
598 0.000284
599 0.000287
600 0.000291
601 0.000291
602 0.000289
603 0.000286
604 0.000286
605 0.000286
606 0.000284
607 0.000281
608 0.000276
609 0.000274
610 0.000275
611 0.000275
612 0.000274
613 0.000276
614 0.000277
615 0.000284
616 0.000289
617 0.000293
618 0.000295
619 0.000297
620 0.000296
621 0.000294
622 0.000292
623 0.000289
624 0.000288
625 0.000290
626 0.000292
627 0.000297
628 0.000303
629 0.000310
630 0.000318
631 0.000322
632 0.000324
633 0.000331
634 0.000334
635 0.000336
636 0.000336
637 0.000337
638 0.000337
639 0.000337
640 0.000335
641 0.000335
642 0.000334
643 0.000335
644 0.000338
645 0.000339
646 0.000337
647 0.000333
648 0.000331
649 0.000330
650 0.000331
651 0.000327
652 0.000321
653 0.000315
654 0.000309
655 0.000303
656 0.000296
657 0.000291
658 0.000288
659 0.000285
660 0.000280
661 0.000278
662 0.000278
663 0.000277
664 0.000278
665 0.000280
666 0.000281
667 0.000284
668 0.000288
669 0.000291
670 0.000290
671 0.000287
672 0.000284
673 0.000279
674 0.000275
675 0.000271
676 0.000270
677 0.000271
678 0.000271
679 0.000271
680 0.000269
681 0.000266
682 0.000261
683 0.000256
684 0.000250
685 0.000244
686 0.000236
687 0.000229
688 0.000225
689 0.000218
690 0.000215
691 0.000213
692 0.000213
693 0.000214
694 0.000215
695 0.000213
696 0.000214
697 0.000215
698 0.000215
699 0.000217
700 0.000217
701 0.000220
702 0.000222
703 0.000223
704 0.000223
705 0.000226
706 0.000229
707 0.000226
708 0.000225
709 0.000224
710 0.000220
711 0.000214
712 0.000207
713 0.000201
714 0.000195
715 0.000192
716 0.000191
717 0.000191
718 0.000189
719 0.000184
720 0.000179
721 0.000170
722 0.000160
723 0.000154
724 0.000153
725 0.000152
726 0.000149
727 0.000149
728 0.000147
729 0.000145
730 0.000143
731 0.000143
732 0.000143
733 0.000141
734 0.000143
735 0.000146
736 0.000146
737 0.000146
738 0.000144
739 0.000140
740 0.000139
741 0.000140
742 0.000140
743 0.000140
744 0.000142
745 0.000144
746 0.000145
747 0.000143
748 0.000143
749 0.000141
750 0.000138
751 0.000130
752 0.000124
753 0.000119
754 0.000112
755 0.000106
756 0.000099
757 0.000094
758 0.000089
759 0.000089
760 0.000087
761 0.000087
762 0.000086
763 0.000088
764 0.000090
765 0.000089
766 0.000087
767 0.000084
768 0.000082
769 0.000082
770 0.000083
771 0.000081
772 0.000083
773 0.000086
774 0.000089
775 0.000093
776 0.000093
777 0.000093
778 0.000094
779 0.000098
780 0.000099
781 0.000100
782 0.000100
783 0.000099
784 0.000096
785 0.000091
786 0.000086
787 0.000083
788 0.000081
789 0.000079
790 0.000078
791 0.000078
792 0.000077
793 0.000076
794 0.000071
795 0.000069
796 0.000066
797 0.000068
798 0.000069
799 0.000071
800 0.000071
801 0.000072
802 0.000073
803 0.000072
804 0.000071
805 0.000069
806 0.000070
807 0.000070
808 0.000071
809 0.000070
