# i correlation
1 0.001536
2 0.001500
3 0.001467
4 0.001436
5 0.001412
6 0.001389
7 0.001375
8 0.001360
9 0.001343
10 0.001329
11 0.001313
12 0.001293
13 0.001273
14 0.001252
15 0.001229
16 0.001214
17 0.001203
18 0.001193
19 0.001186
20 0.001175
21 0.001162
22 0.001149
23 0.001139
24 0.001131
25 0.001123
26 0.001116
27 0.001117
28 0.001112
29 0.001107
30 0.001101
31 0.001100
32 0.001095
33 0.001088
34 0.001078
35 0.001072
36 0.001068
37 0.001065
38 0.001061
39 0.001055
40 0.001045
41 0.001037
42 0.001030
43 0.001018
44 0.001014
45 0.001009
46 0.001004
47 0.000999
48 0.000993
49 0.000991
50 0.000984
51 0.000980
52 0.000979
53 0.000974
54 0.000975
55 0.000973
56 0.000978
57 0.000985
58 0.000990
59 0.000990
60 0.000989
61 0.000986
62 0.000983
63 0.000986
64 0.000988
65 0.000988
66 0.000990
67 0.000987
68 0.000984
69 0.000983
70 0.000981
71 0.000979
72 0.000974
73 0.000973
74 0.000968
75 0.000962
76 0.000955
77 0.000951
78 0.000942
79 0.000936
80 0.000931
81 0.000928
82 0.000921
83 0.000920
84 0.000917
85 0.000917
86 0.000914
87 0.000913
88 0.000910
89 0.000907
90 0.000907
91 0.000906
92 0.000906
93 0.000907
94 0.000909
95 0.000914
96 0.000920
97 0.000920
98 0.000918
99 0.000909
100 0.000900
101 0.000889
102 0.000875
103 0.000867
104 0.000858
105 0.000850
106 0.000843
107 0.000835
108 0.000826
109 0.000815
110 0.000803
111 0.000791
112 0.000778
113 0.000765
114 0.000756
115 0.000748
116 0.000740
117 0.000732
118 0.000728
119 0.000721
120 0.000711
121 0.000701
122 0.000699
123 0.000698
124 0.000700
125 0.000705
126 0.000709
127 0.000713
128 0.000717
129 0.000719
130 0.000720
131 0.000723
132 0.000723
133 0.000726
134 0.000730
135 0.000730
136 0.000731
137 0.000729
138 0.000727
139 0.000724
140 0.000720
141 0.000718
142 0.000712
143 0.000710
144 0.000706
145 0.000703
146 0.000701
147 0.000700
148 0.000695
149 0.000690
150 0.000687
151 0.000684
152 0.000680
153 0.000680
154 0.000683
155 0.000690
156 0.000698
157 0.000707
158 0.000714
159 0.000720
160 0.000727
161 0.000733
162 0.000738
163 0.000743
164 0.000749
165 0.000749
166 0.000751
167 0.000754
168 0.000753
169 0.000751
170 0.000749
171 0.000744
172 0.000742
173 0.000737
174 0.000731
175 0.000726
176 0.000722
177 0.000714
178 0.000700
179 0.000689
180 0.000678
181 0.000670
182 0.000663
183 0.000658
184 0.000651
185 0.000646
186 0.000642
187 0.000639
188 0.000636
189 0.000634
190 0.000632
191 0.000633
192 0.000633
193 0.000633
194 0.000634
195 0.000636
196 0.000635
197 0.000634
198 0.000632
199 0.000635
200 0.000635
201 0.000635
202 0.000635
203 0.000639
204 0.000638
205 0.000639
206 0.000638
207 0.000633
208 0.000625
209 0.000616
210 0.000607
211 0.000600
212 0.000599
213 0.000597
214 0.000603
215 0.000607
216 0.000611
217 0.000613
218 0.000612
219 0.000613
220 0.000614
221 0.000617
222 0.000619
223 0.000625
224 0.000634
225 0.000639
226 0.000646
227 0.000649
228 0.000652
229 0.000652
230 0.000652
231 0.000650
232 0.000652
233 0.000656
234 0.000655
235 0.000654
236 0.000655
237 0.000651
238 0.000647
239 0.000640
240 0.000636
241 0.000633
242 0.000628
243 0.000626
244 0.000625
245 0.000619
246 0.000612
247 0.000604
248 0.000597
249 0.000591
250 0.000585
251 0.000577
252 0.000573
253 0.000568
254 0.000563
255 0.000558
256 0.000556
257 0.000556
258 0.000553
259 0.000554
260 0.000559
261 0.000562
262 0.000562
263 0.000562
264 0.000560
265 0.000559
266 0.000558
267 0.000550
268 0.000545
269 0.000541
270 0.000538
271 0.000537
272 0.000537
273 0.000533
274 0.000529
275 0.000524
276 0.000516
277 0.000507
278 0.000499
279 0.000494
280 0.000491
281 0.000490
282 0.000487
283 0.000482
284 0.000480
285 0.000474
286 0.000469
287 0.000462
288 0.000456
289 0.000457
290 0.000457
291 0.000456
292 0.000458
293 0.000460
294 0.000462
295 0.000466
296 0.000466
297 0.000468
298 0.000471
299 0.000475
300 0.000475
301 0.000478
302 0.000486
303 0.000492
304 0.000494
305 0.000492
306 0.000492
307 0.000489
308 0.000486
309 0.000480
310 0.000476
311 0.000473
312 0.000473
313 0.000473
314 0.000471
315 0.000472
316 0.000473
317 0.000475
318 0.000472
319 0.000464
320 0.000462
321 0.000458
322 0.000456
323 0.000460
324 0.000464
325 0.000469
326 0.000473
327 0.000471
328 0.000473
329 0.000475
330 0.000477
331 0.000480
332 0.000481
333 0.000483
334 0.000484
335 0.000483
336 0.000484
337 0.000485
338 0.000482
339 0.000483
340 0.000479
341 0.000476
342 0.000470
343 0.000466
344 0.000462
345 0.000456
346 0.000450
347 0.000446
348 0.000441
349 0.000438
350 0.000435
351 0.000433
352 0.000431
353 0.000430
354 0.000427
355 0.000428
356 0.000429
357 0.000431
358 0.000434
359 0.000433
360 0.000437
361 0.000442
362 0.000445
363 0.000447
364 0.000449
365 0.000446
366 0.000442
367 0.000445
368 0.000447
369 0.000451
370 0.000453
371 0.000451
372 0.000453
373 0.000448
374 0.000446
375 0.000448
376 0.000446
377 0.000444
378 0.000444
379 0.000441
380 0.000440
381 0.000438
382 0.000436
383 0.000436
384 0.000434
385 0.000434
386 0.000432
387 0.000432
388 0.000435
389 0.000440
390 0.000442
391 0.000450
392 0.000455
393 0.000460
394 0.000466
395 0.000470
396 0.000474
397 0.000477
398 0.000479
399 0.000483
400 0.000485
401 0.000485
402 0.000487
403 0.000487
404 0.000488
405 0.000489
406 0.000485
407 0.000484
408 0.000481
409 0.000480
410 0.000476
411 0.000475
412 0.000474
413 0.000472
414 0.000467
415 0.000457
416 0.000453
417 0.000450
418 0.000446
419 0.000443
420 0.000443
421 0.000443
422 0.000443
423 0.000442
424 0.000442
425 0.000437
426 0.000433
427 0.000431
428 0.000427
429 0.000429
430 0.000435
431 0.000438
432 0.000442
433 0.000445
434 0.000447
435 0.000449
436 0.000450
437 0.000449
438 0.000449
439 0.000446
440 0.000447
441 0.000449
442 0.000450
443 0.000453
444 0.000451
445 0.000447
446 0.000443
447 0.000436
448 0.000433
449 0.000430
450 0.000428
451 0.000430
452 0.000430
453 0.000433
454 0.000434
455 0.000436
456 0.000439
457 0.000440
458 0.000441
459 0.000441
460 0.000442
461 0.000444
462 0.000450
463 0.000453
464 0.000451
465 0.000455
466 0.000457
467 0.000457
468 0.000460
469 0.000463
470 0.000466
471 0.000470
472 0.000473
473 0.000474
474 0.000475
475 0.000478
476 0.000481
477 0.000477
478 0.000473
479 0.000471
480 0.000470
481 0.000466
482 0.000463
483 0.000460
484 0.000454
485 0.000450
486 0.000447
487 0.000445
488 0.000446
489 0.000449
490 0.000454
491 0.000453
492 0.000454
493 0.000456
494 0.000458
495 0.000459
496 0.000460
497 0.000459
498 0.000459
499 0.000460
500 0.000460
501 0.000462
502 0.000460
503 0.000460
504 0.000459
505 0.000454
506 0.000450
507 0.000448
508 0.000444
509 0.000439
510 0.000436
511 0.000431
512 0.000425
513 0.000417
514 0.000407
515 0.000399
516 0.000391
517 0.000387
518 0.000382
519 0.000378
520 0.000376
521 0.000376
522 0.000373
523 0.000369
524 0.000364
525 0.000361
526 0.000362
527 0.000366
528 0.000371
529 0.000377
530 0.000385
531 0.000394
532 0.000401
533 0.000403
534 0.000404
535 0.000401
536 0.000401
537 0.000401
538 0.000401
539 0.000400
540 0.000401
541 0.000402
542 0.000400
543 0.000397
544 0.000394
545 0.000389
546 0.000384
547 0.000377
548 0.000373
549 0.000369
550 0.000365
551 0.000361
552 0.000361
553 0.000359
554 0.000356
555 0.000355
556 0.000353
557 0.000349
558 0.000349
559 0.000349
560 0.000347
561 0.000345
562 0.000341
563 0.000340
564 0.000338
565 0.000340
566 0.000343
567 0.000348
568 0.000354
569 0.000358
570 0.000363
571 0.000362
572 0.000360
573 0.000358
574 0.000357
575 0.000356
576 0.000356
577 0.000358
578 0.000357
579 0.000355
580 0.000353
581 0.000349
582 0.000341
583 0.000333
584 0.000331
585 0.000331
586 0.000329
587 0.000330
588 0.000328
589 0.000325
590 0.000324
591 0.000320
592 0.000316
593 0.000311
594 0.000307
595 0.000303
596 0.000301
597 0.000301
598 0.000299
599 0.000298
600 0.000297
601 0.000297
602 0.000295
603 0.000292
604 0.000292
605 0.000289
606 0.000283
607 0.000278
608 0.000275
609 0.000267
610 0.000264
611 0.000259
612 0.000257
613 0.000253
614 0.000248
615 0.000246
616 0.000244
617 0.000242
618 0.000241
619 0.000238
620 0.000235
621 0.000231
622 0.000228
623 0.000225
624 0.000224
625 0.000219
626 0.000218
627 0.000218
628 0.000220
629 0.000223
630 0.000224
631 0.000223
632 0.000224
633 0.000226
634 0.000225
635 0.000227
636 0.000228
637 0.000233
638 0.000235
639 0.000236
640 0.000236
641 0.000237
642 0.000234
643 0.000229
644 0.000225
645 0.000219
646 0.000212
647 0.000204
648 0.000199
649 0.000195
650 0.000191
651 0.000187
652 0.000181
653 0.000175
654 0.000167
655 0.000161
656 0.000156
657 0.000154
658 0.000152
659 0.000151
660 0.000151
661 0.000153
662 0.000158
663 0.000161
664 0.000163
665 0.000166
666 0.000168
667 0.000171
668 0.000173
669 0.000174
670 0.000174
671 0.000174
672 0.000173
673 0.000172
674 0.000173
675 0.000173
676 0.000172
677 0.000174
678 0.000173
679 0.000171
680 0.000169
681 0.000166
682 0.000163
683 0.000159
684 0.000156
685 0.000155
686 0.000155
687 0.000154
688 0.000151
689 0.000149
690 0.000144
691 0.000139
692 0.000135
693 0.000137
694 0.000137
695 0.000140
696 0.000141
697 0.000142
698 0.000141
699 0.000140
700 0.000140
701 0.000140
702 0.000141
703 0.000141
704 0.000139
705 0.000137
706 0.000137
707 0.000136
708 0.000136
709 0.000132
710 0.000128
711 0.000123
712 0.000118
713 0.000113
714 0.000112
715 0.000110
716 0.000110
717 0.000106
718 0.000102
719 0.000100
720 0.000097
721 0.000093
722 0.000087
723 0.000079
724 0.000076
725 0.000072
726 0.000069
727 0.000065
728 0.000064
729 0.000060
730 0.000058
731 0.000056
732 0.000057
733 0.000057
734 0.000060
735 0.000064
736 0.000067
737 0.000070
738 0.000072
739 0.000070
740 0.000067
741 0.000066
742 0.000065
743 0.000062
744 0.000062
745 0.000062
746 0.000063
747 0.000067
748 0.000070
749 0.000070
750 0.000069
751 0.000069
752 0.000070
753 0.000070
754 0.000071
755 0.000074
756 0.000077
757 0.000079
758 0.000081
759 0.000083
760 0.000086
761 0.000092
762 0.000093
763 0.000094
764 0.000097
765 0.000096
766 0.000097
767 0.000097
768 0.000096
769 0.000095
770 0.000093
771 0.000092
772 0.000093
773 0.000093
774 0.000096
775 0.000096
776 0.000094
777 0.000091
778 0.000088
779 0.000086
780 0.000085
781 0.000084
782 0.000084
783 0.000080
784 0.000076
785 0.000074
786 0.000070
787 0.000070
788 0.000069
789 0.000068
790 0.000066
791 0.000066
792 0.000069
793 0.000075
794 0.000077
795 0.000077
796 0.000076
797 0.000072
798 0.000069
799 0.000068
800 0.000068
801 0.000071
802 0.000072
803 0.000074
804 0.000075
805 0.000078
806 0.000079
807 0.000077
808 0.000076
809 0.000072
