# i correlation
1 0.001827
2 0.001785
3 0.001748
4 0.001720
5 0.001696
6 0.001677
7 0.001663
8 0.001649
9 0.001636
10 0.001626
11 0.001616
12 0.001605
13 0.001596
14 0.001586
15 0.001574
16 0.001561
17 0.001552
18 0.001542
19 0.001532
20 0.001523
21 0.001511
22 0.001504
23 0.001500
24 0.001495
25 0.001488
26 0.001478
27 0.001467
28 0.001452
29 0.001437
30 0.001423
31 0.001410
32 0.001398
33 0.001392
34 0.001386
35 0.001380
36 0.001370
37 0.001365
38 0.001355
39 0.001346
40 0.001338
41 0.001329
42 0.001324
43 0.001316
44 0.001313
45 0.001319
46 0.001321
47 0.001320
48 0.001315
49 0.001309
50 0.001308
51 0.001306
52 0.001300
53 0.001291
54 0.001284
55 0.001280
56 0.001273
57 0.001269
58 0.001264
59 0.001260
60 0.001253
61 0.001250
62 0.001244
63 0.001240
64 0.001236
65 0.001232
66 0.001223
67 0.001214
68 0.001205
69 0.001195
70 0.001187
71 0.001179
72 0.001178
73 0.001172
74 0.001164
75 0.001155
76 0.001152
77 0.001151
78 0.001150
79 0.001147
80 0.001144
81 0.001139
82 0.001137
83 0.001136
84 0.001136
85 0.001137
86 0.001137
87 0.001138
88 0.001141
89 0.001141
90 0.001140
91 0.001134
92 0.001126
93 0.001117
94 0.001107
95 0.001098
96 0.001095
97 0.001094
98 0.001091
99 0.001090
100 0.001093
101 0.001096
102 0.001095
103 0.001093
104 0.001089
105 0.001083
106 0.001078
107 0.001077
108 0.001071
109 0.001066
110 0.001062
111 0.001058
112 0.001055
113 0.001053
114 0.001052
115 0.001052
116 0.001048
117 0.001044
118 0.001043
119 0.001042
120 0.001037
121 0.001030
122 0.001024
123 0.001021
124 0.001023
125 0.001022
126 0.001018
127 0.001018
128 0.001016
129 0.001014
130 0.001012
131 0.001010
132 0.001008
133 0.001007
134 0.001005
135 0.001003
136 0.000999
137 0.000995
138 0.000994
139 0.000990
140 0.000987
141 0.000987
142 0.000986
143 0.000984
144 0.000982
145 0.000980
146 0.000978
147 0.000974
148 0.000975
149 0.000972
150 0.000964
151 0.000958
152 0.000956
153 0.000953
154 0.000951
155 0.000948
156 0.000945
157 0.000945
158 0.000946
159 0.000944
160 0.000942
161 0.000941
162 0.000938
163 0.000933
164 0.000930
165 0.000927
166 0.000923
167 0.000918
168 0.000917
169 0.000915
170 0.000910
171 0.000904
172 0.000898
173 0.000890
174 0.000882
175 0.000876
176 0.000869
177 0.000863
178 0.000858
179 0.000857
180 0.000854
181 0.000851
182 0.000851
183 0.000853
184 0.000848
185 0.000845
186 0.000841
187 0.000837
188 0.000836
189 0.000832
190 0.000828
191 0.000824
192 0.000821
193 0.000820
194 0.000816
195 0.000815
196 0.000815
197 0.000816
198 0.000814
199 0.000814
200 0.000812
201 0.000808
202 0.000806
203 0.000807
204 0.000810
205 0.000813
206 0.000812
207 0.000811
208 0.000811
209 0.000810
210 0.000808
211 0.000805
212 0.000806
213 0.000809
214 0.000807
215 0.000808
216 0.000810
217 0.000809
218 0.000808
219 0.000804
220 0.000805
221 0.000802
222 0.000799
223 0.000797
224 0.000793
225 0.000790
226 0.000787
227 0.000784
228 0.000781
229 0.000779
230 0.000777
231 0.000773
232 0.000768
233 0.000762
234 0.000760
235 0.000759
236 0.000751
237 0.000745
238 0.000736
239 0.000725
240 0.000712
241 0.000700
242 0.000693
243 0.000687
244 0.000682
245 0.000680
246 0.000681
247 0.000683
248 0.000683
249 0.000685
250 0.000685
251 0.000682
252 0.000675
253 0.000666
254 0.000658
255 0.000650
256 0.000638
257 0.000628
258 0.000622
259 0.000616
260 0.000613
261 0.000607
262 0.000607
263 0.000606
264 0.000601
265 0.000595
266 0.000591
267 0.000588
268 0.000590
269 0.000590
270 0.000590
271 0.000594
272 0.000594
273 0.000594
274 0.000592
275 0.000592
276 0.000592
277 0.000588
278 0.000581
279 0.000573
280 0.000567
281 0.000562
282 0.000559
283 0.000556
284 0.000557
285 0.000558
286 0.000558
287 0.000557
288 0.000556
289 0.000557
290 0.000557
291 0.000554
292 0.000551
293 0.000552
294 0.000552
295 0.000553
296 0.000558
297 0.000561
298 0.000563
299 0.000565
300 0.000567
301 0.000568
302 0.000567
303 0.000564
304 0.000562
305 0.000557
306 0.000553
307 0.000553
308 0.000555
309 0.000552
310 0.000552
311 0.000548
312 0.000545
313 0.000545
314 0.000541
315 0.000540
316 0.000536
317 0.000533
318 0.000528
319 0.000526
320 0.000525
321 0.000525
322 0.000525
323 0.000527
324 0.000527
325 0.000523
326 0.000522
327 0.000522
328 0.000518
329 0.000513
330 0.000510
331 0.000507
332 0.000505
333 0.000503
334 0.000503
335 0.000504
336 0.000509
337 0.000511
338 0.000511
339 0.000511
340 0.000512
341 0.000515
342 0.000513
343 0.000510
344 0.000504
345 0.000500
346 0.000496
347 0.000493
348 0.000490
349 0.000489
350 0.000491
351 0.000492
352 0.000492
353 0.000494
354 0.000495
355 0.000491
356 0.000488
357 0.000491
358 0.000494
359 0.000499
360 0.000502
361 0.000507
362 0.000507
363 0.000509
364 0.000506
365 0.000504
366 0.000499
367 0.000495
368 0.000489
369 0.000486
370 0.000483
371 0.000479
372 0.000472
373 0.000468
374 0.000467
375 0.000466
376 0.000468
377 0.000470
378 0.000473
379 0.000473
380 0.000474
381 0.000474
382 0.000471
383 0.000470
384 0.000467
385 0.000464
386 0.000464
387 0.000469
388 0.000478
389 0.000483
390 0.000486
391 0.000489
392 0.000488
393 0.000483
394 0.000477
395 0.000475
396 0.000471
397 0.000466
398 0.000463
399 0.000463
400 0.000463
401 0.000461
402 0.000457
403 0.000455
404 0.000454
405 0.000451
406 0.000449
407 0.000446
408 0.000446
409 0.000445
410 0.000442
411 0.000439
412 0.000436
413 0.000435
414 0.000436
415 0.000436
416 0.000434
417 0.000433
418 0.000432
419 0.000423
420 0.000417
421 0.000407
422 0.000400
423 0.000394
424 0.000390
425 0.000387
426 0.000386
427 0.000383
428 0.000378
429 0.000370
430 0.000364
431 0.000362
432 0.000359
433 0.000361
434 0.000363
435 0.000364
436 0.000367
437 0.000371
438 0.000373
439 0.000372
440 0.000371
441 0.000372
442 0.000374
443 0.000375
444 0.000374
445 0.000372
446 0.000372
447 0.000371
448 0.000369
449 0.000365
450 0.000364
451 0.000365
452 0.000360
453 0.000357
454 0.000357
455 0.000357
456 0.000356
457 0.000353
458 0.000348
459 0.000346
460 0.000344
461 0.000342
462 0.000338
463 0.000337
464 0.000336
465 0.000331
466 0.000326
467 0.000323
468 0.000321
469 0.000317
470 0.000314
471 0.000312
472 0.000310
473 0.000310
474 0.000306
475 0.000302
476 0.000301
477 0.000300
478 0.000301
479 0.000302
480 0.000300
481 0.000300
482 0.000298
483 0.000296
484 0.000296
485 0.000292
486 0.000286
487 0.000280
488 0.000279
489 0.000277
490 0.000274
491 0.000271
492 0.000267
493 0.000262
494 0.000259
495 0.000260
496 0.000260
497 0.000261
498 0.000266
499 0.000270
500 0.000273
501 0.000275
502 0.000278
503 0.000282
504 0.000287
505 0.000294
506 0.000303
507 0.000307
508 0.000307
509 0.000307
510 0.000305
511 0.000301
512 0.000296
513 0.000294
514 0.000293
515 0.000291
516 0.000288
517 0.000285
518 0.000285
519 0.000286
520 0.000286
521 0.000285
522 0.000286
523 0.000287
524 0.000291
525 0.000294
526 0.000293
527 0.000291
528 0.000290
529 0.000287
530 0.000283
531 0.000280
532 0.000278
533 0.000277
534 0.000278
535 0.000277
536 0.000278
537 0.000278
538 0.000276
539 0.000275
540 0.000273
541 0.000268
542 0.000264
543 0.000258
544 0.000256
545 0.000254
546 0.000252
547 0.000249
548 0.000246
549 0.000245
550 0.000245
551 0.000245
552 0.000246
553 0.000244
554 0.000240
555 0.000238
556 0.000239
557 0.000241
558 0.000243
559 0.000245
560 0.000250
561 0.000254
562 0.000257
563 0.000260
564 0.000262
565 0.000263
566 0.000266
567 0.000269
568 0.000270
569 0.000266
570 0.000267
571 0.000269
572 0.000272
573 0.000274
574 0.000275
575 0.000275
576 0.000277
577 0.000278
578 0.000277
579 0.000277
580 0.000273
581 0.000269
582 0.000264
583 0.000261
584 0.000261
585 0.000263
586 0.000264
587 0.000265
588 0.000264
589 0.000264
590 0.000262
591 0.000263
592 0.000262
593 0.000261
594 0.000256
595 0.000256
596 0.000257
597 0.000258
598 0.000257
599 0.000254
600 0.000250
601 0.000246
602 0.000239
603 0.000235
604 0.000232
605 0.000231
606 0.000233
607 0.000236
608 0.000240
609 0.000246
610 0.000250
611 0.000251
612 0.000253
613 0.000253
614 0.000252
615 0.000250
616 0.000248
617 0.000245
618 0.000239
619 0.000236
620 0.000233
621 0.000230
622 0.000229
623 0.000227
624 0.000226
625 0.000227
626 0.000227
627 0.000226
628 0.000224
629 0.000221
630 0.000219
631 0.000214
632 0.000210
633 0.000210
634 0.000208
635 0.000206
636 0.000205
637 0.000201
638 0.000200
639 0.000197
640 0.000196
641 0.000193
642 0.000190
643 0.000190
644 0.000189
645 0.000184
646 0.000181
647 0.000176
648 0.000171
649 0.000167
650 0.000165
651 0.000163
652 0.000161
653 0.000158
654 0.000154
655 0.000151
656 0.000150
657 0.000152
658 0.000153
659 0.000152
660 0.000151
661 0.000151
662 0.000149
663 0.000150
664 0.000151
665 0.000150
666 0.000149
667 0.000150
668 0.000150
669 0.000148
670 0.000145
671 0.000144
672 0.000143
673 0.000143
674 0.000143
675 0.000142
676 0.000139
677 0.000137
678 0.000135
679 0.000134
680 0.000134
681 0.000134
682 0.000132
683 0.000129
684 0.000127
685 0.000127
686 0.000129
687 0.000129
688 0.000130
689 0.000130
690 0.000130
691 0.000132
692 0.000133
693 0.000134
694 0.000135
695 0.000132
696 0.000129
697 0.000127
698 0.000128
699 0.000127
700 0.000125
701 0.000125
702 0.000123
703 0.000122
704 0.000122
705 0.000123
706 0.000124
707 0.000125
708 0.000128
709 0.000128
710 0.000129
711 0.000130
712 0.000132
713 0.000135
714 0.000138
715 0.000140
716 0.000143
717 0.000143
718 0.000145
719 0.000148
720 0.000146
721 0.000146
722 0.000147
723 0.000145
724 0.000145
725 0.000146
726 0.000150
727 0.000152
728 0.000155
729 0.000155
730 0.000157
731 0.000160
732 0.000161
733 0.000164
734 0.000164
735 0.000166
736 0.000168
737 0.000169
738 0.000168
739 0.000168
740 0.000172
741 0.000176
742 0.000177
743 0.000177
744 0.000177
745 0.000178
746 0.000176
747 0.000172
748 0.000169
749 0.000169
750 0.000168
751 0.000169
752 0.000167
753 0.000170
754 0.000170
755 0.000170
756 0.000168
757 0.000167
758 0.000166
759 0.000166
760 0.000165
761 0.000162
762 0.000155
763 0.000149
764 0.000145
765 0.000144
766 0.000142
767 0.000142
768 0.000141
769 0.000139
770 0.000137
771 0.000134
772 0.000130
773 0.000127
774 0.000125
775 0.000124
776 0.000126
777 0.000130
778 0.000133
779 0.000135
780 0.000133
781 0.000132
782 0.000131
783 0.000130
784 0.000128
785 0.000125
786 0.000120
787 0.000115
788 0.000112
789 0.000108
790 0.000105
791 0.000106
792 0.000106
793 0.000103
794 0.000102
795 0.000103
796 0.000106
797 0.000104
798 0.000102
799 0.000100
800 0.000098
801 0.000097
802 0.000098
803 0.000097
804 0.000097
805 0.000099
806 0.000099
807 0.000097
808 0.000096
809 0.000093
