# i correlation
1 0.001464
2 0.001427
3 0.001394
4 0.001362
5 0.001335
6 0.001314
7 0.001298
8 0.001281
9 0.001269
10 0.001255
11 0.001247
12 0.001237
13 0.001226
14 0.001215
15 0.001200
16 0.001187
17 0.001176
18 0.001167
19 0.001160
20 0.001157
21 0.001156
22 0.001152
23 0.001150
24 0.001148
25 0.001144
26 0.001136
27 0.001127
28 0.001118
29 0.001113
30 0.001110
31 0.001105
32 0.001101
33 0.001095
34 0.001089
35 0.001082
36 0.001074
37 0.001068
38 0.001061
39 0.001059
40 0.001057
41 0.001054
42 0.001049
43 0.001045
44 0.001036
45 0.001024
46 0.001016
47 0.001010
48 0.001005
49 0.001000
50 0.000995
51 0.000992
52 0.000991
53 0.000986
54 0.000980
55 0.000972
56 0.000962
57 0.000950
58 0.000937
59 0.000927
60 0.000918
61 0.000912
62 0.000910
63 0.000911
64 0.000914
65 0.000915
66 0.000914
67 0.000910
68 0.000906
69 0.000900
70 0.000896
71 0.000890
72 0.000886
73 0.000887
74 0.000886
75 0.000886
76 0.000885
77 0.000886
78 0.000884
79 0.000882
80 0.000877
81 0.000876
82 0.000875
83 0.000874
84 0.000873
85 0.000868
86 0.000864
87 0.000855
88 0.000849
89 0.000846
90 0.000846
91 0.000847
92 0.000842
93 0.000836
94 0.000831
95 0.000827
96 0.000823
97 0.000819
98 0.000814
99 0.000807
100 0.000797
101 0.000789
102 0.000779
103 0.000777
104 0.000774
105 0.000770
106 0.000766
107 0.000760
108 0.000754
109 0.000747
110 0.000741
111 0.000733
112 0.000730
113 0.000730
114 0.000728
115 0.000732
116 0.000734
117 0.000732
118 0.000732
119 0.000732
120 0.000731
121 0.000728
122 0.000723
123 0.000718
124 0.000719
125 0.000717
126 0.000711
127 0.000711
128 0.000710
129 0.000706
130 0.000704
131 0.000698
132 0.000693
133 0.000692
134 0.000692
135 0.000687
136 0.000684
137 0.000681
138 0.000675
139 0.000670
140 0.000662
141 0.000653
142 0.000645
143 0.000638
144 0.000631
145 0.000627
146 0.000625
147 0.000627
148 0.000624
149 0.000622
150 0.000616
151 0.000607
152 0.000600
153 0.000591
154 0.000586
155 0.000583
156 0.000583
157 0.000582
158 0.000585
159 0.000588
160 0.000591
161 0.000593
162 0.000590
163 0.000587
164 0.000585
165 0.000580
166 0.000574
167 0.000573
168 0.000575
169 0.000574
170 0.000571
171 0.000569
172 0.000567
173 0.000564
174 0.000559
175 0.000549
176 0.000541
177 0.000533
178 0.000527
179 0.000520
180 0.000516
181 0.000514
182 0.000513
183 0.000513
184 0.000513
185 0.000515
186 0.000514
187 0.000512
188 0.000513
189 0.000514
190 0.000512
191 0.000510
192 0.000509
193 0.000506
194 0.000501
195 0.000502
196 0.000500
197 0.000502
198 0.000507
199 0.000511
200 0.000519
201 0.000526
202 0.000530
203 0.000531
204 0.000533
205 0.000532
206 0.000533
207 0.000533
208 0.000533
209 0.000536
210 0.000538
211 0.000541
212 0.000543
213 0.000544
214 0.000543
215 0.000542
216 0.000539
217 0.000532
218 0.000525
219 0.000519
220 0.000516
221 0.000512
222 0.000514
223 0.000515
224 0.000518
225 0.000519
226 0.000519
227 0.000518
228 0.000517
229 0.000515
230 0.000512
231 0.000510
232 0.000508
233 0.000507
234 0.000505
235 0.000500
236 0.000497
237 0.000496
238 0.000498
239 0.000499
240 0.000500
241 0.000497
242 0.000494
243 0.000493
244 0.000491
245 0.000491
246 0.000490
247 0.000492
248 0.000492
249 0.000491
250 0.000487
251 0.000487
252 0.000489
253 0.000491
254 0.000496
255 0.000500
256 0.000500
257 0.000499
258 0.000497
259 0.000493
260 0.000485
261 0.000479
262 0.000477
263 0.000475
264 0.000475
265 0.000470
266 0.000463
267 0.000456
268 0.000452
269 0.000448
270 0.000443
271 0.000440
272 0.000436
273 0.000434
274 0.000431
275 0.000432
276 0.000433
277 0.000433
278 0.000432
279 0.000432
280 0.000432
281 0.000429
282 0.000428
283 0.000429
284 0.000430
285 0.000432
286 0.000435
287 0.000435
288 0.000440
289 0.000442
290 0.000442
291 0.000442
292 0.000440
293 0.000439
294 0.000437
295 0.000436
296 0.000434
297 0.000433
298 0.000434
299 0.000434
300 0.000430
301 0.000432
302 0.000431
303 0.000429
304 0.000422
305 0.000419
306 0.000417
307 0.000415
308 0.000412
309 0.000407
310 0.000405
311 0.000398
312 0.000395
313 0.000394
314 0.000393
315 0.000390
316 0.000387
317 0.000383
318 0.000379
319 0.000378
320 0.000379
321 0.000384
322 0.000387
323 0.000390
324 0.000391
325 0.000393
326 0.000394
327 0.000394
328 0.000395
329 0.000395
330 0.000396
331 0.000395
332 0.000396
333 0.000395
334 0.000391
335 0.000386
336 0.000382
337 0.000381
338 0.000380
339 0.000380
340 0.000381
341 0.000378
342 0.000376
343 0.000375
344 0.000375
345 0.000377
346 0.000383
347 0.000387
348 0.000387
349 0.000387
350 0.000387
351 0.000386
352 0.000386
353 0.000390
354 0.000390
355 0.000390
356 0.000392
357 0.000393
358 0.000393
359 0.000394
360 0.000394
361 0.000396
362 0.000395
363 0.000393
364 0.000388
365 0.000381
366 0.000377
367 0.000373
368 0.000369
369 0.000367
370 0.000365
371 0.000363
372 0.000362
373 0.000360
374 0.000358
375 0.000355
376 0.000354
377 0.000352
378 0.000350
379 0.000348
380 0.000346
381 0.000345
382 0.000343
383 0.000339
384 0.000334
385 0.000328
386 0.000324
387 0.000324
388 0.000322
389 0.000322
390 0.000318
391 0.000312
392 0.000310
393 0.000308
394 0.000304
395 0.000299
396 0.000295
397 0.000289
398 0.000286
399 0.000279
400 0.000274
401 0.000270
402 0.000266
403 0.000262
404 0.000262
405 0.000261
406 0.000261
407 0.000261
408 0.000262
409 0.000261
410 0.000259
411 0.000260
412 0.000263
413 0.000264
414 0.000261
415 0.000259
416 0.000257
417 0.000254
418 0.000250
419 0.000247
420 0.000246
421 0.000245
422 0.000248
423 0.000252
424 0.000253
425 0.000256
426 0.000256
427 0.000256
428 0.000256
429 0.000259
430 0.000262
431 0.000266
432 0.000270
433 0.000270
434 0.000272
435 0.000274
436 0.000273
437 0.000274
438 0.000276
439 0.000277
440 0.000278
441 0.000278
442 0.000277
443 0.000275
444 0.000277
445 0.000279
446 0.000283
447 0.000287
448 0.000291
449 0.000293
450 0.000293
451 0.000293
452 0.000294
453 0.000296
454 0.000296
455 0.000297
456 0.000299
457 0.000304
458 0.000305
459 0.000308
460 0.000310
461 0.000310
462 0.000312
463 0.000315
464 0.000318
465 0.000319
466 0.000321
467 0.000321
468 0.000319
469 0.000314
470 0.000313
471 0.000316
472 0.000317
473 0.000321
474 0.000324
475 0.000328
476 0.000330
477 0.000336
478 0.000338
479 0.000339
480 0.000338
481 0.000336
482 0.000332
483 0.000330
484 0.000329
485 0.000329
486 0.000331
487 0.000338
488 0.000343
489 0.000344
490 0.000344
491 0.000344
492 0.000346
493 0.000344
494 0.000343
495 0.000340
496 0.000340
497 0.000338
498 0.000336
499 0.000335
500 0.000333
501 0.000330
502 0.000326
503 0.000322
504 0.000318
505 0.000311
506 0.000304
507 0.000300
508 0.000298
509 0.000295
510 0.000294
511 0.000295
512 0.000297
513 0.000300
514 0.000305
515 0.000307
516 0.000308
517 0.000309
518 0.000310
519 0.000310
520 0.000309
521 0.000310
522 0.000311
523 0.000312
524 0.000315
525 0.000316
526 0.000316
527 0.000317
528 0.000318
529 0.000317
530 0.000318
531 0.000319
532 0.000318
533 0.000316
534 0.000313
535 0.000312
536 0.000308
537 0.000305
538 0.000301
539 0.000299
540 0.000299
541 0.000301
542 0.000301
543 0.000302
544 0.000303
545 0.000304
546 0.000302
547 0.000302
548 0.000303
549 0.000301
550 0.000301
551 0.000299
552 0.000297
553 0.000295
554 0.000297
555 0.000298
556 0.000301
557 0.000303
558 0.000306
559 0.000309
560 0.000310
561 0.000315
562 0.000319
563 0.000321
564 0.000321
565 0.000325
566 0.000329
567 0.000331
568 0.000333
569 0.000337
570 0.000340
571 0.000342
572 0.000346
573 0.000347
574 0.000349
575 0.000347
576 0.000345
577 0.000344
578 0.000344
579 0.000343
580 0.000339
581 0.000335
582 0.000331
583 0.000326
584 0.000324
585 0.000321
586 0.000321
587 0.000322
588 0.000319
589 0.000315
590 0.000314
591 0.000314
592 0.000311
593 0.000309
594 0.000304
595 0.000300
596 0.000297
597 0.000294
598 0.000291
599 0.000289
600 0.000285
601 0.000283
602 0.000281
603 0.000276
604 0.000275
605 0.000272
606 0.000269
607 0.000268
608 0.000269
609 0.000268
610 0.000265
611 0.000264
612 0.000263
613 0.000264
614 0.000263
615 0.000264
616 0.000265
617 0.000266
618 0.000267
619 0.000266
620 0.000267
621 0.000268
622 0.000271
623 0.000269
624 0.000268
625 0.000266
626 0.000263
627 0.000260
628 0.000254
629 0.000247
630 0.000240
631 0.000236
632 0.000228
633 0.000222
634 0.000219
635 0.000213
636 0.000211
637 0.000206
638 0.000203
639 0.000201
640 0.000199
641 0.000196
642 0.000194
643 0.000192
644 0.000190
645 0.000191
646 0.000190
647 0.000191
648 0.000193
649 0.000192
650 0.000190
651 0.000190
652 0.000189
653 0.000186
654 0.000185
655 0.000182
656 0.000179
657 0.000175
658 0.000168
659 0.000164
660 0.000165
661 0.000165
662 0.000166
663 0.000167
664 0.000169
665 0.000168
666 0.000166
667 0.000163
668 0.000160
669 0.000158
670 0.000156
671 0.000154
672 0.000153
673 0.000153
674 0.000153
675 0.000152
676 0.000150
677 0.000152
678 0.000151
679 0.000147
680 0.000144
681 0.000141
682 0.000138
683 0.000136
684 0.000134
685 0.000131
686 0.000131
687 0.000131
688 0.000133
689 0.000132
690 0.000130
691 0.000128
692 0.000123
693 0.000120
694 0.000117
695 0.000116
696 0.000115
697 0.000113
698 0.000110
699 0.000109
700 0.000108
701 0.000106
702 0.000107
703 0.000107
704 0.000109
705 0.000107
706 0.000106
707 0.000105
708 0.000102
709 0.000100
710 0.000096
711 0.000095
712 0.000093
713 0.000089
714 0.000088
715 0.000086
716 0.000083
717 0.000080
718 0.000078
719 0.000076
720 0.000076
721 0.000077
722 0.000077
723 0.000077
724 0.000074
725 0.000073
726 0.000074
727 0.000074
728 0.000074
729 0.000076
730 0.000078
731 0.000078
732 0.000080
733 0.000081
734 0.000083
735 0.000085
736 0.000086
737 0.000088
738 0.000087
739 0.000086
740 0.000085
741 0.000086
742 0.000086
743 0.000088
744 0.000086
745 0.000084
746 0.000084
747 0.000082
748 0.000080
749 0.000076
750 0.000074
751 0.000073
752 0.000072
753 0.000071
754 0.000072
755 0.000075
756 0.000076
757 0.000074
758 0.000074
759 0.000074
760 0.000073
761 0.000072
762 0.000073
763 0.000074
764 0.000074
765 0.000075
766 0.000074
767 0.000076
768 0.000076
769 0.000076
770 0.000078
771 0.000077
772 0.000078
773 0.000078
774 0.000077
775 0.000077
776 0.000078
777 0.000077
778 0.000076
779 0.000076
780 0.000076
781 0.000076
782 0.000076
783 0.000074
784 0.000071
785 0.000071
786 0.000071
787 0.000073
788 0.000077
789 0.000080
790 0.000083
791 0.000084
792 0.000085
793 0.000088
794 0.000090
795 0.000089
796 0.000087
797 0.000086
798 0.000085
799 0.000086
800 0.000088
801 0.000090
802 0.000091
803 0.000091
804 0.000091
805 0.000089
806 0.000087
807 0.000084
808 0.000082
809 0.000078
