# i correlation
1 0.001567
2 0.001523
3 0.001487
4 0.001453
5 0.001426
6 0.001397
7 0.001369
8 0.001345
9 0.001321
10 0.001300
11 0.001286
12 0.001268
13 0.001253
14 0.001242
15 0.001231
16 0.001219
17 0.001208
18 0.001201
19 0.001194
20 0.001188
21 0.001184
22 0.001181
23 0.001181
24 0.001182
25 0.001181
26 0.001176
27 0.001174
28 0.001173
29 0.001168
30 0.001160
31 0.001151
32 0.001140
33 0.001130
34 0.001124
35 0.001116
36 0.001108
37 0.001098
38 0.001090
39 0.001083
40 0.001075
41 0.001068
42 0.001063
43 0.001055
44 0.001045
45 0.001036
46 0.001023
47 0.001014
48 0.001009
49 0.001004
50 0.001000
51 0.000993
52 0.000986
53 0.000983
54 0.000976
55 0.000970
56 0.000966
57 0.000962
58 0.000957
59 0.000951
60 0.000944
61 0.000937
62 0.000929
63 0.000926
64 0.000922
65 0.000921
66 0.000915
67 0.000907
68 0.000903
69 0.000898
70 0.000893
71 0.000889
72 0.000889
73 0.000890
74 0.000891
75 0.000890
76 0.000891
77 0.000894
78 0.000897
79 0.000902
80 0.000906
81 0.000905
82 0.000904
83 0.000900
84 0.000893
85 0.000885
86 0.000879
87 0.000875
88 0.000868
89 0.000859
90 0.000851
91 0.000840
92 0.000831
93 0.000825
94 0.000818
95 0.000813
96 0.000804
97 0.000793
98 0.000785
99 0.000774
100 0.000763
101 0.000754
102 0.000747
103 0.000746
104 0.000743
105 0.000738
106 0.000737
107 0.000734
108 0.000736
109 0.000741
110 0.000742
111 0.000741
112 0.000744
113 0.000743
114 0.000740
115 0.000741
116 0.000745
117 0.000752
118 0.000759
119 0.000763
120 0.000766
121 0.000770
122 0.000775
123 0.000775
124 0.000775
125 0.000773
126 0.000767
127 0.000761
128 0.000756
129 0.000752
130 0.000745
131 0.000737
132 0.000735
133 0.000731
134 0.000727
135 0.000723
136 0.000715
137 0.000714
138 0.000712
139 0.000710
140 0.000712
141 0.000711
142 0.000709
143 0.000709
144 0.000707
145 0.000710
146 0.000713
147 0.000714
148 0.000711
149 0.000704
150 0.000696
151 0.000692
152 0.000689
153 0.000691
154 0.000689
155 0.000687
156 0.000685
157 0.000684
158 0.000683
159 0.000681
160 0.000681
161 0.000683
162 0.000688
163 0.000689
164 0.000686
165 0.000688
166 0.000684
167 0.000683
168 0.000686
169 0.000687
170 0.000690
171 0.000692
172 0.000690
173 0.000687
174 0.000685
175 0.000680
176 0.000677
177 0.000673
178 0.000671
179 0.000668
180 0.000663
181 0.000659
182 0.000661
183 0.000665
184 0.000667
185 0.000670
186 0.000673
187 0.000672
188 0.000672
189 0.000672
190 0.000673
191 0.000671
192 0.000671
193 0.000673
194 0.000674
195 0.000671
196 0.000671
197 0.000669
198 0.000665
199 0.000660
200 0.000651
201 0.000644
202 0.000640
203 0.000639
204 0.000637
205 0.000630
206 0.000624
207 0.000620
208 0.000618
209 0.000613
210 0.000609
211 0.000606
212 0.000610
213 0.000612
214 0.000612
215 0.000614
216 0.000610
217 0.000605
218 0.000600
219 0.000597
220 0.000596
221 0.000591
222 0.000586
223 0.000580
224 0.000569
225 0.000561
226 0.000555
227 0.000555
228 0.000552
229 0.000545
230 0.000539
231 0.000536
232 0.000527
233 0.000521
234 0.000515
235 0.000508
236 0.000505
237 0.000499
238 0.000495
239 0.000494
240 0.000494
241 0.000497
242 0.000504
243 0.000512
244 0.000522
245 0.000528
246 0.000533
247 0.000537
248 0.000538
249 0.000537
250 0.000541
251 0.000546
252 0.000546
253 0.000546
254 0.000544
255 0.000538
256 0.000531
257 0.000526
258 0.000521
259 0.000512
260 0.000503
261 0.000493
262 0.000485
263 0.000475
264 0.000468
265 0.000465
266 0.000461
267 0.000459
268 0.000457
269 0.000459
270 0.000459
271 0.000458
272 0.000460
273 0.000460
274 0.000459
275 0.000461
276 0.000459
277 0.000456
278 0.000453
279 0.000451
280 0.000451
281 0.000452
282 0.000446
283 0.000444
284 0.000438
285 0.000433
286 0.000427
287 0.000426
288 0.000423
289 0.000417
290 0.000409
291 0.000399
292 0.000391
293 0.000387
294 0.000386
295 0.000384
296 0.000383
297 0.000381
298 0.000374
299 0.000368
300 0.000364
301 0.000362
302 0.000360
303 0.000359
304 0.000356
305 0.000356
306 0.000358
307 0.000364
308 0.000371
309 0.000374
310 0.000377
311 0.000379
312 0.000381
313 0.000384
314 0.000382
315 0.000382
316 0.000381
317 0.000378
318 0.000376
319 0.000372
320 0.000364
321 0.000359
322 0.000355
323 0.000355
324 0.000355
325 0.000359
326 0.000367
327 0.000369
328 0.000371
329 0.000374
330 0.000381
331 0.000390
332 0.000400
333 0.000408
334 0.000411
335 0.000411
336 0.000413
337 0.000418
338 0.000417
339 0.000417
340 0.000420
341 0.000420
342 0.000415
343 0.000408
344 0.000404
345 0.000397
346 0.000391
347 0.000387
348 0.000380
349 0.000376
350 0.000371
351 0.000368
352 0.000369
353 0.000367
354 0.000365
355 0.000365
356 0.000362
357 0.000360
358 0.000358
359 0.000354
360 0.000353
361 0.000356
362 0.000355
363 0.000353
364 0.000354
365 0.000354
366 0.000356
367 0.000359
368 0.000367
369 0.000368
370 0.000367
371 0.000366
372 0.000366
373 0.000370
374 0.000371
375 0.000376
376 0.000380
377 0.000381
378 0.000384
379 0.000387
380 0.000386
381 0.000387
382 0.000386
383 0.000384
384 0.000381
385 0.000377
386 0.000374
387 0.000366
388 0.000357
389 0.000350
390 0.000347
391 0.000348
392 0.000348
393 0.000349
394 0.000348
395 0.000347
396 0.000347
397 0.000350
398 0.000351
399 0.000351
400 0.000355
401 0.000354
402 0.000356
403 0.000356
404 0.000358
405 0.000360
406 0.000362
407 0.000365
408 0.000364
409 0.000365
410 0.000367
411 0.000367
412 0.000368
413 0.000372
414 0.000371
415 0.000370
416 0.000367
417 0.000363
418 0.000362
419 0.000360
420 0.000354
421 0.000349
422 0.000347
423 0.000348
424 0.000349
425 0.000349
426 0.000348
427 0.000346
428 0.000339
429 0.000332
430 0.000327
431 0.000325
432 0.000319
433 0.000314
434 0.000312
435 0.000311
436 0.000313
437 0.000314
438 0.000315
439 0.000316
440 0.000317
441 0.000317
442 0.000318
443 0.000319
444 0.000316
445 0.000311
446 0.000308
447 0.000303
448 0.000301
449 0.000301
450 0.000304
451 0.000307
452 0.000307
453 0.000305
454 0.000306
455 0.000308
456 0.000308
457 0.000308
458 0.000311
459 0.000316
460 0.000318
461 0.000323
462 0.000326
463 0.000327
464 0.000329
465 0.000330
466 0.000332
467 0.000332
468 0.000326
469 0.000320
470 0.000314
471 0.000308
472 0.000301
473 0.000298
474 0.000294
475 0.000287
476 0.000280
477 0.000276
478 0.000272
479 0.000269
480 0.000263
481 0.000260
482 0.000256
483 0.000249
484 0.000249
485 0.000247
486 0.000246
487 0.000250
488 0.000255
489 0.000258
490 0.000261
491 0.000262
492 0.000264
493 0.000267
494 0.000270
495 0.000275
496 0.000280
497 0.000283
498 0.000283
499 0.000283
500 0.000286
501 0.000292
502 0.000298
503 0.000307
504 0.000313
505 0.000318
506 0.000321
507 0.000321
508 0.000318
509 0.000316
510 0.000312
511 0.000309
512 0.000308
513 0.000306
514 0.000306
515 0.000309
516 0.000314
517 0.000318
518 0.000319
519 0.000320
520 0.000326
521 0.000329
522 0.000334
523 0.000338
524 0.000342
525 0.000346
526 0.000350
527 0.000353
528 0.000352
529 0.000354
530 0.000355
531 0.000356
532 0.000354
533 0.000350
534 0.000346
535 0.000342
536 0.000338
537 0.000336
538 0.000337
539 0.000337
540 0.000337
541 0.000338
542 0.000335
543 0.000332
544 0.000331
545 0.000331
546 0.000327
547 0.000327
548 0.000326
549 0.000324
550 0.000322
551 0.000319
552 0.000314
553 0.000311
554 0.000308
555 0.000307
556 0.000303
557 0.000299
558 0.000298
559 0.000296
560 0.000295
561 0.000295
562 0.000296
563 0.000291
564 0.000288
565 0.000288
566 0.000288
567 0.000287
568 0.000288
569 0.000285
570 0.000283
571 0.000283
572 0.000279
573 0.000272
574 0.000264
575 0.000258
576 0.000256
577 0.000257
578 0.000257
579 0.000257
580 0.000259
581 0.000260
582 0.000264
583 0.000271
584 0.000278
585 0.000279
586 0.000280
587 0.000281
588 0.000283
589 0.000284
590 0.000282
591 0.000280
592 0.000275
593 0.000269
594 0.000266
595 0.000262
596 0.000262
597 0.000263
598 0.000263
599 0.000261
600 0.000260
601 0.000255
602 0.000251
603 0.000246
604 0.000240
605 0.000235
606 0.000231
607 0.000228
608 0.000229
609 0.000231
610 0.000232
611 0.000235
612 0.000241
613 0.000246
614 0.000251
615 0.000252
616 0.000252
617 0.000250
618 0.000244
619 0.000244
620 0.000246
621 0.000245
622 0.000246
623 0.000242
624 0.000241
625 0.000242
626 0.000242
627 0.000243
628 0.000241
629 0.000237
630 0.000232
631 0.000229
632 0.000224
633 0.000220
634 0.000218
635 0.000216
636 0.000215
637 0.000214
638 0.000215
639 0.000216
640 0.000216
641 0.000215
642 0.000215
643 0.000212
644 0.000211
645 0.000213
646 0.000214
647 0.000212
648 0.000210
649 0.000211
650 0.000214
651 0.000216
652 0.000217
653 0.000220
654 0.000223
655 0.000225
656 0.000229
657 0.000231
658 0.000234
659 0.000236
660 0.000237
661 0.000239
662 0.000241
663 0.000244
664 0.000244
665 0.000243
666 0.000241
667 0.000240
668 0.000235
669 0.000231
670 0.000230
671 0.000227
672 0.000222
673 0.000217
674 0.000212
675 0.000208
676 0.000203
677 0.000198
678 0.000193
679 0.000188
680 0.000184
681 0.000182
682 0.000181
683 0.000178
684 0.000178
685 0.000180
686 0.000180
687 0.000181
688 0.000183
689 0.000185
690 0.000188
691 0.000191
692 0.000197
693 0.000201
694 0.000205
695 0.000204
696 0.000200
697 0.000195
698 0.000191
699 0.000186
700 0.000184
701 0.000181
702 0.000177
703 0.000173
704 0.000169
705 0.000167
706 0.000167
707 0.000169
708 0.000174
709 0.000181
710 0.000186
711 0.000188
712 0.000193
713 0.000196
714 0.000197
715 0.000200
716 0.000203
717 0.000205
718 0.000208
719 0.000212
720 0.000216
721 0.000217
722 0.000216
723 0.000217
724 0.000216
725 0.000215
726 0.000213
727 0.000205
728 0.000203
729 0.000200
730 0.000197
731 0.000194
732 0.000192
733 0.000192
734 0.000195
735 0.000197
736 0.000198
737 0.000201
738 0.000201
739 0.000204
740 0.000208
741 0.000211
742 0.000212
743 0.000214
744 0.000216
745 0.000218
746 0.000218
747 0.000219
748 0.000219
749 0.000222
750 0.000225
751 0.000230
752 0.000230
753 0.000227
754 0.000227
755 0.000223
756 0.000219
757 0.000217
758 0.000217
759 0.000216
760 0.000214
761 0.000212
762 0.000211
763 0.000209
764 0.000206
765 0.000205
766 0.000201
767 0.000200
768 0.000199
769 0.000197
770 0.000195
771 0.000195
772 0.000195
773 0.000195
774 0.000199
775 0.000201
776 0.000203
777 0.000205
778 0.000206
779 0.000210
780 0.000214
781 0.000214
782 0.000216
783 0.000217
784 0.000219
785 0.000223
786 0.000225
787 0.000226
788 0.000227
789 0.000225
790 0.000223
791 0.000223
792 0.000225
793 0.000226
794 0.000225
795 0.000224
796 0.000223
797 0.000221
798 0.000221
799 0.000222
800 0.000221
801 0.000220
802 0.000220
803 0.000220
804 0.000221
805 0.000220
806 0.000216
807 0.000212
808 0.000209
809 0.000205
