# i correlation
1 0.001787
2 0.001743
3 0.001706
4 0.001675
5 0.001645
6 0.001619
7 0.001597
8 0.001578
9 0.001559
10 0.001537
11 0.001520
12 0.001505
13 0.001493
14 0.001482
15 0.001472
16 0.001461
17 0.001448
18 0.001436
19 0.001427
20 0.001417
21 0.001411
22 0.001406
23 0.001397
24 0.001388
25 0.001382
26 0.001379
27 0.001377
28 0.001377
29 0.001373
30 0.001370
31 0.001365
32 0.001359
33 0.001351
34 0.001345
35 0.001342
36 0.001339
37 0.001339
38 0.001335
39 0.001334
40 0.001333
41 0.001327
42 0.001321
43 0.001310
44 0.001302
45 0.001296
46 0.001290
47 0.001280
48 0.001270
49 0.001260
50 0.001250
51 0.001241
52 0.001231
53 0.001222
54 0.001215
55 0.001214
56 0.001213
57 0.001214
58 0.001218
59 0.001220
60 0.001220
61 0.001219
62 0.001216
63 0.001211
64 0.001208
65 0.001207
66 0.001209
67 0.001203
68 0.001196
69 0.001193
70 0.001187
71 0.001177
72 0.001172
73 0.001168
74 0.001166
75 0.001166
76 0.001166
77 0.001164
78 0.001158
79 0.001157
80 0.001155
81 0.001150
82 0.001144
83 0.001133
84 0.001120
85 0.001110
86 0.001099
87 0.001089
88 0.001080
89 0.001072
90 0.001062
91 0.001056
92 0.001048
93 0.001044
94 0.001040
95 0.001039
96 0.001038
97 0.001036
98 0.001030
99 0.001019
100 0.001011
101 0.001008
102 0.001004
103 0.000999
104 0.000998
105 0.000997
106 0.000996
107 0.000996
108 0.000994
109 0.000989
110 0.000989
111 0.000988
112 0.000989
113 0.000988
114 0.000988
115 0.000992
116 0.000991
117 0.000986
118 0.000977
119 0.000974
120 0.000970
121 0.000967
122 0.000962
123 0.000962
124 0.000963
125 0.000965
126 0.000965
127 0.000962
128 0.000960
129 0.000955
130 0.000949
131 0.000942
132 0.000933
133 0.000924
134 0.000915
135 0.000911
136 0.000913
137 0.000917
138 0.000921
139 0.000920
140 0.000915
141 0.000909
142 0.000910
143 0.000907
144 0.000905
145 0.000904
146 0.000905
147 0.000905
148 0.000909
149 0.000915
150 0.000920
151 0.000921
152 0.000925
153 0.000932
154 0.000940
155 0.000947
156 0.000957
157 0.000963
158 0.000963
159 0.000964
160 0.000962
161 0.000958
162 0.000954
163 0.000948
164 0.000946
165 0.000943
166 0.000939
167 0.000933
168 0.000928
169 0.000920
170 0.000912
171 0.000901
172 0.000893
173 0.000886
174 0.000884
175 0.000876
176 0.000874
177 0.000868
178 0.000862
179 0.000856
180 0.000851
181 0.000846
182 0.000844
183 0.000845
184 0.000842
185 0.000839
186 0.000838
187 0.000835
188 0.000832
189 0.000830
190 0.000833
191 0.000833
192 0.000832
193 0.000824
194 0.000816
195 0.000812
196 0.000808
197 0.000801
198 0.000798
199 0.000795
200 0.000788
201 0.000784
202 0.000781
203 0.000777
204 0.000773
205 0.000772
206 0.000771
207 0.000773
208 0.000775
209 0.000775
210 0.000768
211 0.000764
212 0.000763
213 0.000761
214 0.000759
215 0.000757
216 0.000756
217 0.000753
218 0.000755
219 0.000758
220 0.000760
221 0.000762
222 0.000764
223 0.000767
224 0.000767
225 0.000768
226 0.000766
227 0.000766
228 0.000764
229 0.000766
230 0.000771
231 0.000774
232 0.000777
233 0.000777
234 0.000774
235 0.000775
236 0.000775
237 0.000777
238 0.000780
239 0.000783
240 0.000784
241 0.000785
242 0.000786
243 0.000780
244 0.000774
245 0.000769
246 0.000768
247 0.000762
248 0.000758
249 0.000755
250 0.000758
251 0.000760
252 0.000760
253 0.000756
254 0.000752
255 0.000745
256 0.000738
257 0.000731
258 0.000726
259 0.000723
260 0.000718
261 0.000712
262 0.000708
263 0.000707
264 0.000707
265 0.000708
266 0.000703
267 0.000701
268 0.000697
269 0.000690
270 0.000684
271 0.000679
272 0.000675
273 0.000669
274 0.000667
275 0.000665
276 0.000659
277 0.000656
278 0.000656
279 0.000659
280 0.000663
281 0.000668
282 0.000668
283 0.000666
284 0.000666
285 0.000661
286 0.000659
287 0.000661
288 0.000663
289 0.000661
290 0.000658
291 0.000657
292 0.000654
293 0.000649
294 0.000646
295 0.000641
296 0.000639
297 0.000636
298 0.000633
299 0.000630
300 0.000627
301 0.000622
302 0.000621
303 0.000621
304 0.000621
305 0.000622
306 0.000624
307 0.000625
308 0.000624
309 0.000622
310 0.000620
311 0.000624
312 0.000624
313 0.000622
314 0.000622
315 0.000622
316 0.000622
317 0.000621
318 0.000623
319 0.000623
320 0.000622
321 0.000622
322 0.000619
323 0.000616
324 0.000611
325 0.000607
326 0.000607
327 0.000606
328 0.000606
329 0.000604
330 0.000602
331 0.000600
332 0.000595
333 0.000594
334 0.000594
335 0.000593
336 0.000592
337 0.000594
338 0.000595
339 0.000598
340 0.000603
341 0.000604
342 0.000607
343 0.000605
344 0.000604
345 0.000605
346 0.000609
347 0.000612
348 0.000614
349 0.000613
350 0.000606
351 0.000600
352 0.000591
353 0.000581
354 0.000574
355 0.000571
356 0.000573
357 0.000574
358 0.000578
359 0.000577
360 0.000577
361 0.000577
362 0.000578
363 0.000578
364 0.000577
365 0.000575
366 0.000575
367 0.000573
368 0.000573
369 0.000574
370 0.000574
371 0.000573
372 0.000569
373 0.000569
374 0.000568
375 0.000568
376 0.000567
377 0.000572
378 0.000576
379 0.000577
380 0.000576
381 0.000575
382 0.000575
383 0.000571
384 0.000568
385 0.000564
386 0.000561
387 0.000562
388 0.000563
389 0.000562
390 0.000559
391 0.000557
392 0.000554
393 0.000551
394 0.000547
395 0.000544
396 0.000543
397 0.000540
398 0.000536
399 0.000533
400 0.000532
401 0.000531
402 0.000529
403 0.000529
404 0.000529
405 0.000528
406 0.000532
407 0.000536
408 0.000546
409 0.000552
410 0.000555
411 0.000554
412 0.000550
413 0.000542
414 0.000536
415 0.000532
416 0.000530
417 0.000532
418 0.000534
419 0.000534
420 0.000533
421 0.000533
422 0.000536
423 0.000537
424 0.000538
425 0.000538
426 0.000536
427 0.000531
428 0.000526
429 0.000519
430 0.000514
431 0.000511
432 0.000509
433 0.000507
434 0.000505
435 0.000502
436 0.000500
437 0.000497
438 0.000496
439 0.000494
440 0.000491
441 0.000485
442 0.000478
443 0.000470
444 0.000465
445 0.000462
446 0.000457
447 0.000456
448 0.000455
449 0.000454
450 0.000454
451 0.000455
452 0.000451
453 0.000450
454 0.000449
455 0.000451
456 0.000450
457 0.000450
458 0.000448
459 0.000446
460 0.000443
461 0.000438
462 0.000433
463 0.000430
464 0.000429
465 0.000425
466 0.000426
467 0.000428
468 0.000426
469 0.000422
470 0.000422
471 0.000423
472 0.000424
473 0.000425
474 0.000423
475 0.000423
476 0.000421
477 0.000419
478 0.000416
479 0.000414
480 0.000411
481 0.000406
482 0.000402
483 0.000400
484 0.000398
485 0.000397
486 0.000400
487 0.000400
488 0.000398
489 0.000398
490 0.000396
491 0.000389
492 0.000383
493 0.000378
494 0.000379
495 0.000380
496 0.000382
497 0.000387
498 0.000389
499 0.000390
500 0.000390
501 0.000391
502 0.000394
503 0.000395
504 0.000399
505 0.000402
506 0.000402
507 0.000399
508 0.000395
509 0.000389
510 0.000381
511 0.000377
512 0.000371
513 0.000371
514 0.000370
515 0.000367
516 0.000367
517 0.000368
518 0.000365
519 0.000361
520 0.000357
521 0.000355
522 0.000354
523 0.000354
524 0.000352
525 0.000351
526 0.000352
527 0.000353
528 0.000353
529 0.000353
530 0.000355
531 0.000355
532 0.000359
533 0.000363
534 0.000365
535 0.000366
536 0.000367
537 0.000367
538 0.000370
539 0.000372
540 0.000370
541 0.000369
542 0.000367
543 0.000364
544 0.000361
545 0.000356
546 0.000354
547 0.000353
548 0.000350
549 0.000347
550 0.000340
551 0.000334
552 0.000328
553 0.000324
554 0.000318
555 0.000312
556 0.000305
557 0.000300
558 0.000293
559 0.000287
560 0.000279
561 0.000276
562 0.000275
563 0.000275
564 0.000276
565 0.000276
566 0.000273
567 0.000271
568 0.000271
569 0.000273
570 0.000274
571 0.000277
572 0.000281
573 0.000284
574 0.000286
575 0.000287
576 0.000289
577 0.000292
578 0.000301
579 0.000306
580 0.000311
581 0.000313
582 0.000316
583 0.000318
584 0.000317
585 0.000316
586 0.000315
587 0.000315
588 0.000315
589 0.000313
590 0.000311
591 0.000308
592 0.000304
593 0.000300
594 0.000297
595 0.000292
596 0.000288
597 0.000283
598 0.000278
599 0.000273
600 0.000271
601 0.000269
602 0.000270
603 0.000268
604 0.000266
605 0.000261
606 0.000253
607 0.000245
608 0.000239
609 0.000237
610 0.000235
611 0.000231
612 0.000228
613 0.000224
614 0.000222
615 0.000220
616 0.000216
617 0.000214
618 0.000210
619 0.000208
620 0.000207
621 0.000205
622 0.000199
623 0.000198
624 0.000198
625 0.000198
626 0.000196
627 0.000194
628 0.000193
629 0.000196
630 0.000196
631 0.000194
632 0.000189
633 0.000187
634 0.000185
635 0.000178
636 0.000170
637 0.000164
638 0.000159
639 0.000152
640 0.000146
641 0.000141
642 0.000137
643 0.000132
644 0.000128
645 0.000126
646 0.000125
647 0.000127
648 0.000129
649 0.000128
650 0.000126
651 0.000125
652 0.000124
653 0.000124
654 0.000127
655 0.000128
656 0.000128
657 0.000127
658 0.000130
659 0.000136
660 0.000142
661 0.000147
662 0.000153
663 0.000160
664 0.000164
665 0.000166
666 0.000165
667 0.000164
668 0.000161
669 0.000158
670 0.000155
671 0.000150
672 0.000143
673 0.000138
674 0.000133
675 0.000130
676 0.000127
677 0.000123
678 0.000118
679 0.000115
680 0.000112
681 0.000107
682 0.000107
683 0.000103
684 0.000103
685 0.000104
686 0.000104
687 0.000104
688 0.000105
689 0.000109
690 0.000114
691 0.000118
692 0.000123
693 0.000127
694 0.000126
695 0.000127
696 0.000130
697 0.000133
698 0.000134
699 0.000137
700 0.000140
701 0.000139
702 0.000136
703 0.000134
704 0.000133
705 0.000134
706 0.000135
707 0.000132
708 0.000129
709 0.000125
710 0.000122
711 0.000118
712 0.000114
713 0.000112
714 0.000110
715 0.000108
716 0.000106
717 0.000105
718 0.000104
719 0.000103
720 0.000103
721 0.000105
722 0.000106
723 0.000104
724 0.000104
725 0.000107
726 0.000110
727 0.000116
728 0.000122
729 0.000126
730 0.000128
731 0.000129
732 0.000129
733 0.000129
734 0.000129
735 0.000131
736 0.000132
737 0.000131
738 0.000130
739 0.000132
740 0.000134
741 0.000135
742 0.000138
743 0.000140
744 0.000140
745 0.000141
746 0.000142
747 0.000144
748 0.000146
749 0.000147
750 0.000150
751 0.000152
752 0.000152
753 0.000153
754 0.000154
755 0.000155
756 0.000157
757 0.000158
758 0.000159
759 0.000159
760 0.000158
761 0.000159
762 0.000162
763 0.000165
764 0.000167
765 0.000171
766 0.000175
767 0.000180
768 0.000183
769 0.000185
770 0.000188
771 0.000190
772 0.000189
773 0.000189
774 0.000188
775 0.000183
776 0.000178
777 0.000173
778 0.000172
779 0.000171
780 0.000169
781 0.000166
782 0.000160
783 0.000155
784 0.000149
785 0.000146
786 0.000146
787 0.000146
788 0.000144
789 0.000140
790 0.000139
791 0.000138
792 0.000137
793 0.000137
794 0.000138
795 0.000138
796 0.000137
797 0.000135
798 0.000131
799 0.000126
800 0.000121
801 0.000118
802 0.000116
803 0.000112
804 0.000108
805 0.000105
806 0.000102
807 0.000099
808 0.000097
809 0.000095
