# i correlation
1 0.001622
2 0.001577
3 0.001539
4 0.001510
5 0.001483
6 0.001461
7 0.001442
8 0.001422
9 0.001404
10 0.001391
11 0.001378
12 0.001367
13 0.001356
14 0.001348
15 0.001337
16 0.001329
17 0.001321
18 0.001312
19 0.001301
20 0.001291
21 0.001286
22 0.001283
23 0.001276
24 0.001269
25 0.001265
26 0.001259
27 0.001252
28 0.001242
29 0.001235
30 0.001226
31 0.001220
32 0.001212
33 0.001214
34 0.001213
35 0.001210
36 0.001198
37 0.001191
38 0.001182
39 0.001175
40 0.001172
41 0.001169
42 0.001168
43 0.001167
44 0.001166
45 0.001165
46 0.001159
47 0.001157
48 0.001151
49 0.001149
50 0.001154
51 0.001155
52 0.001152
53 0.001147
54 0.001145
55 0.001144
56 0.001139
57 0.001134
58 0.001130
59 0.001126
60 0.001124
61 0.001123
62 0.001120
63 0.001114
64 0.001109
65 0.001103
66 0.001095
67 0.001087
68 0.001080
69 0.001076
70 0.001071
71 0.001063
72 0.001058
73 0.001054
74 0.001053
75 0.001052
76 0.001053
77 0.001054
78 0.001053
79 0.001052
80 0.001046
81 0.001039
82 0.001033
83 0.001027
84 0.001020
85 0.001014
86 0.001008
87 0.001000
88 0.000994
89 0.000988
90 0.000983
91 0.000981
92 0.000979
93 0.000978
94 0.000976
95 0.000978
96 0.000979
97 0.000979
98 0.000976
99 0.000977
100 0.000980
101 0.000978
102 0.000978
103 0.000974
104 0.000971
105 0.000965
106 0.000958
107 0.000951
108 0.000938
109 0.000932
110 0.000928
111 0.000921
112 0.000914
113 0.000906
114 0.000899
115 0.000892
116 0.000891
117 0.000890
118 0.000886
119 0.000885
120 0.000883
121 0.000883
122 0.000877
123 0.000871
124 0.000866
125 0.000858
126 0.000854
127 0.000852
128 0.000851
129 0.000849
130 0.000850
131 0.000850
132 0.000852
133 0.000854
134 0.000854
135 0.000848
136 0.000842
137 0.000837
138 0.000835
139 0.000832
140 0.000828
141 0.000826
142 0.000824
143 0.000819
144 0.000818
145 0.000818
146 0.000819
147 0.000822
148 0.000821
149 0.000816
150 0.000812
151 0.000811
152 0.000805
153 0.000797
154 0.000795
155 0.000790
156 0.000787
157 0.000786
158 0.000780
159 0.000773
160 0.000767
161 0.000766
162 0.000763
163 0.000764
164 0.000763
165 0.000766
166 0.000761
167 0.000760
168 0.000759
169 0.000759
170 0.000756
171 0.000757
172 0.000756
173 0.000758
174 0.000760
175 0.000760
176 0.000760
177 0.000763
178 0.000765
179 0.000769
180 0.000772
181 0.000782
182 0.000786
183 0.000792
184 0.000793
185 0.000789
186 0.000785
187 0.000785
188 0.000781
189 0.000780
190 0.000776
191 0.000775
192 0.000772
193 0.000765
194 0.000759
195 0.000755
196 0.000751
197 0.000742
198 0.000737
199 0.000735
200 0.000736
201 0.000740
202 0.000744
203 0.000745
204 0.000746
205 0.000744
206 0.000743
207 0.000740
208 0.000740
209 0.000737
210 0.000734
211 0.000727
212 0.000729
213 0.000730
214 0.000729
215 0.000727
216 0.000732
217 0.000736
218 0.000738
219 0.000732
220 0.000722
221 0.000717
222 0.000712
223 0.000708
224 0.000709
225 0.000708
226 0.000706
227 0.000703
228 0.000702
229 0.000700
230 0.000698
231 0.000695
232 0.000690
233 0.000690
234 0.000689
235 0.000689
236 0.000689
237 0.000690
238 0.000691
239 0.000691
240 0.000692
241 0.000691
242 0.000690
243 0.000694
244 0.000695
245 0.000697
246 0.000701
247 0.000707
248 0.000711
249 0.000712
250 0.000712
251 0.000713
252 0.000716
253 0.000717
254 0.000714
255 0.000706
256 0.000700
257 0.000697
258 0.000694
259 0.000689
260 0.000688
261 0.000686
262 0.000684
263 0.000681
264 0.000680
265 0.000679
266 0.000676
267 0.000676
268 0.000674
269 0.000671
270 0.000671
271 0.000670
272 0.000664
273 0.000660
274 0.000659
275 0.000658
276 0.000659
277 0.000662
278 0.000665
279 0.000662
280 0.000660
281 0.000664
282 0.000668
283 0.000674
284 0.000675
285 0.000672
286 0.000669
287 0.000668
288 0.000666
289 0.000665
290 0.000660
291 0.000658
292 0.000657
293 0.000658
294 0.000658
295 0.000662
296 0.000660
297 0.000657
298 0.000653
299 0.000651
300 0.000648
301 0.000648
302 0.000649
303 0.000651
304 0.000653
305 0.000656
306 0.000654
307 0.000652
308 0.000652
309 0.000653
310 0.000649
311 0.000646
312 0.000647
313 0.000643
314 0.000637
315 0.000631
316 0.000626
317 0.000620
318 0.000615
319 0.000613
320 0.000613
321 0.000609
322 0.000607
323 0.000604
324 0.000600
325 0.000597
326 0.000594
327 0.000591
328 0.000593
329 0.000590
330 0.000586
331 0.000581
332 0.000575
333 0.000573
334 0.000572
335 0.000570
336 0.000564
337 0.000562
338 0.000562
339 0.000559
340 0.000554
341 0.000547
342 0.000542
343 0.000534
344 0.000526
345 0.000524
346 0.000525
347 0.000524
348 0.000522
349 0.000523
350 0.000526
351 0.000525
352 0.000523
353 0.000520
354 0.000517
355 0.000517
356 0.000518
357 0.000521
358 0.000524
359 0.000527
360 0.000530
361 0.000530
362 0.000527
363 0.000524
364 0.000524
365 0.000527
366 0.000527
367 0.000528
368 0.000527
369 0.000527
370 0.000525
371 0.000520
372 0.000519
373 0.000517
374 0.000515
375 0.000513
376 0.000507
377 0.000500
378 0.000493
379 0.000488
380 0.000484
381 0.000478
382 0.000476
383 0.000477
384 0.000474
385 0.000471
386 0.000469
387 0.000468
388 0.000465
389 0.000463
390 0.000464
391 0.000464
392 0.000464
393 0.000464
394 0.000462
395 0.000460
396 0.000457
397 0.000455
398 0.000454
399 0.000452
400 0.000451
401 0.000453
402 0.000454
403 0.000456
404 0.000459
405 0.000464
406 0.000461
407 0.000457
408 0.000456
409 0.000453
410 0.000448
411 0.000444
412 0.000442
413 0.000435
414 0.000433
415 0.000428
416 0.000424
417 0.000422
418 0.000417
419 0.000413
420 0.000413
421 0.000411
422 0.000413
423 0.000411
424 0.000407
425 0.000407
426 0.000410
427 0.000411
428 0.000412
429 0.000412
430 0.000416
431 0.000414
432 0.000413
433 0.000412
434 0.000417
435 0.000421
436 0.000422
437 0.000424
438 0.000427
439 0.000430
440 0.000433
441 0.000433
442 0.000433
443 0.000432
444 0.000434
445 0.000433
446 0.000432
447 0.000430
448 0.000429
449 0.000427
450 0.000423
451 0.000421
452 0.000424
453 0.000424
454 0.000425
455 0.000424
456 0.000427
457 0.000427
458 0.000428
459 0.000432
460 0.000436
461 0.000438
462 0.000440
463 0.000441
464 0.000438
465 0.000438
466 0.000439
467 0.000438
468 0.000433
469 0.000431
470 0.000434
471 0.000433
472 0.000433
473 0.000431
474 0.000431
475 0.000430
476 0.000427
477 0.000425
478 0.000426
479 0.000428
480 0.000429
481 0.000428
482 0.000424
483 0.000421
484 0.000423
485 0.000426
486 0.000427
487 0.000427
488 0.000424
489 0.000423
490 0.000419
491 0.000417
492 0.000411
493 0.000404
494 0.000397
495 0.000392
496 0.000395
497 0.000398
498 0.000398
499 0.000400
500 0.000401
501 0.000401
502 0.000400
503 0.000402
504 0.000405
505 0.000409
506 0.000410
507 0.000412
508 0.000411
509 0.000407
510 0.000401
511 0.000395
512 0.000389
513 0.000386
514 0.000386
515 0.000383
516 0.000378
517 0.000377
518 0.000375
519 0.000372
520 0.000370
521 0.000375
522 0.000377
523 0.000374
524 0.000379
525 0.000380
526 0.000382
527 0.000379
528 0.000377
529 0.000375
530 0.000380
531 0.000381
532 0.000382
533 0.000378
534 0.000373
535 0.000371
536 0.000367
537 0.000367
538 0.000369
539 0.000372
540 0.000375
541 0.000380
542 0.000385
543 0.000387
544 0.000386
545 0.000383
546 0.000380
547 0.000381
548 0.000382
549 0.000382
550 0.000380
551 0.000375
552 0.000373
553 0.000372
554 0.000374
555 0.000379
556 0.000383
557 0.000383
558 0.000380
559 0.000382
560 0.000378
561 0.000375
562 0.000373
563 0.000369
564 0.000363
565 0.000358
566 0.000354
567 0.000347
568 0.000342
569 0.000337
570 0.000332
571 0.000327
572 0.000323
573 0.000320
574 0.000316
575 0.000316
576 0.000317
577 0.000319
578 0.000320
579 0.000318
580 0.000316
581 0.000315
582 0.000319
583 0.000322
584 0.000320
585 0.000319
586 0.000316
587 0.000312
588 0.000306
589 0.000300
590 0.000298
591 0.000294
592 0.000288
593 0.000284
594 0.000275
595 0.000265
596 0.000257
597 0.000252
598 0.000248
599 0.000244
600 0.000239
601 0.000232
602 0.000227
603 0.000225
604 0.000225
605 0.000227
606 0.000232
607 0.000238
608 0.000242
609 0.000246
610 0.000247
611 0.000250
612 0.000251
613 0.000254
614 0.000252
615 0.000248
616 0.000246
617 0.000249
618 0.000248
619 0.000248
620 0.000250
621 0.000256
622 0.000255
623 0.000257
624 0.000255
625 0.000252
626 0.000251
627 0.000251
628 0.000251
629 0.000249
630 0.000246
631 0.000243
632 0.000245
633 0.000244
634 0.000240
635 0.000238
636 0.000233
637 0.000227
638 0.000225
639 0.000225
640 0.000225
641 0.000222
642 0.000221
643 0.000221
644 0.000221
645 0.000217
646 0.000212
647 0.000209
648 0.000205
649 0.000204
650 0.000205
651 0.000205
652 0.000206
653 0.000205
654 0.000207
655 0.000207
656 0.000207
657 0.000206
658 0.000206
659 0.000206
660 0.000204
661 0.000203
662 0.000202
663 0.000200
664 0.000199
665 0.000199
666 0.000201
667 0.000198
668 0.000199
669 0.000199
670 0.000199
671 0.000197
672 0.000195
673 0.000191
674 0.000186
675 0.000183
676 0.000181
677 0.000178
678 0.000179
679 0.000178
680 0.000176
681 0.000174
682 0.000175
683 0.000174
684 0.000172
685 0.000167
686 0.000166
687 0.000166
688 0.000166
689 0.000168
690 0.000168
691 0.000167
692 0.000167
693 0.000165
694 0.000163
695 0.000160
696 0.000154
697 0.000150
698 0.000144
699 0.000139
700 0.000132
701 0.000125
702 0.000120
703 0.000119
704 0.000119
705 0.000119
706 0.000121
707 0.000122
708 0.000120
709 0.000123
710 0.000126
711 0.000129
712 0.000132
713 0.000138
714 0.000140
715 0.000143
716 0.000147
717 0.000153
718 0.000156
719 0.000157
720 0.000161
721 0.000163
722 0.000165
723 0.000166
724 0.000168
725 0.000171
726 0.000174
727 0.000175
728 0.000176
729 0.000177
730 0.000179
731 0.000181
732 0.000183
733 0.000184
734 0.000184
735 0.000180
736 0.000179
737 0.000180
738 0.000181
739 0.000183
740 0.000183
741 0.000179
742 0.000177
743 0.000177
744 0.000178
745 0.000178
746 0.000175
747 0.000172
748 0.000170
749 0.000168
750 0.000167
751 0.000166
752 0.000159
753 0.000153
754 0.000150
755 0.000151
756 0.000151
757 0.000149
758 0.000146
759 0.000145
760 0.000143
761 0.000142
762 0.000141
763 0.000140
764 0.000138
765 0.000139
766 0.000138
767 0.000141
768 0.000143
769 0.000142
770 0.000140
771 0.000139
772 0.000139
773 0.000140
774 0.000139
775 0.000134
776 0.000127
777 0.000121
778 0.000116
779 0.000113
780 0.000109
781 0.000107
782 0.000105
783 0.000102
784 0.000102
785 0.000099
786 0.000100
787 0.000098
788 0.000098
789 0.000096
790 0.000095
791 0.000093
792 0.000093
793 0.000091
794 0.000090
795 0.000089
796 0.000085
797 0.000082
798 0.000079
799 0.000078
800 0.000079
801 0.000079
802 0.000079
803 0.000076
804 0.000072
805 0.000067
806 0.000064
807 0.000060
808 0.000059
809 0.000059
