# i correlation
1 0.001886
2 0.001839
3 0.001797
4 0.001762
5 0.001732
6 0.001700
7 0.001674
8 0.001651
9 0.001629
10 0.001611
11 0.001593
12 0.001577
13 0.001564
14 0.001551
15 0.001536
16 0.001522
17 0.001505
18 0.001489
19 0.001477
20 0.001463
21 0.001452
22 0.001442
23 0.001435
24 0.001426
25 0.001418
26 0.001413
27 0.001411
28 0.001406
29 0.001405
30 0.001403
31 0.001400
32 0.001393
33 0.001386
34 0.001371
35 0.001354
36 0.001339
37 0.001326
38 0.001311
39 0.001298
40 0.001291
41 0.001286
42 0.001277
43 0.001270
44 0.001256
45 0.001245
46 0.001234
47 0.001225
48 0.001219
49 0.001215
50 0.001212
51 0.001204
52 0.001199
53 0.001196
54 0.001199
55 0.001198
56 0.001196
57 0.001192
58 0.001189
59 0.001187
60 0.001184
61 0.001177
62 0.001173
63 0.001167
64 0.001158
65 0.001148
66 0.001135
67 0.001121
68 0.001109
69 0.001105
70 0.001100
71 0.001099
72 0.001097
73 0.001096
74 0.001097
75 0.001095
76 0.001088
77 0.001078
78 0.001069
79 0.001064
80 0.001058
81 0.001048
82 0.001045
83 0.001042
84 0.001040
85 0.001040
86 0.001037
87 0.001037
88 0.001032
89 0.001028
90 0.001027
91 0.001024
92 0.001023
93 0.001026
94 0.001024
95 0.001022
96 0.001020
97 0.001017
98 0.001012
99 0.001008
100 0.001006
101 0.001002
102 0.000997
103 0.000994
104 0.000994
105 0.000998
106 0.001000
107 0.000999
108 0.000994
109 0.000988
110 0.000978
111 0.000970
112 0.000968
113 0.000969
114 0.000969
115 0.000968
116 0.000970
117 0.000971
118 0.000974
119 0.000976
120 0.000973
121 0.000971
122 0.000967
123 0.000962
124 0.000957
125 0.000955
126 0.000951
127 0.000948
128 0.000950
129 0.000953
130 0.000957
131 0.000960
132 0.000963
133 0.000967
134 0.000969
135 0.000968
136 0.000966
137 0.000962
138 0.000957
139 0.000951
140 0.000944
141 0.000939
142 0.000938
143 0.000936
144 0.000935
145 0.000933
146 0.000928
147 0.000927
148 0.000926
149 0.000922
150 0.000917
151 0.000912
152 0.000906
153 0.000900
154 0.000896
155 0.000894
156 0.000890
157 0.000886
158 0.000884
159 0.000885
160 0.000882
161 0.000884
162 0.000885
163 0.000885
164 0.000883
165 0.000881
166 0.000876
167 0.000871
168 0.000867
169 0.000862
170 0.000861
171 0.000861
172 0.000859
173 0.000856
174 0.000859
175 0.000858
176 0.000856
177 0.000853
178 0.000851
179 0.000850
180 0.000852
181 0.000856
182 0.000855
183 0.000852
184 0.000849
185 0.000845
186 0.000840
187 0.000834
188 0.000830
189 0.000828
190 0.000825
191 0.000823
192 0.000823
193 0.000822
194 0.000819
195 0.000810
196 0.000807
197 0.000801
198 0.000797
199 0.000789
200 0.000782
201 0.000778
202 0.000777
203 0.000770
204 0.000759
205 0.000753
206 0.000747
207 0.000741
208 0.000741
209 0.000738
210 0.000735
211 0.000732
212 0.000731
213 0.000737
214 0.000742
215 0.000747
216 0.000747
217 0.000746
218 0.000745
219 0.000744
220 0.000744
221 0.000741
222 0.000740
223 0.000742
224 0.000743
225 0.000746
226 0.000749
227 0.000749
228 0.000744
229 0.000737
230 0.000732
231 0.000729
232 0.000723
233 0.000715
234 0.000712
235 0.000709
236 0.000706
237 0.000703
238 0.000696
239 0.000693
240 0.000686
241 0.000681
242 0.000679
243 0.000681
244 0.000685
245 0.000688
246 0.000692
247 0.000695
248 0.000698
249 0.000700
250 0.000704
251 0.000705
252 0.000706
253 0.000705
254 0.000703
255 0.000702
256 0.000703
257 0.000701
258 0.000700
259 0.000696
260 0.000691
261 0.000689
262 0.000683
263 0.000681
264 0.000673
265 0.000667
266 0.000659
267 0.000655
268 0.000657
269 0.000656
270 0.000655
271 0.000653
272 0.000655
273 0.000655
274 0.000654
275 0.000654
276 0.000657
277 0.000660
278 0.000660
279 0.000658
280 0.000659
281 0.000658
282 0.000654
283 0.000649
284 0.000645
285 0.000642
286 0.000643
287 0.000646
288 0.000648
289 0.000646
290 0.000641
291 0.000636
292 0.000630
293 0.000623
294 0.000618
295 0.000608
296 0.000600
297 0.000589
298 0.000580
299 0.000573
300 0.000564
301 0.000558
302 0.000552
303 0.000544
304 0.000537
305 0.000534
306 0.000531
307 0.000526
308 0.000524
309 0.000524
310 0.000526
311 0.000522
312 0.000519
313 0.000515
314 0.000509
315 0.000503
316 0.000493
317 0.000485
318 0.000482
319 0.000485
320 0.000488
321 0.000495
322 0.000501
323 0.000503
324 0.000507
325 0.000506
326 0.000504
327 0.000505
328 0.000507
329 0.000510
330 0.000512
331 0.000511
332 0.000514
333 0.000512
334 0.000509
335 0.000513
336 0.000519
337 0.000520
338 0.000517
339 0.000514
340 0.000512
341 0.000511
342 0.000511
343 0.000514
344 0.000519
345 0.000526
346 0.000533
347 0.000537
348 0.000540
349 0.000540
350 0.000542
351 0.000549
352 0.000556
353 0.000559
354 0.000555
355 0.000551
356 0.000550
357 0.000548
358 0.000543
359 0.000540
360 0.000540
361 0.000540
362 0.000539
363 0.000539
364 0.000538
365 0.000537
366 0.000537
367 0.000535
368 0.000535
369 0.000532
370 0.000528
371 0.000520
372 0.000516
373 0.000511
374 0.000507
375 0.000504
376 0.000506
377 0.000508
378 0.000513
379 0.000523
380 0.000529
381 0.000534
382 0.000538
383 0.000541
384 0.000546
385 0.000551
386 0.000557
387 0.000560
388 0.000559
389 0.000560
390 0.000561
391 0.000562
392 0.000558
393 0.000560
394 0.000565
395 0.000568
396 0.000568
397 0.000563
398 0.000561
399 0.000557
400 0.000554
401 0.000551
402 0.000547
403 0.000542
404 0.000539
405 0.000537
406 0.000539
407 0.000541
408 0.000543
409 0.000542
410 0.000538
411 0.000537
412 0.000535
413 0.000530
414 0.000526
415 0.000524
416 0.000519
417 0.000517
418 0.000512
419 0.000507
420 0.000505
421 0.000499
422 0.000498
423 0.000493
424 0.000488
425 0.000485
426 0.000482
427 0.000479
428 0.000481
429 0.000478
430 0.000473
431 0.000468
432 0.000461
433 0.000459
434 0.000454
435 0.000452
436 0.000452
437 0.000453
438 0.000452
439 0.000453
440 0.000449
441 0.000452
442 0.000456
443 0.000460
444 0.000466
445 0.000473
446 0.000481
447 0.000484
448 0.000487
449 0.000487
450 0.000486
451 0.000485
452 0.000484
453 0.000481
454 0.000477
455 0.000471
456 0.000462
457 0.000456
458 0.000449
459 0.000444
460 0.000438
461 0.000431
462 0.000423
463 0.000413
464 0.000404
465 0.000400
466 0.000400
467 0.000396
468 0.000391
469 0.000391
470 0.000388
471 0.000386
472 0.000381
473 0.000377
474 0.000376
475 0.000376
476 0.000376
477 0.000377
478 0.000378
479 0.000374
480 0.000371
481 0.000367
482 0.000365
483 0.000365
484 0.000367
485 0.000368
486 0.000366
487 0.000363
488 0.000358
489 0.000353
490 0.000346
491 0.000340
492 0.000335
493 0.000331
494 0.000330
495 0.000328
496 0.000324
497 0.000320
498 0.000317
499 0.000320
500 0.000323
501 0.000324
502 0.000326
503 0.000327
504 0.000326
505 0.000322
506 0.000316
507 0.000317
508 0.000320
509 0.000322
510 0.000322
511 0.000324
512 0.000324
513 0.000325
514 0.000324
515 0.000325
516 0.000325
517 0.000324
518 0.000322
519 0.000318
520 0.000313
521 0.000311
522 0.000312
523 0.000314
524 0.000314
525 0.000313
526 0.000313
527 0.000316
528 0.000317
529 0.000318
530 0.000317
531 0.000317
532 0.000314
533 0.000311
534 0.000311
535 0.000307
536 0.000305
537 0.000305
538 0.000309
539 0.000311
540 0.000312
541 0.000314
542 0.000316
543 0.000316
544 0.000317
545 0.000315
546 0.000314
547 0.000312
548 0.000307
549 0.000305
550 0.000304
551 0.000301
552 0.000297
553 0.000294
554 0.000291
555 0.000289
556 0.000286
557 0.000284
558 0.000281
559 0.000282
560 0.000279
561 0.000275
562 0.000273
563 0.000268
564 0.000263
565 0.000259
566 0.000257
567 0.000255
568 0.000252
569 0.000250
570 0.000250
571 0.000253
572 0.000258
573 0.000259
574 0.000261
575 0.000259
576 0.000259
577 0.000259
578 0.000263
579 0.000268
580 0.000272
581 0.000275
582 0.000281
583 0.000284
584 0.000283
585 0.000278
586 0.000273
587 0.000268
588 0.000265
589 0.000260
590 0.000257
591 0.000252
592 0.000250
593 0.000247
594 0.000243
595 0.000235
596 0.000233
597 0.000230
598 0.000226
599 0.000221
600 0.000216
601 0.000212
602 0.000210
603 0.000210
604 0.000210
605 0.000207
606 0.000204
607 0.000203
608 0.000203
609 0.000206
610 0.000205
611 0.000207
612 0.000208
613 0.000211
614 0.000213
615 0.000213
616 0.000215
617 0.000213
618 0.000212
619 0.000209
620 0.000208
621 0.000209
622 0.000209
623 0.000210
624 0.000209
625 0.000207
626 0.000203
627 0.000198
628 0.000196
629 0.000194
630 0.000194
631 0.000195
632 0.000195
633 0.000198
634 0.000202
635 0.000204
636 0.000202
637 0.000201
638 0.000198
639 0.000196
640 0.000193
641 0.000190
642 0.000188
643 0.000185
644 0.000185
645 0.000185
646 0.000184
647 0.000182
648 0.000180
649 0.000177
650 0.000174
651 0.000170
652 0.000165
653 0.000159
654 0.000156
655 0.000153
656 0.000154
657 0.000156
658 0.000155
659 0.000154
660 0.000149
661 0.000146
662 0.000143
663 0.000141
664 0.000139
665 0.000137
666 0.000135
667 0.000134
668 0.000134
669 0.000132
670 0.000129
671 0.000124
672 0.000122
673 0.000122
674 0.000123
675 0.000124
676 0.000126
677 0.000127
678 0.000130
679 0.000128
680 0.000125
681 0.000122
682 0.000119
683 0.000116
684 0.000111
685 0.000107
686 0.000099
687 0.000092
688 0.000087
689 0.000082
690 0.000074
691 0.000070
692 0.000066
693 0.000064
694 0.000061
695 0.000058
696 0.000054
697 0.000051
698 0.000050
699 0.000046
700 0.000042
701 0.000040
702 0.000038
703 0.000034
704 0.000032
705 0.000030
706 0.000026
707 0.000024
708 0.000024
709 0.000029
710 0.000029
711 0.000028
712 0.000026
713 0.000024
714 0.000022
715 0.000021
716 0.000019
717 0.000015
718 0.000014
719 0.000010
720 0.000007
721 0.000007
722 0.000004
723 0.000002
724 0.000000
725 -0.000001
726 -0.000002
727 -0.000004
728 -0.000003
729 -0.000006
730 -0.000008
731 -0.000009
732 -0.000011
733 -0.000015
734 -0.000018
735 -0.000022
736 -0.000025
737 -0.000025
738 -0.000023
739 -0.000020
740 -0.000021
741 -0.000019
742 -0.000018
743 -0.000016
744 -0.000015
745 -0.000018
746 -0.000019
747 -0.000017
748 -0.000018
749 -0.000023
750 -0.000031
751 -0.000036
752 -0.000038
753 -0.000038
754 -0.000039
755 -0.000038
756 -0.000040
757 -0.000039
758 -0.000037
759 -0.000038
760 -0.000039
761 -0.000040
762 -0.000043
763 -0.000047
764 -0.000049
765 -0.000048
766 -0.000046
767 -0.000044
768 -0.000042
769 -0.000041
770 -0.000038
771 -0.000034
772 -0.000030
773 -0.000026
774 -0.000019
775 -0.000011
776 -0.000006
777 -0.000005
778 -0.000004
779 -0.000004
780 -0.000001
781 0.000001
782 0.000002
783 0.000000
784 0.000001
785 -0.000001
786 -0.000003
787 -0.000004
788 -0.000002
789 -0.000001
790 0.000003
791 0.000008
792 0.000012
793 0.000015
794 0.000018
795 0.000021
796 0.000026
797 0.000032
798 0.000038
799 0.000041
800 0.000041
801 0.000042
802 0.000045
803 0.000044
804 0.000043
805 0.000042
806 0.000042
807 0.000043
808 0.000042
809 0.000042
