# i correlation
1 0.001718
2 0.001679
3 0.001644
4 0.001614
5 0.001588
6 0.001564
7 0.001543
8 0.001520
9 0.001505
10 0.001490
11 0.001475
12 0.001462
13 0.001450
14 0.001441
15 0.001432
16 0.001425
17 0.001416
18 0.001403
19 0.001392
20 0.001381
21 0.001367
22 0.001351
23 0.001338
24 0.001324
25 0.001317
26 0.001310
27 0.001308
28 0.001303
29 0.001294
30 0.001286
31 0.001277
32 0.001267
33 0.001258
34 0.001252
35 0.001246
36 0.001238
37 0.001230
38 0.001230
39 0.001229
40 0.001226
41 0.001218
42 0.001217
43 0.001214
44 0.001208
45 0.001202
46 0.001195
47 0.001190
48 0.001187
49 0.001180
50 0.001175
51 0.001170
52 0.001164
53 0.001158
54 0.001154
55 0.001153
56 0.001152
57 0.001151
58 0.001149
59 0.001140
60 0.001133
61 0.001129
62 0.001124
63 0.001117
64 0.001109
65 0.001102
66 0.001091
67 0.001079
68 0.001068
69 0.001057
70 0.001050
71 0.001045
72 0.001039
73 0.001033
74 0.001025
75 0.001013
76 0.001002
77 0.000999
78 0.000998
79 0.000997
80 0.000993
81 0.000989
82 0.000990
83 0.000990
84 0.000987
85 0.000984
86 0.000983
87 0.000981
88 0.000979
89 0.000977
90 0.000972
91 0.000963
92 0.000956
93 0.000954
94 0.000952
95 0.000947
96 0.000942
97 0.000938
98 0.000934
99 0.000933
100 0.000934
101 0.000933
102 0.000928
103 0.000924
104 0.000922
105 0.000918
106 0.000917
107 0.000917
108 0.000909
109 0.000901
110 0.000893
111 0.000879
112 0.000873
113 0.000868
114 0.000864
115 0.000863
116 0.000861
117 0.000862
118 0.000859
119 0.000855
120 0.000854
121 0.000853
122 0.000849
123 0.000841
124 0.000831
125 0.000819
126 0.000806
127 0.000798
128 0.000792
129 0.000779
130 0.000764
131 0.000753
132 0.000747
133 0.000741
134 0.000733
135 0.000730
136 0.000724
137 0.000721
138 0.000717
139 0.000713
140 0.000710
141 0.000710
142 0.000709
143 0.000706
144 0.000707
145 0.000709
146 0.000708
147 0.000707
148 0.000707
149 0.000710
150 0.000712
151 0.000717
152 0.000725
153 0.000728
154 0.000730
155 0.000732
156 0.000737
157 0.000736
158 0.000732
159 0.000727
160 0.000722
161 0.000717
162 0.000713
163 0.000709
164 0.000703
165 0.000702
166 0.000701
167 0.000702
168 0.000701
169 0.000699
170 0.000696
171 0.000696
172 0.000696
173 0.000695
174 0.000691
175 0.000689
176 0.000685
177 0.000683
178 0.000678
179 0.000676
180 0.000671
181 0.000664
182 0.000657
183 0.000651
184 0.000645
185 0.000640
186 0.000636
187 0.000634
188 0.000629
189 0.000625
190 0.000622
191 0.000618
192 0.000618
193 0.000615
194 0.000613
195 0.000608
196 0.000605
197 0.000601
198 0.000596
199 0.000593
200 0.000594
201 0.000596
202 0.000600
203 0.000604
204 0.000607
205 0.000608
206 0.000612
207 0.000616
208 0.000616
209 0.000620
210 0.000624
211 0.000628
212 0.000631
213 0.000634
214 0.000634
215 0.000635
216 0.000637
217 0.000639
218 0.000638
219 0.000636
220 0.000635
221 0.000638
222 0.000642
223 0.000643
224 0.000641
225 0.000641
226 0.000635
227 0.000631
228 0.000626
229 0.000620
230 0.000615
231 0.000611
232 0.000609
233 0.000605
234 0.000601
235 0.000594
236 0.000588
237 0.000581
238 0.000574
239 0.000570
240 0.000568
241 0.000567
242 0.000566
243 0.000568
244 0.000571
245 0.000571
246 0.000573
247 0.000575
248 0.000575
249 0.000580
250 0.000582
251 0.000585
252 0.000586
253 0.000585
254 0.000584
255 0.000585
256 0.000587
257 0.000587
258 0.000588
259 0.000590
260 0.000597
261 0.000602
262 0.000603
263 0.000600
264 0.000598
265 0.000596
266 0.000593
267 0.000590
268 0.000582
269 0.000576
270 0.000573
271 0.000572
272 0.000572
273 0.000575
274 0.000581
275 0.000584
276 0.000585
277 0.000583
278 0.000582
279 0.000576
280 0.000571
281 0.000565
282 0.000556
283 0.000545
284 0.000531
285 0.000517
286 0.000506
287 0.000497
288 0.000488
289 0.000482
290 0.000479
291 0.000475
292 0.000466
293 0.000459
294 0.000455
295 0.000450
296 0.000450
297 0.000449
298 0.000445
299 0.000441
300 0.000436
301 0.000429
302 0.000423
303 0.000421
304 0.000421
305 0.000419
306 0.000417
307 0.000417
308 0.000414
309 0.000413
310 0.000415
311 0.000414
312 0.000415
313 0.000414
314 0.000414
315 0.000412
316 0.000413
317 0.000412
318 0.000414
319 0.000412
320 0.000410
321 0.000407
322 0.000405
323 0.000404
324 0.000403
325 0.000404
326 0.000405
327 0.000405
328 0.000407
329 0.000414
330 0.000419
331 0.000424
332 0.000432
333 0.000436
334 0.000441
335 0.000444
336 0.000445
337 0.000444
338 0.000446
339 0.000446
340 0.000442
341 0.000438
342 0.000435
343 0.000432
344 0.000432
345 0.000433
346 0.000434
347 0.000433
348 0.000434
349 0.000434
350 0.000434
351 0.000427
352 0.000423
353 0.000420
354 0.000420
355 0.000418
356 0.000415
357 0.000411
358 0.000408
359 0.000408
360 0.000411
361 0.000414
362 0.000414
363 0.000415
364 0.000415
365 0.000414
366 0.000411
367 0.000408
368 0.000409
369 0.000409
370 0.000410
371 0.000408
372 0.000407
373 0.000404
374 0.000402
375 0.000398
376 0.000397
377 0.000397
378 0.000398
379 0.000396
380 0.000394
381 0.000393
382 0.000388
383 0.000384
384 0.000381
385 0.000375
386 0.000365
387 0.000357
388 0.000355
389 0.000347
390 0.000340
391 0.000331
392 0.000327
393 0.000324
394 0.000321
395 0.000315
396 0.000313
397 0.000313
398 0.000312
399 0.000315
400 0.000317
401 0.000318
402 0.000319
403 0.000323
404 0.000327
405 0.000328
406 0.000330
407 0.000328
408 0.000326
409 0.000323
410 0.000320
411 0.000322
412 0.000323
413 0.000323
414 0.000322
415 0.000318
416 0.000317
417 0.000316
418 0.000317
419 0.000323
420 0.000329
421 0.000335
422 0.000337
423 0.000340
424 0.000343
425 0.000345
426 0.000349
427 0.000353
428 0.000358
429 0.000361
430 0.000363
431 0.000368
432 0.000374
433 0.000379
434 0.000379
435 0.000382
436 0.000384
437 0.000387
438 0.000391
439 0.000396
440 0.000397
441 0.000396
442 0.000397
443 0.000397
444 0.000394
445 0.000390
446 0.000391
447 0.000391
448 0.000391
449 0.000392
450 0.000393
451 0.000394
452 0.000394
453 0.000395
454 0.000396
455 0.000395
456 0.000395
457 0.000394
458 0.000393
459 0.000393
460 0.000390
461 0.000388
462 0.000388
463 0.000388
464 0.000386
465 0.000385
466 0.000384
467 0.000388
468 0.000391
469 0.000390
470 0.000389
471 0.000391
472 0.000388
473 0.000385
474 0.000385
475 0.000382
476 0.000384
477 0.000389
478 0.000390
479 0.000388
480 0.000385
481 0.000384
482 0.000385
483 0.000393
484 0.000397
485 0.000402
486 0.000406
487 0.000408
488 0.000409
489 0.000410
490 0.000411
491 0.000412
492 0.000409
493 0.000406
494 0.000403
495 0.000398
496 0.000396
497 0.000392
498 0.000393
499 0.000393
500 0.000391
501 0.000390
502 0.000389
503 0.000390
504 0.000391
505 0.000393
506 0.000394
507 0.000394
508 0.000389
509 0.000385
510 0.000383
511 0.000378
512 0.000375
513 0.000371
514 0.000367
515 0.000364
516 0.000365
517 0.000362
518 0.000359
519 0.000360
520 0.000363
521 0.000368
522 0.000370
523 0.000372
524 0.000373
525 0.000377
526 0.000381
527 0.000381
528 0.000382
529 0.000382
530 0.000381
531 0.000378
532 0.000375
533 0.000373
534 0.000370
535 0.000367
536 0.000364
537 0.000362
538 0.000360
539 0.000359
540 0.000359
541 0.000360
542 0.000358
543 0.000354
544 0.000349
545 0.000345
546 0.000342
547 0.000340
548 0.000337
549 0.000335
550 0.000331
551 0.000326
552 0.000321
553 0.000319
554 0.000317
555 0.000317
556 0.000317
557 0.000316
558 0.000312
559 0.000307
560 0.000303
561 0.000298
562 0.000290
563 0.000286
564 0.000282
565 0.000280
566 0.000278
567 0.000276
568 0.000275
569 0.000272
570 0.000267
571 0.000266
572 0.000264
573 0.000261
574 0.000256
575 0.000249
576 0.000243
577 0.000243
578 0.000243
579 0.000240
580 0.000238
581 0.000238
582 0.000239
583 0.000240
584 0.000243
585 0.000246
586 0.000247
587 0.000249
588 0.000248
589 0.000247
590 0.000245
591 0.000245
592 0.000246
593 0.000247
594 0.000249
595 0.000253
596 0.000257
597 0.000257
598 0.000259
599 0.000259
600 0.000258
601 0.000254
602 0.000249
603 0.000245
604 0.000240
605 0.000237
606 0.000238
607 0.000237
608 0.000239
609 0.000239
610 0.000241
611 0.000245
612 0.000249
613 0.000254
614 0.000256
615 0.000258
616 0.000259
617 0.000262
618 0.000261
619 0.000262
620 0.000263
621 0.000262
622 0.000261
623 0.000260
624 0.000259
625 0.000260
626 0.000261
627 0.000261
628 0.000263
629 0.000265
630 0.000266
631 0.000265
632 0.000262
633 0.000262
634 0.000260
635 0.000258
636 0.000256
637 0.000255
638 0.000254
639 0.000254
640 0.000255
641 0.000254
642 0.000255
643 0.000255
644 0.000257
645 0.000258
646 0.000257
647 0.000257
648 0.000256
649 0.000255
650 0.000255
651 0.000255
652 0.000253
653 0.000254
654 0.000255
655 0.000257
656 0.000259
657 0.000260
658 0.000261
659 0.000262
660 0.000265
661 0.000267
662 0.000266
663 0.000265
664 0.000263
665 0.000261
666 0.000258
667 0.000256
668 0.000255
669 0.000251
670 0.000249
671 0.000247
672 0.000247
673 0.000250
674 0.000252
675 0.000256
676 0.000256
677 0.000259
678 0.000262
679 0.000266
680 0.000266
681 0.000270
682 0.000269
683 0.000267
684 0.000267
685 0.000267
686 0.000267
687 0.000266
688 0.000268
689 0.000268
690 0.000269
691 0.000269
692 0.000267
693 0.000266
694 0.000266
695 0.000267
696 0.000268
697 0.000267
698 0.000268
699 0.000270
700 0.000274
701 0.000276
702 0.000280
703 0.000283
704 0.000286
705 0.000288
706 0.000292
707 0.000297
708 0.000303
709 0.000308
710 0.000311
711 0.000311
712 0.000312
713 0.000312
714 0.000309
715 0.000307
716 0.000304
717 0.000303
718 0.000302
719 0.000299
720 0.000299
721 0.000296
722 0.000292
723 0.000289
724 0.000284
725 0.000280
726 0.000276
727 0.000270
728 0.000265
729 0.000261
730 0.000257
731 0.000249
732 0.000245
733 0.000243
734 0.000242
735 0.000241
736 0.000241
737 0.000244
738 0.000246
739 0.000249
740 0.000251
741 0.000250
742 0.000249
743 0.000247
744 0.000242
745 0.000237
746 0.000234
747 0.000229
748 0.000226
749 0.000224
750 0.000226
751 0.000227
752 0.000228
753 0.000227
754 0.000224
755 0.000221
756 0.000218
757 0.000215
758 0.000214
759 0.000211
760 0.000210
761 0.000210
762 0.000209
763 0.000205
764 0.000203
765 0.000204
766 0.000204
767 0.000204
768 0.000203
769 0.000200
770 0.000195
771 0.000193
772 0.000189
773 0.000185
774 0.000181
775 0.000178
776 0.000175
777 0.000172
778 0.000169
779 0.000166
780 0.000166
781 0.000169
782 0.000172
783 0.000173
784 0.000170
785 0.000169
786 0.000167
787 0.000166
788 0.000165
789 0.000164
790 0.000164
791 0.000164
792 0.000163
793 0.000161
794 0.000160
795 0.000158
796 0.000158
797 0.000158
798 0.000158
799 0.000158
800 0.000157
801 0.000156
802 0.000156
803 0.000155
804 0.000152
805 0.000147
806 0.000144
807 0.000142
808 0.000140
809 0.000139
