# i correlation
1 0.001758
2 0.001720
3 0.001685
4 0.001659
5 0.001636
6 0.001611
7 0.001592
8 0.001572
9 0.001553
10 0.001536
11 0.001520
12 0.001508
13 0.001496
14 0.001488
15 0.001482
16 0.001478
17 0.001472
18 0.001472
19 0.001470
20 0.001469
21 0.001464
22 0.001456
23 0.001447
24 0.001436
25 0.001429
26 0.001420
27 0.001408
28 0.001395
29 0.001385
30 0.001374
31 0.001362
32 0.001359
33 0.001353
34 0.001346
35 0.001335
36 0.001330
37 0.001319
38 0.001306
39 0.001297
40 0.001294
41 0.001296
42 0.001294
43 0.001290
44 0.001286
45 0.001285
46 0.001279
47 0.001273
48 0.001270
49 0.001269
50 0.001265
51 0.001261
52 0.001255
53 0.001250
54 0.001242
55 0.001237
56 0.001232
57 0.001225
58 0.001217
59 0.001211
60 0.001202
61 0.001196
62 0.001187
63 0.001180
64 0.001173
65 0.001166
66 0.001164
67 0.001163
68 0.001158
69 0.001155
70 0.001151
71 0.001152
72 0.001150
73 0.001151
74 0.001156
75 0.001160
76 0.001166
77 0.001164
78 0.001160
79 0.001155
80 0.001148
81 0.001141
82 0.001132
83 0.001121
84 0.001112
85 0.001107
86 0.001096
87 0.001088
88 0.001078
89 0.001072
90 0.001068
91 0.001066
92 0.001066
93 0.001065
94 0.001066
95 0.001070
96 0.001071
97 0.001078
98 0.001081
99 0.001085
100 0.001089
101 0.001092
102 0.001089
103 0.001088
104 0.001083
105 0.001080
106 0.001070
107 0.001062
108 0.001051
109 0.001044
110 0.001032
111 0.001026
112 0.001019
113 0.001020
114 0.001015
115 0.001009
116 0.001003
117 0.001000
118 0.000998
119 0.000998
120 0.000993
121 0.000989
122 0.000986
123 0.000988
124 0.000989
125 0.000987
126 0.000984
127 0.000978
128 0.000973
129 0.000968
130 0.000964
131 0.000960
132 0.000954
133 0.000947
134 0.000939
135 0.000934
136 0.000925
137 0.000923
138 0.000915
139 0.000909
140 0.000900
141 0.000890
142 0.000881
143 0.000878
144 0.000874
145 0.000869
146 0.000865
147 0.000860
148 0.000855
149 0.000851
150 0.000845
151 0.000843
152 0.000839
153 0.000834
154 0.000829
155 0.000825
156 0.000825
157 0.000821
158 0.000822
159 0.000820
160 0.000819
161 0.000818
162 0.000811
163 0.000806
164 0.000803
165 0.000802
166 0.000800
167 0.000797
168 0.000796
169 0.000797
170 0.000794
171 0.000791
172 0.000791
173 0.000795
174 0.000799
175 0.000798
176 0.000804
177 0.000807
178 0.000805
179 0.000803
180 0.000803
181 0.000801
182 0.000795
183 0.000788
184 0.000781
185 0.000777
186 0.000767
187 0.000758
188 0.000751
189 0.000746
190 0.000745
191 0.000739
192 0.000740
193 0.000739
194 0.000737
195 0.000735
196 0.000732
197 0.000726
198 0.000722
199 0.000718
200 0.000715
201 0.000713
202 0.000711
203 0.000707
204 0.000704
205 0.000699
206 0.000700
207 0.000692
208 0.000687
209 0.000683
210 0.000687
211 0.000686
212 0.000683
213 0.000683
214 0.000682
215 0.000682
216 0.000682
217 0.000679
218 0.000680
219 0.000676
220 0.000671
221 0.000667
222 0.000669
223 0.000667
224 0.000665
225 0.000663
226 0.000664
227 0.000664
228 0.000668
229 0.000671
230 0.000671
231 0.000668
232 0.000666
233 0.000664
234 0.000661
235 0.000665
236 0.000672
237 0.000676
238 0.000678
239 0.000673
240 0.000674
241 0.000671
242 0.000669
243 0.000666
244 0.000666
245 0.000662
246 0.000659
247 0.000656
248 0.000660
249 0.000658
250 0.000656
251 0.000655
252 0.000655
253 0.000649
254 0.000642
255 0.000636
256 0.000634
257 0.000629
258 0.000625
259 0.000622
260 0.000618
261 0.000617
262 0.000616
263 0.000614
264 0.000612
265 0.000613
266 0.000613
267 0.000614
268 0.000614
269 0.000616
270 0.000617
271 0.000619
272 0.000620
273 0.000615
274 0.000615
275 0.000614
276 0.000612
277 0.000612
278 0.000613
279 0.000608
280 0.000604
281 0.000604
282 0.000607
283 0.000605
284 0.000604
285 0.000604
286 0.000601
287 0.000599
288 0.000593
289 0.000591
290 0.000590
291 0.000587
292 0.000584
293 0.000582
294 0.000580
295 0.000575
296 0.000573
297 0.000572
298 0.000576
299 0.000578
300 0.000577
301 0.000574
302 0.000572
303 0.000572
304 0.000573
305 0.000573
306 0.000565
307 0.000561
308 0.000559
309 0.000555
310 0.000550
311 0.000550
312 0.000550
313 0.000553
314 0.000554
315 0.000556
316 0.000557
317 0.000557
318 0.000555
319 0.000555
320 0.000554
321 0.000550
322 0.000543
323 0.000543
324 0.000540
325 0.000539
326 0.000537
327 0.000538
328 0.000537
329 0.000540
330 0.000541
331 0.000538
332 0.000532
333 0.000531
334 0.000531
335 0.000533
336 0.000531
337 0.000530
338 0.000528
339 0.000525
340 0.000521
341 0.000523
342 0.000523
343 0.000525
344 0.000523
345 0.000524
346 0.000523
347 0.000523
348 0.000524
349 0.000528
350 0.000529
351 0.000526
352 0.000523
353 0.000525
354 0.000522
355 0.000521
356 0.000521
357 0.000521
358 0.000516
359 0.000512
360 0.000508
361 0.000504
362 0.000501
363 0.000498
364 0.000492
365 0.000491
366 0.000496
367 0.000500
368 0.000500
369 0.000500
370 0.000499
371 0.000501
372 0.000505
373 0.000506
374 0.000509
375 0.000513
376 0.000511
377 0.000508
378 0.000503
379 0.000501
380 0.000497
381 0.000493
382 0.000489
383 0.000483
384 0.000481
385 0.000479
386 0.000478
387 0.000478
388 0.000473
389 0.000472
390 0.000470
391 0.000466
392 0.000463
393 0.000457
394 0.000455
395 0.000452
396 0.000452
397 0.000450
398 0.000448
399 0.000443
400 0.000439
401 0.000436
402 0.000435
403 0.000434
404 0.000433
405 0.000434
406 0.000437
407 0.000439
408 0.000439
409 0.000440
410 0.000438
411 0.000434
412 0.000433
413 0.000431
414 0.000428
415 0.000424
416 0.000419
417 0.000417
418 0.000415
419 0.000409
420 0.000404
421 0.000399
422 0.000399
423 0.000397
424 0.000394
425 0.000390
426 0.000391
427 0.000390
428 0.000394
429 0.000397
430 0.000404
431 0.000407
432 0.000407
433 0.000405
434 0.000403
435 0.000397
436 0.000391
437 0.000382
438 0.000375
439 0.000366
440 0.000359
441 0.000352
442 0.000346
443 0.000340
444 0.000333
445 0.000326
446 0.000324
447 0.000323
448 0.000328
449 0.000329
450 0.000334
451 0.000343
452 0.000347
453 0.000352
454 0.000352
455 0.000354
456 0.000355
457 0.000353
458 0.000357
459 0.000359
460 0.000360
461 0.000358
462 0.000360
463 0.000360
464 0.000362
465 0.000358
466 0.000357
467 0.000360
468 0.000358
469 0.000358
470 0.000355
471 0.000357
472 0.000361
473 0.000365
474 0.000369
475 0.000370
476 0.000371
477 0.000370
478 0.000371
479 0.000371
480 0.000375
481 0.000377
482 0.000377
483 0.000377
484 0.000375
485 0.000376
486 0.000374
487 0.000371
488 0.000366
489 0.000360
490 0.000353
491 0.000347
492 0.000342
493 0.000340
494 0.000338
495 0.000333
496 0.000332
497 0.000328
498 0.000325
499 0.000324
500 0.000324
501 0.000324
502 0.000320
503 0.000320
504 0.000320
505 0.000320
506 0.000320
507 0.000319
508 0.000319
509 0.000317
510 0.000313
511 0.000311
512 0.000311
513 0.000309
514 0.000309
515 0.000305
516 0.000299
517 0.000293
518 0.000289
519 0.000286
520 0.000282
521 0.000277
522 0.000276
523 0.000274
524 0.000268
525 0.000261
526 0.000258
527 0.000257
528 0.000254
529 0.000254
530 0.000255
531 0.000255
532 0.000255
533 0.000259
534 0.000261
535 0.000265
536 0.000266
537 0.000264
538 0.000260
539 0.000257
540 0.000256
541 0.000253
542 0.000247
543 0.000242
544 0.000236
545 0.000230
546 0.000222
547 0.000217
548 0.000214
549 0.000214
550 0.000213
551 0.000213
552 0.000215
553 0.000219
554 0.000224
555 0.000230
556 0.000237
557 0.000239
558 0.000237
559 0.000241
560 0.000241
561 0.000241
562 0.000239
563 0.000238
564 0.000235
565 0.000236
566 0.000238
567 0.000240
568 0.000238
569 0.000234
570 0.000231
571 0.000229
572 0.000230
573 0.000229
574 0.000228
575 0.000228
576 0.000228
577 0.000230
578 0.000230
579 0.000233
580 0.000233
581 0.000232
582 0.000233
583 0.000232
584 0.000229
585 0.000230
586 0.000231
587 0.000231
588 0.000234
589 0.000232
590 0.000233
591 0.000233
592 0.000232
593 0.000228
594 0.000222
595 0.000220
596 0.000218
597 0.000218
598 0.000219
599 0.000221
600 0.000222
601 0.000220
602 0.000220
603 0.000220
604 0.000220
605 0.000218
606 0.000212
607 0.000210
608 0.000207
609 0.000203
610 0.000198
611 0.000195
612 0.000194
613 0.000191
614 0.000187
615 0.000184
616 0.000180
617 0.000177
618 0.000172
619 0.000169
620 0.000168
621 0.000162
622 0.000158
623 0.000154
624 0.000156
625 0.000157
626 0.000152
627 0.000150
628 0.000150
629 0.000150
630 0.000147
631 0.000148
632 0.000152
633 0.000157
634 0.000161
635 0.000164
636 0.000166
637 0.000166
638 0.000166
639 0.000162
640 0.000159
641 0.000159
642 0.000154
643 0.000150
644 0.000148
645 0.000146
646 0.000145
647 0.000143
648 0.000141
649 0.000139
650 0.000136
651 0.000132
652 0.000133
653 0.000133
654 0.000135
655 0.000133
656 0.000131
657 0.000132
658 0.000131
659 0.000134
660 0.000132
661 0.000133
662 0.000133
663 0.000131
664 0.000131
665 0.000130
666 0.000131
667 0.000129
668 0.000127
669 0.000123
670 0.000121
671 0.000117
672 0.000114
673 0.000114
674 0.000115
675 0.000114
676 0.000111
677 0.000110
678 0.000112
679 0.000115
680 0.000115
681 0.000114
682 0.000114
683 0.000110
684 0.000108
685 0.000103
686 0.000103
687 0.000097
688 0.000097
689 0.000095
690 0.000093
691 0.000091
692 0.000085
693 0.000081
694 0.000076
695 0.000073
696 0.000073
697 0.000071
698 0.000071
699 0.000072
700 0.000072
701 0.000071
702 0.000073
703 0.000072
704 0.000074
705 0.000074
706 0.000072
707 0.000071
708 0.000069
709 0.000069
710 0.000068
711 0.000069
712 0.000070
713 0.000070
714 0.000070
715 0.000072
716 0.000073
717 0.000070
718 0.000066
719 0.000062
720 0.000057
721 0.000053
722 0.000052
723 0.000053
724 0.000054
725 0.000054
726 0.000050
727 0.000047
728 0.000047
729 0.000046
730 0.000046
731 0.000048
732 0.000052
733 0.000058
734 0.000061
735 0.000061
736 0.000061
737 0.000060
738 0.000059
739 0.000060
740 0.000058
741 0.000058
742 0.000058
743 0.000058
744 0.000057
745 0.000054
746 0.000051
747 0.000049
748 0.000047
749 0.000048
750 0.000048
751 0.000050
752 0.000050
753 0.000049
754 0.000046
755 0.000044
756 0.000042
757 0.000041
758 0.000039
759 0.000038
760 0.000036
761 0.000033
762 0.000029
763 0.000026
764 0.000023
765 0.000022
766 0.000019
767 0.000014
768 0.000007
769 0.000003
770 -0.000002
771 -0.000007
772 -0.000010
773 -0.000013
774 -0.000016
775 -0.000018
776 -0.000021
777 -0.000022
778 -0.000020
779 -0.000019
780 -0.000019
781 -0.000018
782 -0.000019
783 -0.000017
784 -0.000014
785 -0.000013
786 -0.000015
787 -0.000020
788 -0.000024
789 -0.000026
790 -0.000029
791 -0.000033
792 -0.000034
793 -0.000034
794 -0.000036
795 -0.000039
796 -0.000043
797 -0.000046
798 -0.000046
799 -0.000045
800 -0.000044
801 -0.000042
802 -0.000041
803 -0.000041
804 -0.000039
805 -0.000036
806 -0.000036
807 -0.000035
808 -0.000031
809 -0.000029
