# i correlation
1 0.001411
2 0.001366
3 0.001329
4 0.001300
5 0.001273
6 0.001249
7 0.001230
8 0.001216
9 0.001204
10 0.001188
11 0.001176
12 0.001167
13 0.001154
14 0.001142
15 0.001135
16 0.001132
17 0.001125
18 0.001120
19 0.001111
20 0.001106
21 0.001101
22 0.001093
23 0.001090
24 0.001084
25 0.001078
26 0.001071
27 0.001066
28 0.001061
29 0.001061
30 0.001058
31 0.001054
32 0.001046
33 0.001042
34 0.001038
35 0.001031
36 0.001026
37 0.001018
38 0.001009
39 0.001005
40 0.001000
41 0.000992
42 0.000982
43 0.000977
44 0.000969
45 0.000959
46 0.000944
47 0.000931
48 0.000922
49 0.000915
50 0.000900
51 0.000887
52 0.000878
53 0.000872
54 0.000870
55 0.000868
56 0.000866
57 0.000865
58 0.000864
59 0.000865
60 0.000868
61 0.000871
62 0.000867
63 0.000859
64 0.000850
65 0.000846
66 0.000841
67 0.000834
68 0.000832
69 0.000833
70 0.000831
71 0.000826
72 0.000825
73 0.000825
74 0.000826
75 0.000821
76 0.000813
77 0.000809
78 0.000806
79 0.000805
80 0.000803
81 0.000797
82 0.000792
83 0.000787
84 0.000783
85 0.000774
86 0.000766
87 0.000756
88 0.000749
89 0.000742
90 0.000737
91 0.000731
92 0.000727
93 0.000724
94 0.000723
95 0.000722
96 0.000721
97 0.000724
98 0.000728
99 0.000733
100 0.000738
101 0.000744
102 0.000748
103 0.000754
104 0.000759
105 0.000760
106 0.000758
107 0.000750
108 0.000746
109 0.000746
110 0.000747
111 0.000743
112 0.000735
113 0.000732
114 0.000728
115 0.000721
116 0.000713
117 0.000710
118 0.000711
119 0.000712
120 0.000715
121 0.000717
122 0.000716
123 0.000712
124 0.000705
125 0.000695
126 0.000687
127 0.000680
128 0.000675
129 0.000672
130 0.000673
131 0.000673
132 0.000672
133 0.000673
134 0.000672
135 0.000672
136 0.000668
137 0.000663
138 0.000660
139 0.000658
140 0.000659
141 0.000658
142 0.000657
143 0.000659
144 0.000660
145 0.000659
146 0.000656
147 0.000655
148 0.000650
149 0.000645
150 0.000636
151 0.000626
152 0.000618
153 0.000612
154 0.000608
155 0.000600
156 0.000591
157 0.000585
158 0.000584
159 0.000581
160 0.000579
161 0.000578
162 0.000578
163 0.000581
164 0.000582
165 0.000584
166 0.000584
167 0.000586
168 0.000583
169 0.000579
170 0.000572
171 0.000565
172 0.000557
173 0.000548
174 0.000543
175 0.000541
176 0.000538
177 0.000537
178 0.000536
179 0.000538
180 0.000542
181 0.000540
182 0.000536
183 0.000534
184 0.000531
185 0.000526
186 0.000518
187 0.000510
188 0.000508
189 0.000506
190 0.000506
191 0.000506
192 0.000510
193 0.000508
194 0.000503
195 0.000497
196 0.000496
197 0.000495
198 0.000494
199 0.000494
200 0.000497
201 0.000503
202 0.000503
203 0.000502
204 0.000500
205 0.000499
206 0.000502
207 0.000505
208 0.000506
209 0.000508
210 0.000507
211 0.000508
212 0.000510
213 0.000511
214 0.000510
215 0.000508
216 0.000505
217 0.000504
218 0.000504
219 0.000503
220 0.000499
221 0.000498
222 0.000499
223 0.000504
224 0.000508
225 0.000509
226 0.000509
227 0.000512
228 0.000514
229 0.000514
230 0.000512
231 0.000507
232 0.000505
233 0.000499
234 0.000492
235 0.000488
236 0.000488
237 0.000488
238 0.000488
239 0.000488
240 0.000492
241 0.000496
242 0.000496
243 0.000496
244 0.000497
245 0.000502
246 0.000505
247 0.000502
248 0.000499
249 0.000495
250 0.000494
251 0.000493
252 0.000492
253 0.000497
254 0.000499
255 0.000495
256 0.000490
257 0.000486
258 0.000483
259 0.000482
260 0.000479
261 0.000479
262 0.000479
263 0.000479
264 0.000480
265 0.000479
266 0.000477
267 0.000477
268 0.000485
269 0.000491
270 0.000494
271 0.000494
272 0.000496
273 0.000498
274 0.000500
275 0.000502
276 0.000504
277 0.000504
278 0.000503
279 0.000500
280 0.000499
281 0.000496
282 0.000491
283 0.000483
284 0.000478
285 0.000473
286 0.000472
287 0.000469
288 0.000466
289 0.000461
290 0.000456
291 0.000446
292 0.000438
293 0.000435
294 0.000432
295 0.000432
296 0.000431
297 0.000431
298 0.000428
299 0.000421
300 0.000414
301 0.000412
302 0.000410
303 0.000405
304 0.000397
305 0.000391
306 0.000384
307 0.000381
308 0.000376
309 0.000369
310 0.000363
311 0.000358
312 0.000352
313 0.000349
314 0.000351
315 0.000351
316 0.000348
317 0.000344
318 0.000339
319 0.000334
320 0.000330
321 0.000328
322 0.000329
323 0.000328
324 0.000327
325 0.000326
326 0.000325
327 0.000325
328 0.000324
329 0.000321
330 0.000321
331 0.000319
332 0.000317
333 0.000319
334 0.000320
335 0.000319
336 0.000317
337 0.000320
338 0.000324
339 0.000324
340 0.000319
341 0.000316
342 0.000318
343 0.000317
344 0.000316
345 0.000316
346 0.000319
347 0.000318
348 0.000317
349 0.000317
350 0.000322
351 0.000326
352 0.000326
353 0.000324
354 0.000326
355 0.000329
356 0.000331
357 0.000332
358 0.000335
359 0.000334
360 0.000334
361 0.000333
362 0.000335
363 0.000338
364 0.000340
365 0.000338
366 0.000339
367 0.000339
368 0.000341
369 0.000341
370 0.000341
371 0.000343
372 0.000344
373 0.000346
374 0.000346
375 0.000343
376 0.000343
377 0.000342
378 0.000341
379 0.000337
380 0.000335
381 0.000332
382 0.000334
383 0.000333
384 0.000330
385 0.000327
386 0.000322
387 0.000320
388 0.000316
389 0.000314
390 0.000312
391 0.000313
392 0.000311
393 0.000308
394 0.000309
395 0.000309
396 0.000307
397 0.000306
398 0.000310
399 0.000317
400 0.000321
401 0.000322
402 0.000319
403 0.000318
404 0.000316
405 0.000312
406 0.000312
407 0.000317
408 0.000324
409 0.000325
410 0.000323
411 0.000326
412 0.000327
413 0.000326
414 0.000319
415 0.000315
416 0.000312
417 0.000307
418 0.000304
419 0.000303
420 0.000304
421 0.000303
422 0.000301
423 0.000302
424 0.000301
425 0.000302
426 0.000301
427 0.000299
428 0.000301
429 0.000302
430 0.000301
431 0.000301
432 0.000299
433 0.000297
434 0.000295
435 0.000295
436 0.000295
437 0.000296
438 0.000298
439 0.000296
440 0.000291
441 0.000288
442 0.000288
443 0.000289
444 0.000290
445 0.000288
446 0.000286
447 0.000283
448 0.000282
449 0.000281
450 0.000279
451 0.000277
452 0.000278
453 0.000278
454 0.000278
455 0.000277
456 0.000277
457 0.000277
458 0.000275
459 0.000275
460 0.000277
461 0.000279
462 0.000281
463 0.000279
464 0.000278
465 0.000279
466 0.000278
467 0.000277
468 0.000279
469 0.000282
470 0.000282
471 0.000278
472 0.000278
473 0.000276
474 0.000277
475 0.000276
476 0.000274
477 0.000271
478 0.000272
479 0.000270
480 0.000269
481 0.000271
482 0.000277
483 0.000280
484 0.000281
485 0.000282
486 0.000284
487 0.000287
488 0.000288
489 0.000282
490 0.000276
491 0.000271
492 0.000266
493 0.000264
494 0.000259
495 0.000258
496 0.000257
497 0.000259
498 0.000260
499 0.000264
500 0.000263
501 0.000263
502 0.000263
503 0.000265
504 0.000269
505 0.000274
506 0.000275
507 0.000277
508 0.000276
509 0.000277
510 0.000276
511 0.000272
512 0.000268
513 0.000264
514 0.000263
515 0.000261
516 0.000259
517 0.000260
518 0.000262
519 0.000260
520 0.000258
521 0.000259
522 0.000260
523 0.000261
524 0.000258
525 0.000252
526 0.000248
527 0.000244
528 0.000240
529 0.000236
530 0.000234
531 0.000232
532 0.000231
533 0.000232
534 0.000235
535 0.000235
536 0.000232
537 0.000230
538 0.000228
539 0.000229
540 0.000230
541 0.000233
542 0.000237
543 0.000244
544 0.000250
545 0.000253
546 0.000258
547 0.000263
548 0.000267
549 0.000268
550 0.000265
551 0.000264
552 0.000264
553 0.000263
554 0.000262
555 0.000262
556 0.000261
557 0.000261
558 0.000261
559 0.000259
560 0.000254
561 0.000250
562 0.000247
563 0.000246
564 0.000247
565 0.000246
566 0.000245
567 0.000245
568 0.000245
569 0.000246
570 0.000248
571 0.000247
572 0.000244
573 0.000242
574 0.000239
575 0.000240
576 0.000242
577 0.000243
578 0.000245
579 0.000249
580 0.000252
581 0.000252
582 0.000252
583 0.000253
584 0.000250
585 0.000246
586 0.000243
587 0.000240
588 0.000236
589 0.000231
590 0.000226
591 0.000225
592 0.000224
593 0.000221
594 0.000214
595 0.000210
596 0.000208
597 0.000204
598 0.000199
599 0.000192
600 0.000187
601 0.000183
602 0.000179
603 0.000178
604 0.000177
605 0.000175
606 0.000173
607 0.000172
608 0.000175
609 0.000178
610 0.000178
611 0.000177
612 0.000180
613 0.000180
614 0.000181
615 0.000181
616 0.000182
617 0.000182
618 0.000182
619 0.000184
620 0.000185
621 0.000186
622 0.000185
623 0.000188
624 0.000192
625 0.000196
626 0.000198
627 0.000200
628 0.000200
629 0.000197
630 0.000196
631 0.000193
632 0.000190
633 0.000185
634 0.000179
635 0.000177
636 0.000176
637 0.000175
638 0.000174
639 0.000173
640 0.000172
641 0.000171
642 0.000171
643 0.000168
644 0.000169
645 0.000171
646 0.000172
647 0.000173
648 0.000175
649 0.000175
650 0.000175
651 0.000174
652 0.000177
653 0.000181
654 0.000183
655 0.000183
656 0.000181
657 0.000178
658 0.000173
659 0.000168
660 0.000161
661 0.000158
662 0.000156
663 0.000154
664 0.000152
665 0.000151
666 0.000152
667 0.000153
668 0.000154
669 0.000151
670 0.000146
671 0.000141
672 0.000134
673 0.000129
674 0.000125
675 0.000122
676 0.000122
677 0.000122
678 0.000122
679 0.000125
680 0.000128
681 0.000133
682 0.000135
683 0.000135
684 0.000136
685 0.000137
686 0.000137
687 0.000139
688 0.000142
689 0.000145
690 0.000146
691 0.000146
692 0.000146
693 0.000145
694 0.000142
695 0.000139
696 0.000139
697 0.000142
698 0.000143
699 0.000142
700 0.000142
701 0.000140
702 0.000138
703 0.000133
704 0.000129
705 0.000125
706 0.000124
707 0.000123
708 0.000122
709 0.000121
710 0.000123
711 0.000124
712 0.000125
713 0.000126
714 0.000126
715 0.000128
716 0.000132
717 0.000133
718 0.000133
719 0.000128
720 0.000125
721 0.000122
722 0.000121
723 0.000119
724 0.000119
725 0.000122
726 0.000128
727 0.000134
728 0.000138
729 0.000144
730 0.000148
731 0.000149
732 0.000147
733 0.000148
734 0.000147
735 0.000147
736 0.000149
737 0.000150
738 0.000151
739 0.000151
740 0.000149
741 0.000148
742 0.000145
743 0.000140
744 0.000136
745 0.000138
746 0.000141
747 0.000144
748 0.000145
749 0.000146
750 0.000149
751 0.000148
752 0.000146
753 0.000143
754 0.000140
755 0.000139
756 0.000140
757 0.000142
758 0.000145
759 0.000148
760 0.000150
761 0.000151
762 0.000149
763 0.000146
764 0.000140
765 0.000136
766 0.000132
767 0.000129
768 0.000125
769 0.000122
770 0.000120
771 0.000119
772 0.000116
773 0.000112
774 0.000108
775 0.000106
776 0.000105
777 0.000106
778 0.000105
779 0.000106
780 0.000106
781 0.000107
782 0.000106
783 0.000106
784 0.000107
785 0.000108
786 0.000110
787 0.000112
788 0.000113
789 0.000114
790 0.000115
791 0.000115
792 0.000114
793 0.000113
794 0.000113
795 0.000112
796 0.000110
797 0.000106
798 0.000102
799 0.000098
800 0.000096
801 0.000092
802 0.000090
803 0.000086
804 0.000082
805 0.000079
806 0.000073
807 0.000066
808 0.000061
809 0.000057
