# i correlation
1 0.001843
2 0.001800
3 0.001765
4 0.001735
5 0.001707
6 0.001677
7 0.001655
8 0.001634
9 0.001617
10 0.001599
11 0.001583
12 0.001569
13 0.001555
14 0.001543
15 0.001527
16 0.001512
17 0.001499
18 0.001486
19 0.001477
20 0.001471
21 0.001464
22 0.001456
23 0.001447
24 0.001441
25 0.001435
26 0.001432
27 0.001428
28 0.001425
29 0.001423
30 0.001422
31 0.001421
32 0.001423
33 0.001424
34 0.001421
35 0.001420
36 0.001417
37 0.001417
38 0.001414
39 0.001407
40 0.001400
41 0.001393
42 0.001385
43 0.001376
44 0.001363
45 0.001349
46 0.001337
47 0.001321
48 0.001304
49 0.001287
50 0.001269
51 0.001255
52 0.001245
53 0.001238
54 0.001233
55 0.001233
56 0.001233
57 0.001234
58 0.001232
59 0.001230
60 0.001227
61 0.001222
62 0.001218
63 0.001211
64 0.001206
65 0.001198
66 0.001194
67 0.001190
68 0.001187
69 0.001186
70 0.001186
71 0.001185
72 0.001183
73 0.001180
74 0.001174
75 0.001172
76 0.001170
77 0.001166
78 0.001164
79 0.001158
80 0.001149
81 0.001143
82 0.001136
83 0.001128
84 0.001122
85 0.001123
86 0.001122
87 0.001121
88 0.001122
89 0.001119
90 0.001114
91 0.001104
92 0.001100
93 0.001093
94 0.001085
95 0.001078
96 0.001072
97 0.001066
98 0.001062
99 0.001062
100 0.001059
101 0.001055
102 0.001051
103 0.001046
104 0.001041
105 0.001037
106 0.001035
107 0.001030
108 0.001022
109 0.001014
110 0.001011
111 0.001009
112 0.001006
113 0.001006
114 0.001004
115 0.001002
116 0.000998
117 0.000992
118 0.000994
119 0.000996
120 0.000995
121 0.000993
122 0.000989
123 0.000986
124 0.000982
125 0.000980
126 0.000979
127 0.000981
128 0.000982
129 0.000978
130 0.000975
131 0.000976
132 0.000975
133 0.000974
134 0.000970
135 0.000964
136 0.000960
137 0.000951
138 0.000942
139 0.000932
140 0.000921
141 0.000912
142 0.000908
143 0.000905
144 0.000904
145 0.000904
146 0.000901
147 0.000898
148 0.000889
149 0.000882
150 0.000878
151 0.000875
152 0.000871
153 0.000866
154 0.000858
155 0.000850
156 0.000842
157 0.000832
158 0.000824
159 0.000820
160 0.000820
161 0.000818
162 0.000818
163 0.000820
164 0.000823
165 0.000824
166 0.000821
167 0.000817
168 0.000812
169 0.000809
170 0.000809
171 0.000811
172 0.000815
173 0.000814
174 0.000813
175 0.000812
176 0.000807
177 0.000801
178 0.000796
179 0.000787
180 0.000778
181 0.000772
182 0.000771
183 0.000766
184 0.000762
185 0.000760
186 0.000758
187 0.000759
188 0.000758
189 0.000759
190 0.000756
191 0.000754
192 0.000749
193 0.000745
194 0.000741
195 0.000737
196 0.000733
197 0.000732
198 0.000733
199 0.000737
200 0.000740
201 0.000743
202 0.000748
203 0.000754
204 0.000757
205 0.000758
206 0.000758
207 0.000759
208 0.000761
209 0.000767
210 0.000767
211 0.000765
212 0.000768
213 0.000770
214 0.000767
215 0.000766
216 0.000764
217 0.000764
218 0.000758
219 0.000754
220 0.000747
221 0.000741
222 0.000735
223 0.000730
224 0.000728
225 0.000721
226 0.000715
227 0.000704
228 0.000698
229 0.000687
230 0.000678
231 0.000672
232 0.000669
233 0.000667
234 0.000663
235 0.000659
236 0.000651
237 0.000646
238 0.000643
239 0.000642
240 0.000644
241 0.000648
242 0.000653
243 0.000654
244 0.000654
245 0.000660
246 0.000666
247 0.000672
248 0.000675
249 0.000682
250 0.000688
251 0.000691
252 0.000695
253 0.000696
254 0.000697
255 0.000693
256 0.000690
257 0.000690
258 0.000689
259 0.000691
260 0.000697
261 0.000699
262 0.000699
263 0.000701
264 0.000704
265 0.000706
266 0.000705
267 0.000704
268 0.000702
269 0.000704
270 0.000704
271 0.000703
272 0.000702
273 0.000697
274 0.000696
275 0.000693
276 0.000690
277 0.000688
278 0.000690
279 0.000696
280 0.000701
281 0.000706
282 0.000711
283 0.000714
284 0.000715
285 0.000715
286 0.000718
287 0.000719
288 0.000722
289 0.000726
290 0.000730
291 0.000734
292 0.000734
293 0.000735
294 0.000735
295 0.000731
296 0.000728
297 0.000725
298 0.000720
299 0.000715
300 0.000711
301 0.000709
302 0.000708
303 0.000708
304 0.000706
305 0.000705
306 0.000703
307 0.000698
308 0.000690
309 0.000686
310 0.000680
311 0.000676
312 0.000672
313 0.000665
314 0.000662
315 0.000658
316 0.000657
317 0.000654
318 0.000653
319 0.000650
320 0.000648
321 0.000645
322 0.000644
323 0.000647
324 0.000650
325 0.000653
326 0.000653
327 0.000658
328 0.000661
329 0.000661
330 0.000661
331 0.000658
332 0.000655
333 0.000650
334 0.000646
335 0.000642
336 0.000640
337 0.000639
338 0.000639
339 0.000640
340 0.000638
341 0.000631
342 0.000626
343 0.000616
344 0.000609
345 0.000600
346 0.000593
347 0.000588
348 0.000584
349 0.000582
350 0.000579
351 0.000574
352 0.000573
353 0.000576
354 0.000575
355 0.000573
356 0.000569
357 0.000563
358 0.000558
359 0.000556
360 0.000558
361 0.000559
362 0.000559
363 0.000557
364 0.000559
365 0.000559
366 0.000558
367 0.000559
368 0.000557
369 0.000556
370 0.000553
371 0.000554
372 0.000554
373 0.000554
374 0.000552
375 0.000553
376 0.000552
377 0.000549
378 0.000546
379 0.000542
380 0.000536
381 0.000533
382 0.000530
383 0.000524
384 0.000523
385 0.000524
386 0.000523
387 0.000520
388 0.000521
389 0.000519
390 0.000519
391 0.000521
392 0.000520
393 0.000523
394 0.000525
395 0.000526
396 0.000524
397 0.000522
398 0.000520
399 0.000522
400 0.000523
401 0.000523
402 0.000523
403 0.000521
404 0.000521
405 0.000522
406 0.000525
407 0.000527
408 0.000526
409 0.000526
410 0.000526
411 0.000525
412 0.000524
413 0.000526
414 0.000526
415 0.000527
416 0.000525
417 0.000524
418 0.000521
419 0.000520
420 0.000517
421 0.000513
422 0.000514
423 0.000514
424 0.000515
425 0.000520
426 0.000522
427 0.000522
428 0.000520
429 0.000518
430 0.000515
431 0.000512
432 0.000513
433 0.000512
434 0.000511
435 0.000509
436 0.000507
437 0.000503
438 0.000497
439 0.000494
440 0.000491
441 0.000485
442 0.000481
443 0.000477
444 0.000471
445 0.000466
446 0.000462
447 0.000459
448 0.000456
449 0.000453
450 0.000447
451 0.000437
452 0.000430
453 0.000427
454 0.000425
455 0.000421
456 0.000418
457 0.000416
458 0.000413
459 0.000412
460 0.000411
461 0.000411
462 0.000408
463 0.000407
464 0.000405
465 0.000400
466 0.000400
467 0.000401
468 0.000401
469 0.000406
470 0.000412
471 0.000415
472 0.000414
473 0.000413
474 0.000412
475 0.000411
476 0.000408
477 0.000403
478 0.000400
479 0.000398
480 0.000393
481 0.000389
482 0.000386
483 0.000383
484 0.000379
485 0.000373
486 0.000365
487 0.000360
488 0.000358
489 0.000356
490 0.000352
491 0.000350
492 0.000351
493 0.000350
494 0.000350
495 0.000349
496 0.000345
497 0.000340
498 0.000334
499 0.000328
500 0.000323
501 0.000318
502 0.000317
503 0.000318
504 0.000317
505 0.000316
506 0.000313
507 0.000312
508 0.000310
509 0.000306
510 0.000304
511 0.000302
512 0.000303
513 0.000305
514 0.000308
515 0.000310
516 0.000309
517 0.000308
518 0.000306
519 0.000303
520 0.000298
521 0.000297
522 0.000296
523 0.000289
524 0.000285
525 0.000282
526 0.000279
527 0.000279
528 0.000280
529 0.000282
530 0.000282
531 0.000286
532 0.000290
533 0.000293
534 0.000294
535 0.000300
536 0.000305
537 0.000311
538 0.000318
539 0.000321
540 0.000325
541 0.000325
542 0.000325
543 0.000326
544 0.000326
545 0.000327
546 0.000329
547 0.000331
548 0.000332
549 0.000333
550 0.000331
551 0.000332
552 0.000333
553 0.000334
554 0.000333
555 0.000334
556 0.000334
557 0.000334
558 0.000333
559 0.000331
560 0.000331
561 0.000331
562 0.000329
563 0.000328
564 0.000327
565 0.000323
566 0.000320
567 0.000316
568 0.000314
569 0.000310
570 0.000308
571 0.000305
572 0.000303
573 0.000303
574 0.000304
575 0.000304
576 0.000304
577 0.000306
578 0.000308
579 0.000307
580 0.000307
581 0.000310
582 0.000309
583 0.000307
584 0.000307
585 0.000304
586 0.000298
587 0.000293
588 0.000290
589 0.000290
590 0.000289
591 0.000288
592 0.000290
593 0.000293
594 0.000297
595 0.000300
596 0.000298
597 0.000298
598 0.000296
599 0.000293
600 0.000289
601 0.000284
602 0.000283
603 0.000281
604 0.000279
605 0.000275
606 0.000270
607 0.000267
608 0.000267
609 0.000265
610 0.000261
611 0.000253
612 0.000246
613 0.000242
614 0.000243
615 0.000242
616 0.000242
617 0.000244
618 0.000245
619 0.000246
620 0.000246
621 0.000248
622 0.000249
623 0.000249
624 0.000249
625 0.000248
626 0.000249
627 0.000247
628 0.000246
629 0.000244
630 0.000244
631 0.000244
632 0.000243
633 0.000241
634 0.000243
635 0.000248
636 0.000252
637 0.000252
638 0.000251
639 0.000251
640 0.000250
641 0.000252
642 0.000252
643 0.000249
644 0.000247
645 0.000247
646 0.000247
647 0.000244
648 0.000243
649 0.000241
650 0.000236
651 0.000232
652 0.000227
653 0.000226
654 0.000225
655 0.000221
656 0.000219
657 0.000218
658 0.000221
659 0.000223
660 0.000224
661 0.000222
662 0.000220
663 0.000215
664 0.000213
665 0.000215
666 0.000217
667 0.000220
668 0.000220
669 0.000222
670 0.000222
671 0.000222
672 0.000222
673 0.000221
674 0.000223
675 0.000222
676 0.000223
677 0.000222
678 0.000222
679 0.000225
680 0.000228
681 0.000230
682 0.000231
683 0.000233
684 0.000235
685 0.000236
686 0.000239
687 0.000240
688 0.000241
689 0.000242
690 0.000240
691 0.000242
692 0.000243
693 0.000243
694 0.000244
695 0.000243
696 0.000243
697 0.000242
698 0.000237
699 0.000230
700 0.000226
701 0.000221
702 0.000219
703 0.000215
704 0.000211
705 0.000205
706 0.000203
707 0.000202
708 0.000203
709 0.000203
710 0.000200
711 0.000198
712 0.000196
713 0.000196
714 0.000195
715 0.000194
716 0.000194
717 0.000194
718 0.000193
719 0.000192
720 0.000191
721 0.000190
722 0.000189
723 0.000187
724 0.000186
725 0.000185
726 0.000187
727 0.000191
728 0.000193
729 0.000198
730 0.000202
731 0.000205
732 0.000203
733 0.000202
734 0.000202
735 0.000201
736 0.000200
737 0.000197
738 0.000196
739 0.000192
740 0.000191
741 0.000189
742 0.000184
743 0.000178
744 0.000172
745 0.000169
746 0.000165
747 0.000159
748 0.000156
749 0.000156
750 0.000156
751 0.000155
752 0.000153
753 0.000152
754 0.000152
755 0.000153
756 0.000150
757 0.000149
758 0.000144
759 0.000142
760 0.000142
761 0.000142
762 0.000142
763 0.000144
764 0.000149
765 0.000151
766 0.000154
767 0.000156
768 0.000156
769 0.000155
770 0.000150
771 0.000146
772 0.000146
773 0.000145
774 0.000139
775 0.000133
776 0.000127
777 0.000122
778 0.000117
779 0.000112
780 0.000107
781 0.000105
782 0.000101
783 0.000093
784 0.000085
785 0.000081
786 0.000079
787 0.000078
788 0.000076
789 0.000071
790 0.000066
791 0.000061
792 0.000057
793 0.000055
794 0.000051
795 0.000047
796 0.000044
797 0.000042
798 0.000040
799 0.000038
800 0.000036
801 0.000033
802 0.000033
803 0.000030
804 0.000026
805 0.000022
806 0.000018
807 0.000018
808 0.000019
809 0.000019
