# i correlation
1 0.001828
2 0.001788
3 0.001752
4 0.001718
5 0.001687
6 0.001662
7 0.001642
8 0.001625
9 0.001611
10 0.001592
11 0.001578
12 0.001563
13 0.001545
14 0.001531
15 0.001517
16 0.001508
17 0.001498
18 0.001493
19 0.001487
20 0.001481
21 0.001475
22 0.001468
23 0.001462
24 0.001460
25 0.001454
26 0.001447
27 0.001443
28 0.001436
29 0.001430
30 0.001427
31 0.001427
32 0.001427
33 0.001425
34 0.001422
35 0.001419
36 0.001410
37 0.001400
38 0.001387
39 0.001374
40 0.001361
41 0.001350
42 0.001340
43 0.001335
44 0.001328
45 0.001325
46 0.001321
47 0.001317
48 0.001311
49 0.001308
50 0.001304
51 0.001300
52 0.001298
53 0.001295
54 0.001293
55 0.001288
56 0.001289
57 0.001287
58 0.001283
59 0.001280
60 0.001276
61 0.001270
62 0.001261
63 0.001249
64 0.001242
65 0.001237
66 0.001232
67 0.001231
68 0.001232
69 0.001237
70 0.001238
71 0.001238
72 0.001234
73 0.001231
74 0.001225
75 0.001221
76 0.001219
77 0.001217
78 0.001221
79 0.001221
80 0.001224
81 0.001226
82 0.001226
83 0.001222
84 0.001224
85 0.001223
86 0.001221
87 0.001219
88 0.001216
89 0.001213
90 0.001210
91 0.001209
92 0.001209
93 0.001204
94 0.001198
95 0.001188
96 0.001180
97 0.001173
98 0.001167
99 0.001161
100 0.001156
101 0.001147
102 0.001143
103 0.001138
104 0.001127
105 0.001121
106 0.001118
107 0.001113
108 0.001103
109 0.001092
110 0.001079
111 0.001068
112 0.001057
113 0.001050
114 0.001042
115 0.001040
116 0.001038
117 0.001038
118 0.001041
119 0.001039
120 0.001034
121 0.001031
122 0.001023
123 0.001019
124 0.001016
125 0.001013
126 0.001009
127 0.001011
128 0.001009
129 0.001012
130 0.001018
131 0.001017
132 0.001015
133 0.001013
134 0.001012
135 0.001008
136 0.001005
137 0.001005
138 0.001008
139 0.001007
140 0.001008
141 0.001005
142 0.000996
143 0.000989
144 0.000978
145 0.000968
146 0.000960
147 0.000950
148 0.000942
149 0.000944
150 0.000945
151 0.000944
152 0.000943
153 0.000941
154 0.000937
155 0.000929
156 0.000921
157 0.000913
158 0.000910
159 0.000911
160 0.000916
161 0.000922
162 0.000928
163 0.000932
164 0.000933
165 0.000932
166 0.000929
167 0.000927
168 0.000925
169 0.000927
170 0.000927
171 0.000925
172 0.000925
173 0.000924
174 0.000922
175 0.000918
176 0.000915
177 0.000912
178 0.000911
179 0.000905
180 0.000899
181 0.000891
182 0.000884
183 0.000881
184 0.000880
185 0.000876
186 0.000877
187 0.000879
188 0.000878
189 0.000874
190 0.000867
191 0.000860
192 0.000854
193 0.000848
194 0.000845
195 0.000842
196 0.000843
197 0.000841
198 0.000842
199 0.000843
200 0.000845
201 0.000841
202 0.000836
203 0.000832
204 0.000826
205 0.000823
206 0.000819
207 0.000817
208 0.000814
209 0.000810
210 0.000808
211 0.000805
212 0.000800
213 0.000797
214 0.000792
215 0.000788
216 0.000782
217 0.000775
218 0.000769
219 0.000765
220 0.000761
221 0.000760
222 0.000764
223 0.000763
224 0.000759
225 0.000755
226 0.000752
227 0.000748
228 0.000746
229 0.000744
230 0.000742
231 0.000743
232 0.000738
233 0.000735
234 0.000731
235 0.000728
236 0.000728
237 0.000724
238 0.000725
239 0.000724
240 0.000727
241 0.000729
242 0.000732
243 0.000735
244 0.000729
245 0.000725
246 0.000720
247 0.000718
248 0.000716
249 0.000712
250 0.000708
251 0.000700
252 0.000697
253 0.000691
254 0.000689
255 0.000686
256 0.000688
257 0.000687
258 0.000688
259 0.000691
260 0.000692
261 0.000693
262 0.000692
263 0.000693
264 0.000691
265 0.000689
266 0.000683
267 0.000680
268 0.000678
269 0.000677
270 0.000677
271 0.000677
272 0.000678
273 0.000678
274 0.000682
275 0.000684
276 0.000685
277 0.000684
278 0.000685
279 0.000686
280 0.000681
281 0.000676
282 0.000669
283 0.000663
284 0.000657
285 0.000651
286 0.000648
287 0.000650
288 0.000648
289 0.000644
290 0.000644
291 0.000644
292 0.000644
293 0.000647
294 0.000642
295 0.000639
296 0.000635
297 0.000630
298 0.000624
299 0.000624
300 0.000624
301 0.000625
302 0.000629
303 0.000633
304 0.000633
305 0.000637
306 0.000640
307 0.000641
308 0.000638
309 0.000638
310 0.000637
311 0.000635
312 0.000632
313 0.000630
314 0.000628
315 0.000622
316 0.000618
317 0.000616
318 0.000611
319 0.000606
320 0.000601
321 0.000597
322 0.000595
323 0.000595
324 0.000592
325 0.000591
326 0.000586
327 0.000583
328 0.000586
329 0.000586
330 0.000587
331 0.000582
332 0.000578
333 0.000576
334 0.000577
335 0.000578
336 0.000579
337 0.000582
338 0.000585
339 0.000584
340 0.000585
341 0.000590
342 0.000593
343 0.000592
344 0.000593
345 0.000596
346 0.000598
347 0.000599
348 0.000600
349 0.000604
350 0.000602
351 0.000594
352 0.000587
353 0.000580
354 0.000572
355 0.000564
356 0.000564
357 0.000562
358 0.000560
359 0.000561
360 0.000565
361 0.000566
362 0.000565
363 0.000567
364 0.000566
365 0.000571
366 0.000573
367 0.000572
368 0.000572
369 0.000570
370 0.000564
371 0.000562
372 0.000559
373 0.000556
374 0.000553
375 0.000554
376 0.000555
377 0.000559
378 0.000560
379 0.000557
380 0.000556
381 0.000558
382 0.000559
383 0.000560
384 0.000562
385 0.000564
386 0.000563
387 0.000560
388 0.000552
389 0.000547
390 0.000541
391 0.000536
392 0.000535
393 0.000536
394 0.000538
395 0.000540
396 0.000541
397 0.000538
398 0.000533
399 0.000528
400 0.000523
401 0.000519
402 0.000518
403 0.000516
404 0.000513
405 0.000514
406 0.000516
407 0.000514
408 0.000517
409 0.000521
410 0.000523
411 0.000525
412 0.000528
413 0.000528
414 0.000531
415 0.000528
416 0.000526
417 0.000524
418 0.000520
419 0.000518
420 0.000515
421 0.000513
422 0.000511
423 0.000509
424 0.000504
425 0.000502
426 0.000502
427 0.000506
428 0.000511
429 0.000513
430 0.000517
431 0.000515
432 0.000513
433 0.000511
434 0.000509
435 0.000505
436 0.000502
437 0.000503
438 0.000504
439 0.000500
440 0.000497
441 0.000498
442 0.000496
443 0.000498
444 0.000495
445 0.000495
446 0.000493
447 0.000493
448 0.000494
449 0.000491
450 0.000486
451 0.000482
452 0.000479
453 0.000476
454 0.000473
455 0.000471
456 0.000471
457 0.000470
458 0.000467
459 0.000465
460 0.000461
461 0.000458
462 0.000462
463 0.000467
464 0.000470
465 0.000474
466 0.000476
467 0.000479
468 0.000480
469 0.000477
470 0.000473
471 0.000469
472 0.000464
473 0.000459
474 0.000457
475 0.000456
476 0.000454
477 0.000451
478 0.000452
479 0.000453
480 0.000452
481 0.000452
482 0.000448
483 0.000450
484 0.000453
485 0.000452
486 0.000452
487 0.000454
488 0.000454
489 0.000454
490 0.000456
491 0.000454
492 0.000452
493 0.000446
494 0.000438
495 0.000431
496 0.000423
497 0.000417
498 0.000413
499 0.000411
500 0.000409
501 0.000409
502 0.000410
503 0.000411
504 0.000409
505 0.000407
506 0.000404
507 0.000401
508 0.000401
509 0.000400
510 0.000400
511 0.000399
512 0.000401
513 0.000401
514 0.000403
515 0.000408
516 0.000413
517 0.000417
518 0.000418
519 0.000421
520 0.000421
521 0.000422
522 0.000422
523 0.000420
524 0.000421
525 0.000420
526 0.000418
527 0.000417
528 0.000412
529 0.000408
530 0.000403
531 0.000397
532 0.000391
533 0.000389
534 0.000385
535 0.000387
536 0.000389
537 0.000388
538 0.000388
539 0.000388
540 0.000384
541 0.000381
542 0.000376
543 0.000373
544 0.000374
545 0.000379
546 0.000384
547 0.000391
548 0.000399
549 0.000405
550 0.000410
551 0.000416
552 0.000422
553 0.000425
554 0.000427
555 0.000430
556 0.000433
557 0.000435
558 0.000435
559 0.000438
560 0.000436
561 0.000435
562 0.000429
563 0.000426
564 0.000422
565 0.000420
566 0.000419
567 0.000417
568 0.000417
569 0.000413
570 0.000410
571 0.000410
572 0.000413
573 0.000413
574 0.000410
575 0.000407
576 0.000405
577 0.000402
578 0.000402
579 0.000399
580 0.000398
581 0.000398
582 0.000397
583 0.000395
584 0.000394
585 0.000390
586 0.000385
587 0.000381
588 0.000379
589 0.000378
590 0.000376
591 0.000371
592 0.000368
593 0.000365
594 0.000361
595 0.000356
596 0.000353
597 0.000353
598 0.000353
599 0.000353
600 0.000352
601 0.000348
602 0.000347
603 0.000346
604 0.000344
605 0.000346
606 0.000350
607 0.000355
608 0.000360
609 0.000361
610 0.000361
611 0.000358
612 0.000353
613 0.000347
614 0.000341
615 0.000333
616 0.000329
617 0.000324
618 0.000317
619 0.000314
620 0.000309
621 0.000308
622 0.000303
623 0.000302
624 0.000300
625 0.000299
626 0.000296
627 0.000295
628 0.000295
629 0.000293
630 0.000293
631 0.000291
632 0.000290
633 0.000289
634 0.000287
635 0.000286
636 0.000287
637 0.000290
638 0.000294
639 0.000297
640 0.000299
641 0.000303
642 0.000307
643 0.000309
644 0.000312
645 0.000318
646 0.000321
647 0.000324
648 0.000325
649 0.000324
650 0.000324
651 0.000325
652 0.000327
653 0.000326
654 0.000324
655 0.000322
656 0.000321
657 0.000318
658 0.000317
659 0.000318
660 0.000315
661 0.000310
662 0.000306
663 0.000301
664 0.000297
665 0.000292
666 0.000289
667 0.000283
668 0.000277
669 0.000271
670 0.000267
671 0.000262
672 0.000253
673 0.000245
674 0.000236
675 0.000231
676 0.000226
677 0.000224
678 0.000224
679 0.000224
680 0.000222
681 0.000218
682 0.000214
683 0.000210
684 0.000210
685 0.000209
686 0.000211
687 0.000211
688 0.000213
689 0.000215
690 0.000218
691 0.000222
692 0.000222
693 0.000221
694 0.000218
695 0.000217
696 0.000216
697 0.000215
698 0.000216
699 0.000217
700 0.000216
701 0.000216
702 0.000216
703 0.000215
704 0.000213
705 0.000214
706 0.000216
707 0.000217
708 0.000218
709 0.000217
710 0.000216
711 0.000216
712 0.000217
713 0.000219
714 0.000222
715 0.000228
716 0.000233
717 0.000238
718 0.000241
719 0.000245
720 0.000247
721 0.000248
722 0.000251
723 0.000255
724 0.000256
725 0.000259
726 0.000261
727 0.000262
728 0.000263
729 0.000265
730 0.000267
731 0.000268
732 0.000269
733 0.000268
734 0.000268
735 0.000269
736 0.000268
737 0.000269
738 0.000271
739 0.000270
740 0.000270
741 0.000270
742 0.000270
743 0.000270
744 0.000272
745 0.000271
746 0.000273
747 0.000272
748 0.000269
749 0.000267
750 0.000267
751 0.000265
752 0.000263
753 0.000262
754 0.000260
755 0.000257
756 0.000252
757 0.000248
758 0.000246
759 0.000241
760 0.000235
761 0.000227
762 0.000223
763 0.000215
764 0.000208
765 0.000199
766 0.000192
767 0.000187
768 0.000183
769 0.000178
770 0.000173
771 0.000173
772 0.000170
773 0.000169
774 0.000166
775 0.000165
776 0.000164
777 0.000164
778 0.000164
779 0.000164
780 0.000164
781 0.000161
782 0.000159
783 0.000156
784 0.000153
785 0.000148
786 0.000146
787 0.000143
788 0.000140
789 0.000139
790 0.000139
791 0.000139
792 0.000138
793 0.000137
794 0.000137
795 0.000136
796 0.000137
797 0.000138
798 0.000141
799 0.000143
800 0.000144
801 0.000143
802 0.000142
803 0.000141
804 0.000138
805 0.000135
806 0.000130
807 0.000128
808 0.000126
809 0.000127
