# i correlation
1 0.001504
2 0.001465
3 0.001432
4 0.001405
5 0.001378
6 0.001356
7 0.001338
8 0.001317
9 0.001301
10 0.001287
11 0.001276
12 0.001263
13 0.001252
14 0.001237
15 0.001224
16 0.001213
17 0.001205
18 0.001197
19 0.001191
20 0.001185
21 0.001181
22 0.001173
23 0.001168
24 0.001158
25 0.001151
26 0.001147
27 0.001144
28 0.001137
29 0.001129
30 0.001124
31 0.001121
32 0.001126
33 0.001130
34 0.001129
35 0.001127
36 0.001125
37 0.001125
38 0.001122
39 0.001116
40 0.001108
41 0.001103
42 0.001094
43 0.001085
44 0.001081
45 0.001073
46 0.001066
47 0.001062
48 0.001059
49 0.001048
50 0.001042
51 0.001038
52 0.001038
53 0.001036
54 0.001031
55 0.001024
56 0.001020
57 0.001015
58 0.001011
59 0.001006
60 0.000999
61 0.000992
62 0.000981
63 0.000967
64 0.000956
65 0.000949
66 0.000949
67 0.000945
68 0.000934
69 0.000930
70 0.000930
71 0.000929
72 0.000926
73 0.000919
74 0.000915
75 0.000912
76 0.000908
77 0.000909
78 0.000911
79 0.000920
80 0.000927
81 0.000932
82 0.000938
83 0.000941
84 0.000942
85 0.000946
86 0.000946
87 0.000948
88 0.000946
89 0.000946
90 0.000942
91 0.000935
92 0.000934
93 0.000940
94 0.000940
95 0.000937
96 0.000930
97 0.000922
98 0.000917
99 0.000915
100 0.000909
101 0.000901
102 0.000891
103 0.000883
104 0.000878
105 0.000874
106 0.000871
107 0.000863
108 0.000851
109 0.000838
110 0.000831
111 0.000827
112 0.000821
113 0.000816
114 0.000817
115 0.000814
116 0.000812
117 0.000809
118 0.000807
119 0.000802
120 0.000804
121 0.000803
122 0.000799
123 0.000798
124 0.000795
125 0.000792
126 0.000792
127 0.000795
128 0.000792
129 0.000789
130 0.000787
131 0.000788
132 0.000787
133 0.000787
134 0.000787
135 0.000785
136 0.000787
137 0.000793
138 0.000797
139 0.000798
140 0.000795
141 0.000793
142 0.000786
143 0.000782
144 0.000784
145 0.000785
146 0.000785
147 0.000786
148 0.000788
149 0.000790
150 0.000793
151 0.000796
152 0.000790
153 0.000789
154 0.000789
155 0.000785
156 0.000779
157 0.000775
158 0.000771
159 0.000769
160 0.000767
161 0.000763
162 0.000757
163 0.000752
164 0.000754
165 0.000759
166 0.000761
167 0.000761
168 0.000762
169 0.000761
170 0.000760
171 0.000758
172 0.000760
173 0.000759
174 0.000759
175 0.000756
176 0.000755
177 0.000754
178 0.000756
179 0.000756
180 0.000756
181 0.000759
182 0.000759
183 0.000759
184 0.000758
185 0.000759
186 0.000761
187 0.000761
188 0.000757
189 0.000752
190 0.000743
191 0.000734
192 0.000728
193 0.000725
194 0.000719
195 0.000713
196 0.000704
197 0.000698
198 0.000695
199 0.000690
200 0.000687
201 0.000688
202 0.000688
203 0.000686
204 0.000687
205 0.000689
206 0.000688
207 0.000693
208 0.000695
209 0.000694
210 0.000696
211 0.000698
212 0.000698
213 0.000700
214 0.000695
215 0.000694
216 0.000698
217 0.000698
218 0.000695
219 0.000693
220 0.000688
221 0.000684
222 0.000677
223 0.000670
224 0.000665
225 0.000656
226 0.000650
227 0.000645
228 0.000637
229 0.000626
230 0.000621
231 0.000621
232 0.000617
233 0.000614
234 0.000616
235 0.000616
236 0.000618
237 0.000624
238 0.000631
239 0.000636
240 0.000639
241 0.000636
242 0.000634
243 0.000630
244 0.000631
245 0.000629
246 0.000626
247 0.000623
248 0.000619
249 0.000619
250 0.000617
251 0.000616
252 0.000613
253 0.000611
254 0.000607
255 0.000604
256 0.000598
257 0.000593
258 0.000591
259 0.000589
260 0.000587
261 0.000588
262 0.000587
263 0.000586
264 0.000586
265 0.000587
266 0.000586
267 0.000589
268 0.000594
269 0.000594
270 0.000593
271 0.000594
272 0.000597
273 0.000596
274 0.000598
275 0.000598
276 0.000594
277 0.000591
278 0.000587
279 0.000583
280 0.000578
281 0.000571
282 0.000565
283 0.000559
284 0.000555
285 0.000553
286 0.000547
287 0.000545
288 0.000545
289 0.000540
290 0.000536
291 0.000534
292 0.000531
293 0.000528
294 0.000526
295 0.000524
296 0.000522
297 0.000521
298 0.000522
299 0.000524
300 0.000525
301 0.000525
302 0.000523
303 0.000524
304 0.000524
305 0.000526
306 0.000531
307 0.000532
308 0.000531
309 0.000531
310 0.000531
311 0.000531
312 0.000529
313 0.000527
314 0.000521
315 0.000517
316 0.000517
317 0.000515
318 0.000510
319 0.000509
320 0.000507
321 0.000506
322 0.000503
323 0.000501
324 0.000501
325 0.000502
326 0.000503
327 0.000503
328 0.000503
329 0.000501
330 0.000499
331 0.000497
332 0.000496
333 0.000493
334 0.000491
335 0.000487
336 0.000481
337 0.000477
338 0.000477
339 0.000472
340 0.000468
341 0.000464
342 0.000463
343 0.000464
344 0.000463
345 0.000459
346 0.000455
347 0.000449
348 0.000447
349 0.000445
350 0.000443
351 0.000443
352 0.000439
353 0.000439
354 0.000441
355 0.000448
356 0.000454
357 0.000458
358 0.000459
359 0.000459
360 0.000456
361 0.000455
362 0.000452
363 0.000448
364 0.000449
365 0.000450
366 0.000450
367 0.000452
368 0.000454
369 0.000454
370 0.000453
371 0.000450
372 0.000448
373 0.000447
374 0.000448
375 0.000446
376 0.000447
377 0.000448
378 0.000449
379 0.000447
380 0.000444
381 0.000443
382 0.000442
383 0.000440
384 0.000433
385 0.000428
386 0.000423
387 0.000419
388 0.000418
389 0.000419
390 0.000418
391 0.000420
392 0.000417
393 0.000416
394 0.000414
395 0.000412
396 0.000413
397 0.000412
398 0.000408
399 0.000405
400 0.000403
401 0.000401
402 0.000399
403 0.000399
404 0.000398
405 0.000399
406 0.000400
407 0.000397
408 0.000395
409 0.000394
410 0.000395
411 0.000395
412 0.000396
413 0.000395
414 0.000397
415 0.000401
416 0.000401
417 0.000402
418 0.000402
419 0.000399
420 0.000392
421 0.000387
422 0.000384
423 0.000385
424 0.000387
425 0.000391
426 0.000397
427 0.000405
428 0.000404
429 0.000403
430 0.000399
431 0.000396
432 0.000392
433 0.000387
434 0.000384
435 0.000384
436 0.000383
437 0.000381
438 0.000377
439 0.000370
440 0.000362
441 0.000352
442 0.000347
443 0.000340
444 0.000337
445 0.000332
446 0.000328
447 0.000326
448 0.000328
449 0.000335
450 0.000340
451 0.000342
452 0.000346
453 0.000350
454 0.000355
455 0.000359
456 0.000363
457 0.000365
458 0.000366
459 0.000365
460 0.000364
461 0.000365
462 0.000368
463 0.000375
464 0.000377
465 0.000378
466 0.000377
467 0.000371
468 0.000365
469 0.000359
470 0.000354
471 0.000353
472 0.000352
473 0.000351
474 0.000347
475 0.000347
476 0.000349
477 0.000350
478 0.000348
479 0.000346
480 0.000343
481 0.000339
482 0.000337
483 0.000334
484 0.000334
485 0.000332
486 0.000331
487 0.000329
488 0.000330
489 0.000332
490 0.000329
491 0.000323
492 0.000319
493 0.000318
494 0.000317
495 0.000318
496 0.000320
497 0.000322
498 0.000325
499 0.000324
500 0.000322
501 0.000318
502 0.000317
503 0.000314
504 0.000312
505 0.000310
506 0.000308
507 0.000307
508 0.000308
509 0.000310
510 0.000311
511 0.000315
512 0.000317
513 0.000316
514 0.000318
515 0.000322
516 0.000325
517 0.000328
518 0.000329
519 0.000329
520 0.000327
521 0.000328
522 0.000329
523 0.000328
524 0.000324
525 0.000321
526 0.000316
527 0.000309
528 0.000303
529 0.000297
530 0.000297
531 0.000292
532 0.000289
533 0.000285
534 0.000279
535 0.000275
536 0.000270
537 0.000269
538 0.000267
539 0.000264
540 0.000263
541 0.000263
542 0.000265
543 0.000268
544 0.000268
545 0.000268
546 0.000267
547 0.000266
548 0.000263
549 0.000261
550 0.000266
551 0.000270
552 0.000270
553 0.000270
554 0.000270
555 0.000272
556 0.000273
557 0.000272
558 0.000271
559 0.000270
560 0.000269
561 0.000265
562 0.000264
563 0.000267
564 0.000268
565 0.000271
566 0.000270
567 0.000266
568 0.000262
569 0.000261
570 0.000257
571 0.000252
572 0.000249
573 0.000246
574 0.000243
575 0.000241
576 0.000241
577 0.000241
578 0.000240
579 0.000238
580 0.000237
581 0.000236
582 0.000235
583 0.000234
584 0.000233
585 0.000227
586 0.000224
587 0.000225
588 0.000227
589 0.000227
590 0.000226
591 0.000226
592 0.000228
593 0.000232
594 0.000234
595 0.000235
596 0.000235
597 0.000237
598 0.000239
599 0.000242
600 0.000244
601 0.000245
602 0.000247
603 0.000251
604 0.000256
605 0.000256
606 0.000256
607 0.000256
608 0.000255
609 0.000255
610 0.000257
611 0.000255
612 0.000254
613 0.000255
614 0.000254
615 0.000251
616 0.000251
617 0.000252
618 0.000250
619 0.000244
620 0.000242
621 0.000236
622 0.000234
623 0.000230
624 0.000226
625 0.000221
626 0.000216
627 0.000211
628 0.000207
629 0.000205
630 0.000203
631 0.000203
632 0.000200
633 0.000198
634 0.000197
635 0.000200
636 0.000203
637 0.000206
638 0.000204
639 0.000201
640 0.000198
641 0.000193
642 0.000191
643 0.000190
644 0.000191
645 0.000190
646 0.000190
647 0.000189
648 0.000190
649 0.000190
650 0.000193
651 0.000195
652 0.000193
653 0.000193
654 0.000189
655 0.000186
656 0.000179
657 0.000175
658 0.000171
659 0.000167
660 0.000160
661 0.000155
662 0.000152
663 0.000148
664 0.000145
665 0.000146
666 0.000144
667 0.000143
668 0.000142
669 0.000143
670 0.000147
671 0.000147
672 0.000146
673 0.000144
674 0.000146
675 0.000144
676 0.000148
677 0.000151
678 0.000149
679 0.000149
680 0.000147
681 0.000147
682 0.000147
683 0.000150
684 0.000152
685 0.000151
686 0.000152
687 0.000155
688 0.000160
689 0.000163
690 0.000169
691 0.000174
692 0.000177
693 0.000181
694 0.000185
695 0.000188
696 0.000192
697 0.000193
698 0.000194
699 0.000195
700 0.000196
701 0.000196
702 0.000198
703 0.000202
704 0.000208
705 0.000210
706 0.000212
707 0.000214
708 0.000211
709 0.000210
710 0.000209
711 0.000210
712 0.000209
713 0.000207
714 0.000203
715 0.000201
716 0.000200
717 0.000198
718 0.000197
719 0.000195
720 0.000191
721 0.000185
722 0.000179
723 0.000179
724 0.000179
725 0.000180
726 0.000179
727 0.000178
728 0.000177
729 0.000176
730 0.000177
731 0.000180
732 0.000183
733 0.000186
734 0.000189
735 0.000191
736 0.000191
737 0.000192
738 0.000193
739 0.000193
740 0.000191
741 0.000188
742 0.000186
743 0.000186
744 0.000186
745 0.000185
746 0.000185
747 0.000185
748 0.000186
749 0.000183
750 0.000181
751 0.000179
752 0.000177
753 0.000173
754 0.000169
755 0.000162
756 0.000158
757 0.000156
758 0.000155
759 0.000151
760 0.000148
761 0.000147
762 0.000146
763 0.000145
764 0.000145
765 0.000146
766 0.000145
767 0.000143
768 0.000143
769 0.000143
770 0.000145
771 0.000147
772 0.000146
773 0.000145
774 0.000143
775 0.000142
776 0.000140
777 0.000138
778 0.000136
779 0.000135
780 0.000132
781 0.000132
782 0.000133
783 0.000133
784 0.000134
785 0.000135
786 0.000137
787 0.000137
788 0.000136
789 0.000136
790 0.000137
791 0.000138
792 0.000138
793 0.000135
794 0.000132
795 0.000130
796 0.000127
797 0.000123
798 0.000118
799 0.000113
800 0.000110
801 0.000106
802 0.000101
803 0.000097
804 0.000096
805 0.000096
806 0.000095
807 0.000092
808 0.000089
809 0.000086
