# i correlation
1 0.001925
2 0.001881
3 0.001845
4 0.001813
5 0.001786
6 0.001761
7 0.001739
8 0.001718
9 0.001697
10 0.001678
11 0.001661
12 0.001644
13 0.001624
14 0.001603
15 0.001586
16 0.001570
17 0.001557
18 0.001543
19 0.001531
20 0.001520
21 0.001509
22 0.001506
23 0.001508
24 0.001510
25 0.001510
26 0.001507
27 0.001506
28 0.001503
29 0.001500
30 0.001496
31 0.001494
32 0.001490
33 0.001488
34 0.001486
35 0.001480
36 0.001473
37 0.001470
38 0.001466
39 0.001463
40 0.001461
41 0.001459
42 0.001457
43 0.001454
44 0.001449
45 0.001441
46 0.001434
47 0.001428
48 0.001424
49 0.001418
50 0.001412
51 0.001413
52 0.001413
53 0.001411
54 0.001408
55 0.001408
56 0.001407
57 0.001408
58 0.001407
59 0.001408
60 0.001407
61 0.001405
62 0.001401
63 0.001394
64 0.001383
65 0.001378
66 0.001373
67 0.001365
68 0.001358
69 0.001351
70 0.001339
71 0.001328
72 0.001314
73 0.001299
74 0.001288
75 0.001276
76 0.001267
77 0.001259
78 0.001248
79 0.001238
80 0.001227
81 0.001220
82 0.001217
83 0.001211
84 0.001212
85 0.001219
86 0.001225
87 0.001226
88 0.001225
89 0.001223
90 0.001224
91 0.001223
92 0.001230
93 0.001230
94 0.001230
95 0.001227
96 0.001222
97 0.001217
98 0.001205
99 0.001198
100 0.001193
101 0.001189
102 0.001183
103 0.001176
104 0.001167
105 0.001161
106 0.001153
107 0.001145
108 0.001137
109 0.001129
110 0.001122
111 0.001118
112 0.001114
113 0.001109
114 0.001107
115 0.001104
116 0.001105
117 0.001103
118 0.001100
119 0.001098
120 0.001094
121 0.001085
122 0.001077
123 0.001069
124 0.001064
125 0.001067
126 0.001070
127 0.001071
128 0.001070
129 0.001065
130 0.001066
131 0.001063
132 0.001054
133 0.001050
134 0.001047
135 0.001041
136 0.001032
137 0.001023
138 0.001014
139 0.001008
140 0.001004
141 0.001003
142 0.001003
143 0.001007
144 0.001007
145 0.001010
146 0.001007
147 0.001003
148 0.000997
149 0.000991
150 0.000984
151 0.000979
152 0.000976
153 0.000979
154 0.000983
155 0.000984
156 0.000985
157 0.000987
158 0.000988
159 0.000989
160 0.000991
161 0.000991
162 0.000993
163 0.000993
164 0.000989
165 0.000983
166 0.000977
167 0.000974
168 0.000971
169 0.000970
170 0.000969
171 0.000966
172 0.000963
173 0.000957
174 0.000953
175 0.000944
176 0.000935
177 0.000929
178 0.000926
179 0.000920
180 0.000906
181 0.000894
182 0.000889
183 0.000885
184 0.000884
185 0.000884
186 0.000887
187 0.000895
188 0.000898
189 0.000900
190 0.000900
191 0.000898
192 0.000890
193 0.000884
194 0.000877
195 0.000870
196 0.000864
197 0.000858
198 0.000855
199 0.000850
200 0.000847
201 0.000846
202 0.000844
203 0.000841
204 0.000839
205 0.000834
206 0.000827
207 0.000819
208 0.000818
209 0.000814
210 0.000810
211 0.000810
212 0.000811
213 0.000810
214 0.000805
215 0.000799
216 0.000796
217 0.000795
218 0.000791
219 0.000789
220 0.000785
221 0.000786
222 0.000789
223 0.000788
224 0.000788
225 0.000788
226 0.000790
227 0.000791
228 0.000790
229 0.000784
230 0.000783
231 0.000779
232 0.000774
233 0.000769
234 0.000763
235 0.000759
236 0.000757
237 0.000753
238 0.000749
239 0.000743
240 0.000738
241 0.000732
242 0.000727
243 0.000720
244 0.000710
245 0.000705
246 0.000700
247 0.000697
248 0.000694
249 0.000691
250 0.000690
251 0.000685
252 0.000683
253 0.000683
254 0.000681
255 0.000685
256 0.000688
257 0.000685
258 0.000681
259 0.000679
260 0.000675
261 0.000673
262 0.000673
263 0.000675
264 0.000678
265 0.000679
266 0.000678
267 0.000676
268 0.000673
269 0.000672
270 0.000674
271 0.000674
272 0.000672
273 0.000672
274 0.000672
275 0.000672
276 0.000671
277 0.000671
278 0.000670
279 0.000673
280 0.000675
281 0.000673
282 0.000673
283 0.000674
284 0.000670
285 0.000665
286 0.000661
287 0.000659
288 0.000659
289 0.000655
290 0.000657
291 0.000659
292 0.000656
293 0.000659
294 0.000660
295 0.000667
296 0.000668
297 0.000670
298 0.000668
299 0.000662
300 0.000656
301 0.000652
302 0.000644
303 0.000640
304 0.000636
305 0.000631
306 0.000627
307 0.000622
308 0.000619
309 0.000612
310 0.000604
311 0.000594
312 0.000587
313 0.000583
314 0.000580
315 0.000577
316 0.000579
317 0.000579
318 0.000582
319 0.000582
320 0.000581
321 0.000577
322 0.000575
323 0.000571
324 0.000569
325 0.000565
326 0.000558
327 0.000551
328 0.000547
329 0.000545
330 0.000547
331 0.000549
332 0.000550
333 0.000549
334 0.000547
335 0.000550
336 0.000549
337 0.000545
338 0.000545
339 0.000545
340 0.000544
341 0.000544
342 0.000546
343 0.000548
344 0.000549
345 0.000547
346 0.000543
347 0.000542
348 0.000543
349 0.000543
350 0.000545
351 0.000545
352 0.000547
353 0.000548
354 0.000549
355 0.000548
356 0.000551
357 0.000556
358 0.000559
359 0.000561
360 0.000558
361 0.000559
362 0.000559
363 0.000556
364 0.000556
365 0.000550
366 0.000546
367 0.000542
368 0.000534
369 0.000530
370 0.000522
371 0.000514
372 0.000506
373 0.000501
374 0.000496
375 0.000494
376 0.000492
377 0.000489
378 0.000484
379 0.000479
380 0.000475
381 0.000471
382 0.000474
383 0.000478
384 0.000480
385 0.000487
386 0.000495
387 0.000503
388 0.000507
389 0.000512
390 0.000514
391 0.000518
392 0.000518
393 0.000515
394 0.000515
395 0.000517
396 0.000517
397 0.000516
398 0.000517
399 0.000515
400 0.000518
401 0.000520
402 0.000524
403 0.000524
404 0.000527
405 0.000527
406 0.000526
407 0.000523
408 0.000518
409 0.000516
410 0.000521
411 0.000523
412 0.000526
413 0.000530
414 0.000531
415 0.000530
416 0.000528
417 0.000531
418 0.000530
419 0.000528
420 0.000527
421 0.000524
422 0.000523
423 0.000522
424 0.000522
425 0.000522
426 0.000524
427 0.000523
428 0.000521
429 0.000521
430 0.000517
431 0.000510
432 0.000501
433 0.000491
434 0.000484
435 0.000478
436 0.000475
437 0.000469
438 0.000468
439 0.000464
440 0.000463
441 0.000462
442 0.000465
443 0.000465
444 0.000465
445 0.000464
446 0.000467
447 0.000470
448 0.000476
449 0.000481
450 0.000484
451 0.000487
452 0.000488
453 0.000491
454 0.000495
455 0.000498
456 0.000498
457 0.000499
458 0.000498
459 0.000497
460 0.000499
461 0.000502
462 0.000501
463 0.000497
464 0.000497
465 0.000496
466 0.000494
467 0.000490
468 0.000485
469 0.000478
470 0.000474
471 0.000468
472 0.000467
473 0.000467
474 0.000469
475 0.000469
476 0.000465
477 0.000463
478 0.000463
479 0.000464
480 0.000464
481 0.000465
482 0.000463
483 0.000465
484 0.000467
485 0.000467
486 0.000468
487 0.000472
488 0.000474
489 0.000474
490 0.000472
491 0.000472
492 0.000474
493 0.000469
494 0.000465
495 0.000459
496 0.000454
497 0.000451
498 0.000447
499 0.000447
500 0.000442
501 0.000440
502 0.000438
503 0.000438
504 0.000437
505 0.000437
506 0.000435
507 0.000436
508 0.000435
509 0.000435
510 0.000435
511 0.000430
512 0.000428
513 0.000427
514 0.000424
515 0.000419
516 0.000416
517 0.000417
518 0.000421
519 0.000425
520 0.000428
521 0.000430
522 0.000432
523 0.000430
524 0.000424
525 0.000420
526 0.000415
527 0.000411
528 0.000405
529 0.000401
530 0.000401
531 0.000401
532 0.000401
533 0.000400
534 0.000395
535 0.000386
536 0.000381
537 0.000376
538 0.000372
539 0.000366
540 0.000362
541 0.000357
542 0.000351
543 0.000349
544 0.000347
545 0.000346
546 0.000347
547 0.000349
548 0.000352
549 0.000355
550 0.000356
551 0.000356
552 0.000356
553 0.000357
554 0.000361
555 0.000362
556 0.000362
557 0.000362
558 0.000360
559 0.000358
560 0.000358
561 0.000360
562 0.000362
563 0.000361
564 0.000363
565 0.000364
566 0.000363
567 0.000360
568 0.000354
569 0.000347
570 0.000341
571 0.000337
572 0.000335
573 0.000338
574 0.000340
575 0.000343
576 0.000347
577 0.000347
578 0.000347
579 0.000348
580 0.000351
581 0.000352
582 0.000349
583 0.000347
584 0.000347
585 0.000346
586 0.000347
587 0.000349
588 0.000353
589 0.000357
590 0.000358
591 0.000362
592 0.000365
593 0.000365
594 0.000362
595 0.000360
596 0.000356
597 0.000351
598 0.000347
599 0.000344
600 0.000341
601 0.000336
602 0.000330
603 0.000326
604 0.000323
605 0.000320
606 0.000316
607 0.000311
608 0.000305
609 0.000298
610 0.000290
611 0.000285
612 0.000281
613 0.000280
614 0.000281
615 0.000282
616 0.000281
617 0.000285
618 0.000290
619 0.000294
620 0.000295
621 0.000293
622 0.000292
623 0.000290
624 0.000287
625 0.000284
626 0.000281
627 0.000278
628 0.000275
629 0.000271
630 0.000265
631 0.000260
632 0.000257
633 0.000257
634 0.000257
635 0.000256
636 0.000253
637 0.000251
638 0.000251
639 0.000250
640 0.000250
641 0.000249
642 0.000246
643 0.000242
644 0.000238
645 0.000236
646 0.000234
647 0.000233
648 0.000231
649 0.000230
650 0.000233
651 0.000237
652 0.000241
653 0.000246
654 0.000246
655 0.000243
656 0.000240
657 0.000239
658 0.000238
659 0.000238
660 0.000237
661 0.000235
662 0.000233
663 0.000230
664 0.000227
665 0.000225
666 0.000224
667 0.000220
668 0.000217
669 0.000213
670 0.000211
671 0.000205
672 0.000195
673 0.000189
674 0.000186
675 0.000183
676 0.000181
677 0.000180
678 0.000179
679 0.000180
680 0.000180
681 0.000184
682 0.000187
683 0.000191
684 0.000193
685 0.000192
686 0.000192
687 0.000191
688 0.000190
689 0.000191
690 0.000193
691 0.000197
692 0.000202
693 0.000205
694 0.000208
695 0.000207
696 0.000206
697 0.000204
698 0.000202
699 0.000200
700 0.000200
701 0.000201
702 0.000199
703 0.000199
704 0.000197
705 0.000197
706 0.000197
707 0.000199
708 0.000203
709 0.000205
710 0.000209
711 0.000211
712 0.000210
713 0.000206
714 0.000202
715 0.000195
716 0.000190
717 0.000183
718 0.000178
719 0.000175
720 0.000173
721 0.000171
722 0.000168
723 0.000164
724 0.000157
725 0.000150
726 0.000144
727 0.000136
728 0.000129
729 0.000124
730 0.000121
731 0.000117
732 0.000111
733 0.000109
734 0.000106
735 0.000104
736 0.000102
737 0.000100
738 0.000099
739 0.000098
740 0.000099
741 0.000097
742 0.000094
743 0.000094
744 0.000096
745 0.000101
746 0.000105
747 0.000109
748 0.000114
749 0.000118
750 0.000121
751 0.000123
752 0.000126
753 0.000129
754 0.000133
755 0.000138
756 0.000141
757 0.000142
758 0.000144
759 0.000143
760 0.000147
761 0.000148
762 0.000148
763 0.000146
764 0.000143
765 0.000141
766 0.000138
767 0.000137
768 0.000135
769 0.000132
770 0.000128
771 0.000128
772 0.000125
773 0.000120
774 0.000116
775 0.000112
776 0.000109
777 0.000109
778 0.000110
779 0.000110
780 0.000111
781 0.000113
782 0.000114
783 0.000114
784 0.000114
785 0.000113
786 0.000113
787 0.000113
788 0.000112
789 0.000111
790 0.000111
791 0.000109
792 0.000109
793 0.000107
794 0.000106
795 0.000106
796 0.000107
797 0.000108
798 0.000107
799 0.000106
800 0.000105
801 0.000104
802 0.000103
803 0.000101
804 0.000101
805 0.000104
806 0.000106
807 0.000110
808 0.000111
809 0.000114
