# i correlation
1 0.001659
2 0.001617
3 0.001577
4 0.001546
5 0.001521
6 0.001497
7 0.001478
8 0.001468
9 0.001459
10 0.001452
11 0.001439
12 0.001426
13 0.001415
14 0.001400
15 0.001393
16 0.001386
17 0.001382
18 0.001377
19 0.001369
20 0.001359
21 0.001350
22 0.001340
23 0.001337
24 0.001332
25 0.001327
26 0.001319
27 0.001308
28 0.001300
29 0.001290
30 0.001280
31 0.001270
32 0.001261
33 0.001260
34 0.001257
35 0.001256
36 0.001252
37 0.001248
38 0.001244
39 0.001243
40 0.001241
41 0.001246
42 0.001246
43 0.001247
44 0.001247
45 0.001246
46 0.001244
47 0.001243
48 0.001238
49 0.001230
50 0.001223
51 0.001211
52 0.001203
53 0.001197
54 0.001187
55 0.001176
56 0.001168
57 0.001162
58 0.001154
59 0.001153
60 0.001153
61 0.001149
62 0.001148
63 0.001140
64 0.001134
65 0.001128
66 0.001119
67 0.001107
68 0.001096
69 0.001086
70 0.001079
71 0.001072
72 0.001067
73 0.001059
74 0.001056
75 0.001054
76 0.001054
77 0.001055
78 0.001058
79 0.001058
80 0.001060
81 0.001064
82 0.001061
83 0.001057
84 0.001051
85 0.001046
86 0.001043
87 0.001038
88 0.001039
89 0.001037
90 0.001033
91 0.001025
92 0.001020
93 0.001019
94 0.001018
95 0.001015
96 0.001007
97 0.001009
98 0.001007
99 0.001009
100 0.001011
101 0.001011
102 0.001012
103 0.001012
104 0.001011
105 0.001011
106 0.001012
107 0.001014
108 0.001013
109 0.001014
110 0.001018
111 0.001016
112 0.001015
113 0.001014
114 0.001009
115 0.001007
116 0.001003
117 0.000994
118 0.000989
119 0.000985
120 0.000983
121 0.000985
122 0.000988
123 0.000992
124 0.000994
125 0.001001
126 0.000999
127 0.000996
128 0.000992
129 0.000983
130 0.000972
131 0.000967
132 0.000960
133 0.000957
134 0.000950
135 0.000947
136 0.000945
137 0.000940
138 0.000936
139 0.000929
140 0.000923
141 0.000918
142 0.000915
143 0.000913
144 0.000905
145 0.000894
146 0.000889
147 0.000884
148 0.000880
149 0.000878
150 0.000880
151 0.000882
152 0.000884
153 0.000882
154 0.000875
155 0.000865
156 0.000855
157 0.000845
158 0.000836
159 0.000831
160 0.000827
161 0.000824
162 0.000826
163 0.000826
164 0.000828
165 0.000824
166 0.000820
167 0.000817
168 0.000813
169 0.000816
170 0.000816
171 0.000816
172 0.000818
173 0.000819
174 0.000820
175 0.000817
176 0.000814
177 0.000809
178 0.000807
179 0.000804
180 0.000802
181 0.000799
182 0.000799
183 0.000799
184 0.000794
185 0.000790
186 0.000785
187 0.000780
188 0.000774
189 0.000766
190 0.000764
191 0.000763
192 0.000764
193 0.000763
194 0.000759
195 0.000757
196 0.000753
197 0.000749
198 0.000746
199 0.000742
200 0.000741
201 0.000737
202 0.000736
203 0.000736
204 0.000735
205 0.000732
206 0.000727
207 0.000718
208 0.000713
209 0.000711
210 0.000707
211 0.000702
212 0.000695
213 0.000689
214 0.000684
215 0.000682
216 0.000677
217 0.000673
218 0.000669
219 0.000664
220 0.000662
221 0.000658
222 0.000652
223 0.000647
224 0.000648
225 0.000648
226 0.000646
227 0.000642
228 0.000641
229 0.000639
230 0.000636
231 0.000638
232 0.000636
233 0.000635
234 0.000634
235 0.000636
236 0.000636
237 0.000636
238 0.000634
239 0.000631
240 0.000629
241 0.000627
242 0.000619
243 0.000616
244 0.000613
245 0.000613
246 0.000612
247 0.000611
248 0.000612
249 0.000613
250 0.000616
251 0.000617
252 0.000622
253 0.000625
254 0.000628
255 0.000627
256 0.000625
257 0.000621
258 0.000622
259 0.000622
260 0.000624
261 0.000623
262 0.000617
263 0.000609
264 0.000605
265 0.000603
266 0.000600
267 0.000598
268 0.000598
269 0.000593
270 0.000588
271 0.000585
272 0.000580
273 0.000577
274 0.000573
275 0.000573
276 0.000573
277 0.000576
278 0.000580
279 0.000585
280 0.000589
281 0.000590
282 0.000588
283 0.000585
284 0.000584
285 0.000588
286 0.000588
287 0.000586
288 0.000583
289 0.000578
290 0.000574
291 0.000570
292 0.000565
293 0.000562
294 0.000558
295 0.000561
296 0.000561
297 0.000564
298 0.000563
299 0.000561
300 0.000561
301 0.000562
302 0.000563
303 0.000566
304 0.000565
305 0.000567
306 0.000567
307 0.000565
308 0.000563
309 0.000559
310 0.000556
311 0.000548
312 0.000545
313 0.000541
314 0.000543
315 0.000541
316 0.000541
317 0.000537
318 0.000536
319 0.000532
320 0.000535
321 0.000535
322 0.000530
323 0.000523
324 0.000518
325 0.000517
326 0.000513
327 0.000508
328 0.000502
329 0.000498
330 0.000493
331 0.000488
332 0.000481
333 0.000476
334 0.000472
335 0.000468
336 0.000465
337 0.000463
338 0.000464
339 0.000462
340 0.000462
341 0.000463
342 0.000465
343 0.000464
344 0.000463
345 0.000466
346 0.000469
347 0.000476
348 0.000482
349 0.000486
350 0.000486
351 0.000485
352 0.000482
353 0.000479
354 0.000476
355 0.000477
356 0.000477
357 0.000477
358 0.000475
359 0.000475
360 0.000477
361 0.000480
362 0.000484
363 0.000487
364 0.000489
365 0.000492
366 0.000496
367 0.000501
368 0.000503
369 0.000500
370 0.000498
371 0.000496
372 0.000495
373 0.000494
374 0.000495
375 0.000496
376 0.000496
377 0.000495
378 0.000496
379 0.000493
380 0.000490
381 0.000488
382 0.000486
383 0.000485
384 0.000483
385 0.000479
386 0.000475
387 0.000471
388 0.000467
389 0.000461
390 0.000458
391 0.000457
392 0.000457
393 0.000458
394 0.000455
395 0.000454
396 0.000451
397 0.000449
398 0.000450
399 0.000448
400 0.000449
401 0.000451
402 0.000456
403 0.000457
404 0.000458
405 0.000457
406 0.000456
407 0.000456
408 0.000456
409 0.000458
410 0.000463
411 0.000464
412 0.000462
413 0.000459
414 0.000451
415 0.000444
416 0.000435
417 0.000429
418 0.000425
419 0.000424
420 0.000422
421 0.000419
422 0.000416
423 0.000414
424 0.000413
425 0.000411
426 0.000406
427 0.000402
428 0.000404
429 0.000404
430 0.000402
431 0.000400
432 0.000394
433 0.000390
434 0.000385
435 0.000383
436 0.000380
437 0.000375
438 0.000369
439 0.000362
440 0.000355
441 0.000351
442 0.000347
443 0.000345
444 0.000345
445 0.000345
446 0.000345
447 0.000344
448 0.000342
449 0.000339
450 0.000332
451 0.000327
452 0.000321
453 0.000317
454 0.000316
455 0.000314
456 0.000314
457 0.000314
458 0.000313
459 0.000315
460 0.000317
461 0.000317
462 0.000316
463 0.000313
464 0.000308
465 0.000304
466 0.000300
467 0.000298
468 0.000293
469 0.000292
470 0.000292
471 0.000294
472 0.000296
473 0.000295
474 0.000293
475 0.000290
476 0.000288
477 0.000285
478 0.000284
479 0.000285
480 0.000285
481 0.000287
482 0.000289
483 0.000291
484 0.000297
485 0.000302
486 0.000304
487 0.000304
488 0.000307
489 0.000311
490 0.000321
491 0.000329
492 0.000335
493 0.000339
494 0.000337
495 0.000337
496 0.000332
497 0.000327
498 0.000321
499 0.000316
500 0.000314
501 0.000314
502 0.000313
503 0.000312
504 0.000310
505 0.000310
506 0.000308
507 0.000307
508 0.000307
509 0.000308
510 0.000308
511 0.000309
512 0.000310
513 0.000311
514 0.000312
515 0.000307
516 0.000306
517 0.000305
518 0.000304
519 0.000306
520 0.000308
521 0.000308
522 0.000307
523 0.000305
524 0.000305
525 0.000307
526 0.000307
527 0.000305
528 0.000303
529 0.000302
530 0.000302
531 0.000301
532 0.000301
533 0.000298
534 0.000301
535 0.000305
536 0.000309
537 0.000314
538 0.000316
539 0.000314
540 0.000312
541 0.000311
542 0.000304
543 0.000297
544 0.000292
545 0.000289
546 0.000285
547 0.000281
548 0.000276
549 0.000272
550 0.000269
551 0.000268
552 0.000265
553 0.000268
554 0.000272
555 0.000275
556 0.000275
557 0.000277
558 0.000277
559 0.000277
560 0.000279
561 0.000278
562 0.000277
563 0.000273
564 0.000273
565 0.000271
566 0.000271
567 0.000267
568 0.000263
569 0.000258
570 0.000259
571 0.000257
572 0.000255
573 0.000254
574 0.000253
575 0.000253
576 0.000255
577 0.000250
578 0.000250
579 0.000247
580 0.000246
581 0.000248
582 0.000248
583 0.000250
584 0.000251
585 0.000252
586 0.000251
587 0.000249
588 0.000251
589 0.000246
590 0.000242
591 0.000238
592 0.000232
593 0.000227
594 0.000225
595 0.000224
596 0.000221
597 0.000219
598 0.000220
599 0.000221
600 0.000223
601 0.000225
602 0.000226
603 0.000227
604 0.000225
605 0.000223
606 0.000222
607 0.000225
608 0.000229
609 0.000231
610 0.000231
611 0.000233
612 0.000233
613 0.000234
614 0.000233
615 0.000234
616 0.000232
617 0.000233
618 0.000235
619 0.000237
620 0.000239
621 0.000242
622 0.000244
623 0.000249
624 0.000251
625 0.000249
626 0.000249
627 0.000251
628 0.000252
629 0.000253
630 0.000255
631 0.000256
632 0.000255
633 0.000254
634 0.000254
635 0.000255
636 0.000257
637 0.000254
638 0.000254
639 0.000254
640 0.000255
641 0.000256
642 0.000253
643 0.000250
644 0.000248
645 0.000248
646 0.000250
647 0.000251
648 0.000252
649 0.000252
650 0.000252
651 0.000249
652 0.000244
653 0.000243
654 0.000242
655 0.000242
656 0.000240
657 0.000239
658 0.000235
659 0.000237
660 0.000239
661 0.000241
662 0.000246
663 0.000249
664 0.000258
665 0.000267
666 0.000275
667 0.000277
668 0.000274
669 0.000275
670 0.000274
671 0.000273
672 0.000275
673 0.000277
674 0.000280
675 0.000281
676 0.000281
677 0.000281
678 0.000282
679 0.000281
680 0.000278
681 0.000275
682 0.000271
683 0.000273
684 0.000271
685 0.000272
686 0.000274
687 0.000278
688 0.000285
689 0.000292
690 0.000296
691 0.000297
692 0.000295
693 0.000294
694 0.000291
695 0.000289
696 0.000287
697 0.000287
698 0.000286
699 0.000283
700 0.000279
701 0.000277
702 0.000273
703 0.000272
704 0.000271
705 0.000268
706 0.000267
707 0.000268
708 0.000269
709 0.000272
710 0.000271
711 0.000271
712 0.000274
713 0.000275
714 0.000277
715 0.000276
716 0.000275
717 0.000271
718 0.000266
719 0.000261
720 0.000256
721 0.000254
722 0.000252
723 0.000251
724 0.000251
725 0.000250
726 0.000249
727 0.000248
728 0.000247
729 0.000245
730 0.000240
731 0.000238
732 0.000234
733 0.000233
734 0.000232
735 0.000229
736 0.000228
737 0.000226
738 0.000225
739 0.000224
740 0.000225
741 0.000222
742 0.000220
743 0.000217
744 0.000216
745 0.000215
746 0.000213
747 0.000209
748 0.000208
749 0.000209
750 0.000212
751 0.000215
752 0.000218
753 0.000219
754 0.000219
755 0.000219
756 0.000218
757 0.000218
758 0.000217
759 0.000216
760 0.000215
761 0.000214
762 0.000214
763 0.000213
764 0.000209
765 0.000204
766 0.000202
767 0.000202
768 0.000200
769 0.000199
770 0.000201
771 0.000203
772 0.000207
773 0.000211
774 0.000216
775 0.000222
776 0.000225
777 0.000229
778 0.000228
779 0.000226
780 0.000224
781 0.000221
782 0.000216
783 0.000210
784 0.000205
785 0.000204
786 0.000202
787 0.000202
788 0.000203
789 0.000203
790 0.000203
791 0.000204
792 0.000206
793 0.000209
794 0.000208
795 0.000203
796 0.000199
797 0.000197
798 0.000195
799 0.000192
800 0.000192
801 0.000193
802 0.000193
803 0.000192
804 0.000189
805 0.000188
806 0.000186
807 0.000184
808 0.000183
809 0.000184
