# i correlation
1 0.001663
2 0.001624
3 0.001587
4 0.001558
5 0.001534
6 0.001508
7 0.001484
8 0.001459
9 0.001442
10 0.001427
11 0.001415
12 0.001404
13 0.001393
14 0.001382
15 0.001367
16 0.001351
17 0.001334
18 0.001317
19 0.001305
20 0.001293
21 0.001287
22 0.001280
23 0.001271
24 0.001264
25 0.001260
26 0.001255
27 0.001247
28 0.001239
29 0.001229
30 0.001224
31 0.001224
32 0.001228
33 0.001223
34 0.001218
35 0.001215
36 0.001212
37 0.001213
38 0.001213
39 0.001211
40 0.001207
41 0.001201
42 0.001189
43 0.001178
44 0.001168
45 0.001157
46 0.001153
47 0.001147
48 0.001146
49 0.001134
50 0.001121
51 0.001109
52 0.001103
53 0.001099
54 0.001092
55 0.001079
56 0.001072
57 0.001070
58 0.001066
59 0.001068
60 0.001067
61 0.001062
62 0.001053
63 0.001048
64 0.001045
65 0.001038
66 0.001032
67 0.001026
68 0.001017
69 0.001010
70 0.001004
71 0.001003
72 0.001002
73 0.000996
74 0.000987
75 0.000975
76 0.000959
77 0.000945
78 0.000935
79 0.000923
80 0.000913
81 0.000906
82 0.000899
83 0.000900
84 0.000897
85 0.000894
86 0.000890
87 0.000883
88 0.000881
89 0.000880
90 0.000876
91 0.000874
92 0.000871
93 0.000871
94 0.000866
95 0.000862
96 0.000860
97 0.000859
98 0.000858
99 0.000853
100 0.000846
101 0.000835
102 0.000823
103 0.000811
104 0.000802
105 0.000797
106 0.000793
107 0.000788
108 0.000784
109 0.000780
110 0.000779
111 0.000779
112 0.000776
113 0.000773
114 0.000768
115 0.000764
116 0.000759
117 0.000753
118 0.000749
119 0.000746
120 0.000748
121 0.000743
122 0.000738
123 0.000735
124 0.000735
125 0.000736
126 0.000734
127 0.000733
128 0.000730
129 0.000733
130 0.000735
131 0.000743
132 0.000748
133 0.000749
134 0.000750
135 0.000748
136 0.000749
137 0.000753
138 0.000754
139 0.000751
140 0.000748
141 0.000750
142 0.000749
143 0.000746
144 0.000740
145 0.000741
146 0.000744
147 0.000743
148 0.000743
149 0.000741
150 0.000742
151 0.000740
152 0.000740
153 0.000735
154 0.000729
155 0.000729
156 0.000727
157 0.000727
158 0.000724
159 0.000723
160 0.000718
161 0.000712
162 0.000708
163 0.000702
164 0.000701
165 0.000699
166 0.000699
167 0.000693
168 0.000689
169 0.000685
170 0.000683
171 0.000681
172 0.000679
173 0.000679
174 0.000677
175 0.000673
176 0.000668
177 0.000666
178 0.000669
179 0.000668
180 0.000668
181 0.000669
182 0.000670
183 0.000668
184 0.000661
185 0.000657
186 0.000651
187 0.000648
188 0.000646
189 0.000642
190 0.000640
191 0.000641
192 0.000639
193 0.000635
194 0.000637
195 0.000631
196 0.000627
197 0.000623
198 0.000624
199 0.000620
200 0.000616
201 0.000611
202 0.000609
203 0.000609
204 0.000609
205 0.000611
206 0.000614
207 0.000619
208 0.000622
209 0.000630
210 0.000633
211 0.000633
212 0.000636
213 0.000637
214 0.000642
215 0.000645
216 0.000645
217 0.000643
218 0.000641
219 0.000641
220 0.000640
221 0.000637
222 0.000635
223 0.000633
224 0.000634
225 0.000635
226 0.000636
227 0.000630
228 0.000624
229 0.000619
230 0.000614
231 0.000614
232 0.000611
233 0.000602
234 0.000597
235 0.000592
236 0.000584
237 0.000576
238 0.000573
239 0.000572
240 0.000570
241 0.000566
242 0.000562
243 0.000553
244 0.000546
245 0.000536
246 0.000533
247 0.000532
248 0.000532
249 0.000532
250 0.000530
251 0.000531
252 0.000533
253 0.000538
254 0.000540
255 0.000542
256 0.000543
257 0.000544
258 0.000544
259 0.000538
260 0.000533
261 0.000530
262 0.000532
263 0.000534
264 0.000535
265 0.000538
266 0.000540
267 0.000540
268 0.000540
269 0.000536
270 0.000533
271 0.000532
272 0.000530
273 0.000525
274 0.000519
275 0.000518
276 0.000514
277 0.000510
278 0.000508
279 0.000509
280 0.000511
281 0.000510
282 0.000507
283 0.000502
284 0.000497
285 0.000492
286 0.000485
287 0.000483
288 0.000481
289 0.000479
290 0.000479
291 0.000481
292 0.000487
293 0.000490
294 0.000489
295 0.000486
296 0.000482
297 0.000478
298 0.000473
299 0.000470
300 0.000464
301 0.000455
302 0.000451
303 0.000451
304 0.000447
305 0.000446
306 0.000444
307 0.000445
308 0.000442
309 0.000438
310 0.000435
311 0.000430
312 0.000427
313 0.000426
314 0.000425
315 0.000425
316 0.000422
317 0.000415
318 0.000407
319 0.000405
320 0.000406
321 0.000406
322 0.000404
323 0.000406
324 0.000411
325 0.000415
326 0.000413
327 0.000412
328 0.000410
329 0.000409
330 0.000405
331 0.000400
332 0.000395
333 0.000390
334 0.000385
335 0.000382
336 0.000380
337 0.000377
338 0.000374
339 0.000373
340 0.000373
341 0.000374
342 0.000371
343 0.000363
344 0.000361
345 0.000359
346 0.000362
347 0.000364
348 0.000364
349 0.000361
350 0.000361
351 0.000364
352 0.000363
353 0.000365
354 0.000365
355 0.000366
356 0.000367
357 0.000368
358 0.000365
359 0.000365
360 0.000367
361 0.000370
362 0.000374
363 0.000382
364 0.000391
365 0.000396
366 0.000398
367 0.000400
368 0.000401
369 0.000404
370 0.000402
371 0.000400
372 0.000398
373 0.000399
374 0.000398
375 0.000394
376 0.000395
377 0.000397
378 0.000398
379 0.000400
380 0.000400
381 0.000403
382 0.000405
383 0.000408
384 0.000405
385 0.000401
386 0.000395
387 0.000392
388 0.000395
389 0.000395
390 0.000396
391 0.000395
392 0.000395
393 0.000392
394 0.000390
395 0.000387
396 0.000385
397 0.000380
398 0.000380
399 0.000380
400 0.000379
401 0.000378
402 0.000374
403 0.000372
404 0.000371
405 0.000373
406 0.000371
407 0.000368
408 0.000362
409 0.000357
410 0.000353
411 0.000351
412 0.000352
413 0.000356
414 0.000360
415 0.000363
416 0.000366
417 0.000371
418 0.000372
419 0.000375
420 0.000380
421 0.000383
422 0.000383
423 0.000383
424 0.000385
425 0.000387
426 0.000390
427 0.000392
428 0.000393
429 0.000395
430 0.000398
431 0.000402
432 0.000403
433 0.000403
434 0.000402
435 0.000402
436 0.000403
437 0.000402
438 0.000402
439 0.000400
440 0.000399
441 0.000395
442 0.000392
443 0.000389
444 0.000387
445 0.000383
446 0.000381
447 0.000378
448 0.000375
449 0.000371
450 0.000366
451 0.000361
452 0.000359
453 0.000358
454 0.000353
455 0.000348
456 0.000341
457 0.000335
458 0.000333
459 0.000326
460 0.000322
461 0.000317
462 0.000314
463 0.000313
464 0.000312
465 0.000317
466 0.000322
467 0.000325
468 0.000320
469 0.000315
470 0.000313
471 0.000311
472 0.000313
473 0.000316
474 0.000320
475 0.000323
476 0.000325
477 0.000327
478 0.000332
479 0.000337
480 0.000343
481 0.000348
482 0.000351
483 0.000350
484 0.000352
485 0.000353
486 0.000355
487 0.000358
488 0.000361
489 0.000362
490 0.000362
491 0.000361
492 0.000359
493 0.000359
494 0.000357
495 0.000354
496 0.000352
497 0.000355
498 0.000356
499 0.000358
500 0.000355
501 0.000353
502 0.000355
503 0.000355
504 0.000355
505 0.000353
506 0.000354
507 0.000352
508 0.000348
509 0.000344
510 0.000343
511 0.000346
512 0.000349
513 0.000353
514 0.000360
515 0.000365
516 0.000369
517 0.000372
518 0.000377
519 0.000385
520 0.000390
521 0.000394
522 0.000397
523 0.000399
524 0.000401
525 0.000402
526 0.000401
527 0.000400
528 0.000398
529 0.000401
530 0.000402
531 0.000404
532 0.000404
533 0.000404
534 0.000403
535 0.000404
536 0.000406
537 0.000408
538 0.000409
539 0.000410
540 0.000409
541 0.000405
542 0.000401
543 0.000396
544 0.000392
545 0.000392
546 0.000391
547 0.000390
548 0.000389
549 0.000387
550 0.000389
551 0.000394
552 0.000395
553 0.000396
554 0.000397
555 0.000395
556 0.000395
557 0.000394
558 0.000395
559 0.000395
560 0.000397
561 0.000397
562 0.000402
563 0.000409
564 0.000414
565 0.000417
566 0.000418
567 0.000419
568 0.000416
569 0.000409
570 0.000405
571 0.000403
572 0.000401
573 0.000400
574 0.000397
575 0.000397
576 0.000396
577 0.000399
578 0.000401
579 0.000403
580 0.000402
581 0.000399
582 0.000397
583 0.000394
584 0.000392
585 0.000391
586 0.000392
587 0.000389
588 0.000388
589 0.000387
590 0.000389
591 0.000388
592 0.000391
593 0.000388
594 0.000386
595 0.000384
596 0.000380
597 0.000375
598 0.000370
599 0.000366
600 0.000359
601 0.000351
602 0.000345
603 0.000339
604 0.000335
605 0.000332
606 0.000328
607 0.000323
608 0.000323
609 0.000321
610 0.000318
611 0.000317
612 0.000318
613 0.000318
614 0.000318
615 0.000318
616 0.000317
617 0.000319
618 0.000322
619 0.000324
620 0.000325
621 0.000324
622 0.000325
623 0.000326
624 0.000327
625 0.000328
626 0.000328
627 0.000329
628 0.000327
629 0.000326
630 0.000325
631 0.000327
632 0.000327
633 0.000324
634 0.000324
635 0.000321
636 0.000320
637 0.000317
638 0.000314
639 0.000311
640 0.000309
641 0.000303
642 0.000294
643 0.000288
644 0.000282
645 0.000282
646 0.000280
647 0.000277
648 0.000276
649 0.000275
650 0.000275
651 0.000276
652 0.000278
653 0.000280
654 0.000282
655 0.000283
656 0.000287
657 0.000290
658 0.000292
659 0.000293
660 0.000295
661 0.000297
662 0.000298
663 0.000299
664 0.000301
665 0.000299
666 0.000301
667 0.000301
668 0.000300
669 0.000296
670 0.000293
671 0.000290
672 0.000287
673 0.000282
674 0.000277
675 0.000274
676 0.000271
677 0.000270
678 0.000268
679 0.000266
680 0.000266
681 0.000264
682 0.000262
683 0.000257
684 0.000253
685 0.000253
686 0.000253
687 0.000251
688 0.000249
689 0.000247
690 0.000245
691 0.000248
692 0.000251
693 0.000254
694 0.000256
695 0.000258
696 0.000260
697 0.000263
698 0.000265
699 0.000267
700 0.000264
701 0.000261
702 0.000257
703 0.000251
704 0.000248
705 0.000245
706 0.000245
707 0.000244
708 0.000243
709 0.000241
710 0.000236
711 0.000233
712 0.000232
713 0.000230
714 0.000228
715 0.000224
716 0.000216
717 0.000211
718 0.000206
719 0.000200
720 0.000195
721 0.000188
722 0.000180
723 0.000176
724 0.000172
725 0.000168
726 0.000161
727 0.000156
728 0.000153
729 0.000154
730 0.000156
731 0.000158
732 0.000158
733 0.000156
734 0.000157
735 0.000155
736 0.000153
737 0.000153
738 0.000153
739 0.000156
740 0.000157
741 0.000158
742 0.000156
743 0.000155
744 0.000156
745 0.000160
746 0.000165
747 0.000167
748 0.000165
749 0.000161
750 0.000160
751 0.000162
752 0.000164
753 0.000165
754 0.000167
755 0.000168
756 0.000172
757 0.000171
758 0.000171
759 0.000171
760 0.000172
761 0.000174
762 0.000171
763 0.000168
764 0.000165
765 0.000163
766 0.000161
767 0.000157
768 0.000154
769 0.000153
770 0.000153
771 0.000156
772 0.000161
773 0.000162
774 0.000163
775 0.000160
776 0.000157
777 0.000160
778 0.000162
779 0.000164
780 0.000164
781 0.000161
782 0.000161
783 0.000159
784 0.000159
785 0.000158
786 0.000159
787 0.000159
788 0.000158
789 0.000157
790 0.000156
791 0.000155
792 0.000155
793 0.000155
794 0.000155
795 0.000155
796 0.000152
797 0.000150
798 0.000148
799 0.000147
800 0.000148
801 0.000149
802 0.000150
803 0.000150
804 0.000153
805 0.000154
806 0.000157
807 0.000157
808 0.000156
809 0.000156
