# i correlation
1 0.001819
2 0.001780
3 0.001744
4 0.001709
5 0.001683
6 0.001656
7 0.001634
8 0.001617
9 0.001597
10 0.001583
11 0.001572
12 0.001561
13 0.001554
14 0.001546
15 0.001539
16 0.001531
17 0.001518
18 0.001506
19 0.001497
20 0.001488
21 0.001478
22 0.001468
23 0.001457
24 0.001443
25 0.001427
26 0.001413
27 0.001400
28 0.001389
29 0.001380
30 0.001369
31 0.001360
32 0.001355
33 0.001352
34 0.001349
35 0.001347
36 0.001343
37 0.001336
38 0.001330
39 0.001319
40 0.001311
41 0.001305
42 0.001305
43 0.001306
44 0.001305
45 0.001303
46 0.001301
47 0.001294
48 0.001289
49 0.001285
50 0.001284
51 0.001285
52 0.001283
53 0.001281
54 0.001275
55 0.001271
56 0.001266
57 0.001264
58 0.001265
59 0.001261
60 0.001256
61 0.001249
62 0.001242
63 0.001235
64 0.001228
65 0.001218
66 0.001208
67 0.001204
68 0.001196
69 0.001187
70 0.001178
71 0.001170
72 0.001163
73 0.001157
74 0.001152
75 0.001147
76 0.001148
77 0.001147
78 0.001146
79 0.001143
80 0.001143
81 0.001141
82 0.001135
83 0.001131
84 0.001126
85 0.001123
86 0.001119
87 0.001117
88 0.001114
89 0.001108
90 0.001103
91 0.001099
92 0.001092
93 0.001089
94 0.001084
95 0.001082
96 0.001088
97 0.001088
98 0.001091
99 0.001096
100 0.001100
101 0.001105
102 0.001106
103 0.001107
104 0.001108
105 0.001108
106 0.001107
107 0.001105
108 0.001106
109 0.001107
110 0.001104
111 0.001101
112 0.001098
113 0.001097
114 0.001098
115 0.001098
116 0.001096
117 0.001093
118 0.001088
119 0.001084
120 0.001083
121 0.001078
122 0.001073
123 0.001069
124 0.001063
125 0.001061
126 0.001055
127 0.001050
128 0.001047
129 0.001040
130 0.001034
131 0.001025
132 0.001015
133 0.001007
134 0.001000
135 0.000991
136 0.000986
137 0.000982
138 0.000974
139 0.000966
140 0.000959
141 0.000952
142 0.000948
143 0.000945
144 0.000941
145 0.000939
146 0.000931
147 0.000925
148 0.000920
149 0.000920
150 0.000921
151 0.000923
152 0.000924
153 0.000924
154 0.000925
155 0.000924
156 0.000923
157 0.000922
158 0.000921
159 0.000922
160 0.000923
161 0.000923
162 0.000916
163 0.000911
164 0.000907
165 0.000905
166 0.000907
167 0.000907
168 0.000907
169 0.000905
170 0.000901
171 0.000899
172 0.000900
173 0.000899
174 0.000899
175 0.000899
176 0.000896
177 0.000894
178 0.000890
179 0.000886
180 0.000883
181 0.000879
182 0.000876
183 0.000872
184 0.000868
185 0.000867
186 0.000863
187 0.000861
188 0.000856
189 0.000851
190 0.000842
191 0.000829
192 0.000820
193 0.000813
194 0.000809
195 0.000805
196 0.000802
197 0.000801
198 0.000798
199 0.000792
200 0.000789
201 0.000791
202 0.000790
203 0.000785
204 0.000783
205 0.000783
206 0.000779
207 0.000776
208 0.000770
209 0.000767
210 0.000764
211 0.000762
212 0.000763
213 0.000766
214 0.000768
215 0.000765
216 0.000761
217 0.000759
218 0.000758
219 0.000760
220 0.000760
221 0.000760
222 0.000757
223 0.000754
224 0.000754
225 0.000756
226 0.000758
227 0.000761
228 0.000764
229 0.000766
230 0.000766
231 0.000766
232 0.000763
233 0.000764
234 0.000761
235 0.000761
236 0.000759
237 0.000758
238 0.000758
239 0.000760
240 0.000762
241 0.000763
242 0.000761
243 0.000759
244 0.000758
245 0.000755
246 0.000751
247 0.000746
248 0.000742
249 0.000738
250 0.000733
251 0.000726
252 0.000718
253 0.000710
254 0.000701
255 0.000694
256 0.000689
257 0.000687
258 0.000683
259 0.000680
260 0.000676
261 0.000668
262 0.000661
263 0.000660
264 0.000661
265 0.000664
266 0.000662
267 0.000658
268 0.000653
269 0.000648
270 0.000645
271 0.000646
272 0.000646
273 0.000646
274 0.000645
275 0.000644
276 0.000639
277 0.000635
278 0.000634
279 0.000631
280 0.000628
281 0.000628
282 0.000628
283 0.000628
284 0.000626
285 0.000626
286 0.000626
287 0.000627
288 0.000628
289 0.000630
290 0.000632
291 0.000632
292 0.000633
293 0.000632
294 0.000631
295 0.000628
296 0.000619
297 0.000610
298 0.000605
299 0.000598
300 0.000599
301 0.000598
302 0.000602
303 0.000607
304 0.000611
305 0.000615
306 0.000619
307 0.000622
308 0.000626
309 0.000631
310 0.000636
311 0.000636
312 0.000631
313 0.000625
314 0.000617
315 0.000612
316 0.000606
317 0.000601
318 0.000597
319 0.000588
320 0.000584
321 0.000579
322 0.000573
323 0.000569
324 0.000567
325 0.000568
326 0.000571
327 0.000575
328 0.000578
329 0.000579
330 0.000576
331 0.000571
332 0.000564
333 0.000557
334 0.000554
335 0.000549
336 0.000545
337 0.000539
338 0.000537
339 0.000538
340 0.000539
341 0.000541
342 0.000544
343 0.000545
344 0.000543
345 0.000541
346 0.000541
347 0.000542
348 0.000543
349 0.000543
350 0.000542
351 0.000539
352 0.000535
353 0.000534
354 0.000534
355 0.000536
356 0.000537
357 0.000533
358 0.000530
359 0.000527
360 0.000527
361 0.000530
362 0.000532
363 0.000537
364 0.000540
365 0.000541
366 0.000540
367 0.000540
368 0.000536
369 0.000533
370 0.000528
371 0.000525
372 0.000521
373 0.000518
374 0.000516
375 0.000511
376 0.000506
377 0.000500
378 0.000498
379 0.000494
380 0.000492
381 0.000487
382 0.000481
383 0.000476
384 0.000472
385 0.000469
386 0.000465
387 0.000461
388 0.000460
389 0.000461
390 0.000461
391 0.000461
392 0.000458
393 0.000454
394 0.000450
395 0.000442
396 0.000439
397 0.000435
398 0.000431
399 0.000429
400 0.000423
401 0.000423
402 0.000423
403 0.000424
404 0.000424
405 0.000426
406 0.000428
407 0.000432
408 0.000436
409 0.000440
410 0.000443
411 0.000445
412 0.000446
413 0.000446
414 0.000445
415 0.000443
416 0.000446
417 0.000447
418 0.000449
419 0.000450
420 0.000450
421 0.000450
422 0.000451
423 0.000454
424 0.000460
425 0.000466
426 0.000471
427 0.000476
428 0.000477
429 0.000476
430 0.000476
431 0.000476
432 0.000478
433 0.000478
434 0.000474
435 0.000468
436 0.000459
437 0.000452
438 0.000443
439 0.000435
440 0.000430
441 0.000423
442 0.000418
443 0.000415
444 0.000413
445 0.000412
446 0.000411
447 0.000412
448 0.000413
449 0.000411
450 0.000407
451 0.000403
452 0.000400
453 0.000395
454 0.000394
455 0.000393
456 0.000393
457 0.000390
458 0.000386
459 0.000387
460 0.000385
461 0.000386
462 0.000383
463 0.000379
464 0.000377
465 0.000375
466 0.000374
467 0.000374
468 0.000372
469 0.000373
470 0.000378
471 0.000382
472 0.000385
473 0.000383
474 0.000381
475 0.000380
476 0.000381
477 0.000382
478 0.000380
479 0.000381
480 0.000380
481 0.000375
482 0.000370
483 0.000365
484 0.000362
485 0.000360
486 0.000355
487 0.000351
488 0.000348
489 0.000346
490 0.000346
491 0.000342
492 0.000342
493 0.000338
494 0.000335
495 0.000332
496 0.000326
497 0.000320
498 0.000313
499 0.000307
500 0.000303
501 0.000298
502 0.000292
503 0.000287
504 0.000284
505 0.000282
506 0.000280
507 0.000280
508 0.000280
509 0.000280
510 0.000280
511 0.000278
512 0.000276
513 0.000271
514 0.000268
515 0.000263
516 0.000259
517 0.000256
518 0.000253
519 0.000251
520 0.000246
521 0.000244
522 0.000241
523 0.000241
524 0.000241
525 0.000241
526 0.000238
527 0.000238
528 0.000240
529 0.000242
530 0.000242
531 0.000246
532 0.000249
533 0.000254
534 0.000259
535 0.000266
536 0.000273
537 0.000278
538 0.000281
539 0.000286
540 0.000290
541 0.000294
542 0.000297
543 0.000300
544 0.000303
545 0.000300
546 0.000299
547 0.000299
548 0.000300
549 0.000301
550 0.000303
551 0.000302
552 0.000301
553 0.000302
554 0.000300
555 0.000301
556 0.000302
557 0.000304
558 0.000304
559 0.000302
560 0.000302
561 0.000301
562 0.000298
563 0.000296
564 0.000292
565 0.000289
566 0.000284
567 0.000280
568 0.000278
569 0.000274
570 0.000269
571 0.000263
572 0.000257
573 0.000251
574 0.000246
575 0.000246
576 0.000247
577 0.000248
578 0.000247
579 0.000247
580 0.000244
581 0.000241
582 0.000240
583 0.000235
584 0.000233
585 0.000231
586 0.000229
587 0.000226
588 0.000223
589 0.000219
590 0.000218
591 0.000217
592 0.000217
593 0.000217
594 0.000216
595 0.000215
596 0.000209
597 0.000205
598 0.000202
599 0.000200
600 0.000201
601 0.000203
602 0.000202
603 0.000199
604 0.000198
605 0.000196
606 0.000193
607 0.000188
608 0.000184
609 0.000177
610 0.000172
611 0.000168
612 0.000166
613 0.000163
614 0.000161
615 0.000160
616 0.000156
617 0.000155
618 0.000152
619 0.000149
620 0.000151
621 0.000150
622 0.000148
623 0.000142
624 0.000136
625 0.000129
626 0.000123
627 0.000118
628 0.000115
629 0.000112
630 0.000111
631 0.000111
632 0.000111
633 0.000111
634 0.000111
635 0.000110
636 0.000111
637 0.000115
638 0.000120
639 0.000122
640 0.000122
641 0.000122
642 0.000121
643 0.000120
644 0.000120
645 0.000120
646 0.000124
647 0.000124
648 0.000126
649 0.000131
650 0.000132
651 0.000135
652 0.000139
653 0.000141
654 0.000142
655 0.000142
656 0.000144
657 0.000148
658 0.000151
659 0.000154
660 0.000156
661 0.000157
662 0.000159
663 0.000160
664 0.000161
665 0.000164
666 0.000165
667 0.000167
668 0.000172
669 0.000176
670 0.000180
671 0.000184
672 0.000188
673 0.000191
674 0.000194
675 0.000198
676 0.000199
677 0.000200
678 0.000199
679 0.000195
680 0.000191
681 0.000187
682 0.000182
683 0.000176
684 0.000174
685 0.000170
686 0.000165
687 0.000159
688 0.000152
689 0.000148
690 0.000147
691 0.000147
692 0.000149
693 0.000149
694 0.000149
695 0.000150
696 0.000149
697 0.000151
698 0.000152
699 0.000151
700 0.000148
701 0.000145
702 0.000141
703 0.000138
704 0.000136
705 0.000136
706 0.000135
707 0.000134
708 0.000133
709 0.000134
710 0.000137
711 0.000139
712 0.000140
713 0.000141
714 0.000143
715 0.000144
716 0.000145
717 0.000146
718 0.000148
719 0.000151
720 0.000156
721 0.000159
722 0.000159
723 0.000155
724 0.000151
725 0.000148
726 0.000146
727 0.000143
728 0.000141
729 0.000141
730 0.000139
731 0.000137
732 0.000133
733 0.000130
734 0.000126
735 0.000122
736 0.000119
737 0.000117
738 0.000115
739 0.000116
740 0.000115
741 0.000113
742 0.000113
743 0.000111
744 0.000107
745 0.000103
746 0.000097
747 0.000091
748 0.000088
749 0.000084
750 0.000080
751 0.000076
752 0.000073
753 0.000073
754 0.000069
755 0.000067
756 0.000064
757 0.000061
758 0.000060
759 0.000058
760 0.000056
761 0.000054
762 0.000054
763 0.000055
764 0.000056
765 0.000056
766 0.000054
767 0.000050
768 0.000046
769 0.000043
770 0.000038
771 0.000035
772 0.000033
773 0.000032
774 0.000033
775 0.000034
776 0.000035
777 0.000040
778 0.000040
779 0.000041
780 0.000041
781 0.000040
782 0.000040
783 0.000040
784 0.000037
785 0.000038
786 0.000037
787 0.000035
788 0.000032
789 0.000029
790 0.000028
791 0.000022
792 0.000018
793 0.000014
794 0.000011
795 0.000011
796 0.000010
797 0.000009
798 0.000010
799 0.000010
800 0.000012
801 0.000013
802 0.000013
803 0.000011
804 0.000007
805 0.000003
806 0.000001
807 -0.000003
808 -0.000006
809 -0.000009
