# i correlation
1 0.001471
2 0.001430
3 0.001394
4 0.001365
5 0.001341
6 0.001322
7 0.001302
8 0.001282
9 0.001263
10 0.001246
11 0.001230
12 0.001214
13 0.001196
14 0.001187
15 0.001175
16 0.001160
17 0.001150
18 0.001141
19 0.001136
20 0.001134
21 0.001136
22 0.001133
23 0.001127
24 0.001121
25 0.001113
26 0.001106
27 0.001097
28 0.001089
29 0.001082
30 0.001079
31 0.001076
32 0.001074
33 0.001069
34 0.001067
35 0.001063
36 0.001057
37 0.001047
38 0.001041
39 0.001039
40 0.001033
41 0.001032
42 0.001030
43 0.001027
44 0.001020
45 0.001011
46 0.001003
47 0.000995
48 0.000984
49 0.000974
50 0.000963
51 0.000955
52 0.000947
53 0.000944
54 0.000935
55 0.000930
56 0.000925
57 0.000921
58 0.000915
59 0.000909
60 0.000907
61 0.000902
62 0.000899
63 0.000897
64 0.000893
65 0.000885
66 0.000880
67 0.000880
68 0.000875
69 0.000870
70 0.000863
71 0.000856
72 0.000854
73 0.000854
74 0.000855
75 0.000856
76 0.000853
77 0.000853
78 0.000851
79 0.000848
80 0.000845
81 0.000840
82 0.000833
83 0.000830
84 0.000830
85 0.000826
86 0.000822
87 0.000812
88 0.000805
89 0.000797
90 0.000793
91 0.000789
92 0.000787
93 0.000783
94 0.000780
95 0.000781
96 0.000787
97 0.000786
98 0.000786
99 0.000786
100 0.000790
101 0.000791
102 0.000792
103 0.000793
104 0.000790
105 0.000788
106 0.000784
107 0.000780
108 0.000776
109 0.000775
110 0.000773
111 0.000773
112 0.000770
113 0.000769
114 0.000769
115 0.000771
116 0.000769
117 0.000767
118 0.000768
119 0.000767
120 0.000769
121 0.000768
122 0.000767
123 0.000762
124 0.000762
125 0.000762
126 0.000763
127 0.000766
128 0.000766
129 0.000762
130 0.000756
131 0.000747
132 0.000739
133 0.000732
134 0.000728
135 0.000726
136 0.000724
137 0.000725
138 0.000722
139 0.000723
140 0.000722
141 0.000719
142 0.000719
143 0.000715
144 0.000712
145 0.000710
146 0.000706
147 0.000701
148 0.000697
149 0.000692
150 0.000688
151 0.000685
152 0.000681
153 0.000678
154 0.000674
155 0.000674
156 0.000677
157 0.000675
158 0.000672
159 0.000669
160 0.000670
161 0.000666
162 0.000667
163 0.000666
164 0.000665
165 0.000661
166 0.000658
167 0.000658
168 0.000658
169 0.000659
170 0.000659
171 0.000660
172 0.000659
173 0.000661
174 0.000661
175 0.000662
176 0.000662
177 0.000662
178 0.000662
179 0.000658
180 0.000651
181 0.000647
182 0.000642
183 0.000638
184 0.000639
185 0.000635
186 0.000629
187 0.000620
188 0.000613
189 0.000604
190 0.000599
191 0.000599
192 0.000599
193 0.000597
194 0.000596
195 0.000597
196 0.000595
197 0.000595
198 0.000598
199 0.000601
200 0.000600
201 0.000603
202 0.000603
203 0.000605
204 0.000606
205 0.000606
206 0.000603
207 0.000606
208 0.000606
209 0.000606
210 0.000606
211 0.000606
212 0.000603
213 0.000599
214 0.000599
215 0.000600
216 0.000598
217 0.000598
218 0.000596
219 0.000596
220 0.000596
221 0.000594
222 0.000593
223 0.000591
224 0.000588
225 0.000580
226 0.000577
227 0.000574
228 0.000572
229 0.000571
230 0.000570
231 0.000572
232 0.000573
233 0.000577
234 0.000580
235 0.000583
236 0.000585
237 0.000587
238 0.000586
239 0.000587
240 0.000587
241 0.000587
242 0.000589
243 0.000590
244 0.000587
245 0.000584
246 0.000583
247 0.000578
248 0.000578
249 0.000576
250 0.000574
251 0.000571
252 0.000571
253 0.000571
254 0.000571
255 0.000572
256 0.000575
257 0.000578
258 0.000578
259 0.000577
260 0.000578
261 0.000580
262 0.000582
263 0.000582
264 0.000581
265 0.000579
266 0.000575
267 0.000577
268 0.000577
269 0.000577
270 0.000574
271 0.000571
272 0.000567
273 0.000567
274 0.000571
275 0.000576
276 0.000578
277 0.000583
278 0.000584
279 0.000583
280 0.000580
281 0.000576
282 0.000578
283 0.000576
284 0.000575
285 0.000570
286 0.000564
287 0.000560
288 0.000554
289 0.000549
290 0.000543
291 0.000539
292 0.000534
293 0.000530
294 0.000527
295 0.000526
296 0.000524
297 0.000524
298 0.000519
299 0.000518
300 0.000518
301 0.000519
302 0.000514
303 0.000509
304 0.000502
305 0.000495
306 0.000489
307 0.000484
308 0.000483
309 0.000478
310 0.000476
311 0.000475
312 0.000473
313 0.000472
314 0.000469
315 0.000465
316 0.000462
317 0.000458
318 0.000458
319 0.000460
320 0.000464
321 0.000470
322 0.000471
323 0.000473
324 0.000473
325 0.000473
326 0.000469
327 0.000466
328 0.000464
329 0.000465
330 0.000464
331 0.000466
332 0.000467
333 0.000467
334 0.000470
335 0.000475
336 0.000481
337 0.000485
338 0.000487
339 0.000486
340 0.000486
341 0.000482
342 0.000484
343 0.000485
344 0.000486
345 0.000481
346 0.000478
347 0.000469
348 0.000462
349 0.000455
350 0.000448
351 0.000439
352 0.000433
353 0.000429
354 0.000427
355 0.000422
356 0.000417
357 0.000417
358 0.000417
359 0.000418
360 0.000419
361 0.000423
362 0.000421
363 0.000424
364 0.000429
365 0.000432
366 0.000435
367 0.000437
368 0.000438
369 0.000435
370 0.000436
371 0.000436
372 0.000436
373 0.000433
374 0.000433
375 0.000435
376 0.000438
377 0.000438
378 0.000439
379 0.000441
380 0.000442
381 0.000439
382 0.000439
383 0.000436
384 0.000433
385 0.000432
386 0.000433
387 0.000433
388 0.000434
389 0.000434
390 0.000430
391 0.000425
392 0.000422
393 0.000421
394 0.000417
395 0.000415
396 0.000413
397 0.000413
398 0.000412
399 0.000411
400 0.000408
401 0.000407
402 0.000408
403 0.000407
404 0.000407
405 0.000408
406 0.000411
407 0.000414
408 0.000415
409 0.000417
410 0.000418
411 0.000419
412 0.000419
413 0.000417
414 0.000417
415 0.000417
416 0.000419
417 0.000421
418 0.000419
419 0.000419
420 0.000419
421 0.000422
422 0.000419
423 0.000415
424 0.000413
425 0.000405
426 0.000399
427 0.000392
428 0.000388
429 0.000384
430 0.000383
431 0.000382
432 0.000378
433 0.000371
434 0.000368
435 0.000365
436 0.000364
437 0.000362
438 0.000366
439 0.000367
440 0.000370
441 0.000373
442 0.000377
443 0.000378
444 0.000376
445 0.000374
446 0.000372
447 0.000370
448 0.000367
449 0.000366
450 0.000368
451 0.000371
452 0.000374
453 0.000375
454 0.000373
455 0.000370
456 0.000366
457 0.000365
458 0.000362
459 0.000362
460 0.000366
461 0.000367
462 0.000369
463 0.000371
464 0.000368
465 0.000367
466 0.000370
467 0.000368
468 0.000369
469 0.000363
470 0.000359
471 0.000355
472 0.000354
473 0.000353
474 0.000350
475 0.000345
476 0.000341
477 0.000341
478 0.000340
479 0.000337
480 0.000331
481 0.000328
482 0.000325
483 0.000322
484 0.000317
485 0.000317
486 0.000316
487 0.000312
488 0.000310
489 0.000307
490 0.000303
491 0.000303
492 0.000306
493 0.000308
494 0.000305
495 0.000301
496 0.000298
497 0.000294
498 0.000295
499 0.000298
500 0.000299
501 0.000300
502 0.000297
503 0.000294
504 0.000293
505 0.000294
506 0.000290
507 0.000287
508 0.000284
509 0.000280
510 0.000276
511 0.000270
512 0.000267
513 0.000267
514 0.000267
515 0.000266
516 0.000266
517 0.000263
518 0.000258
519 0.000255
520 0.000254
521 0.000254
522 0.000256
523 0.000255
524 0.000253
525 0.000249
526 0.000247
527 0.000243
528 0.000243
529 0.000240
530 0.000239
531 0.000240
532 0.000242
533 0.000243
534 0.000247
535 0.000254
536 0.000259
537 0.000262
538 0.000265
539 0.000265
540 0.000264
541 0.000260
542 0.000260
543 0.000261
544 0.000263
545 0.000266
546 0.000269
547 0.000270
548 0.000269
549 0.000266
550 0.000259
551 0.000253
552 0.000250
553 0.000247
554 0.000244
555 0.000240
556 0.000243
557 0.000243
558 0.000247
559 0.000246
560 0.000245
561 0.000245
562 0.000245
563 0.000243
564 0.000243
565 0.000243
566 0.000242
567 0.000240
568 0.000240
569 0.000240
570 0.000239
571 0.000236
572 0.000234
573 0.000231
574 0.000225
575 0.000218
576 0.000214
577 0.000215
578 0.000216
579 0.000220
580 0.000222
581 0.000224
582 0.000224
583 0.000224
584 0.000223
585 0.000217
586 0.000210
587 0.000205
588 0.000203
589 0.000201
590 0.000195
591 0.000192
592 0.000187
593 0.000185
594 0.000184
595 0.000186
596 0.000186
597 0.000186
598 0.000183
599 0.000182
600 0.000182
601 0.000181
602 0.000182
603 0.000183
604 0.000185
605 0.000189
606 0.000190
607 0.000191
608 0.000192
609 0.000192
610 0.000193
611 0.000192
612 0.000193
613 0.000195
614 0.000196
615 0.000195
616 0.000196
617 0.000194
618 0.000193
619 0.000192
620 0.000192
621 0.000193
622 0.000195
623 0.000196
624 0.000194
625 0.000193
626 0.000191
627 0.000185
628 0.000183
629 0.000181
630 0.000180
631 0.000178
632 0.000177
633 0.000174
634 0.000170
635 0.000167
636 0.000166
637 0.000164
638 0.000163
639 0.000162
640 0.000163
641 0.000166
642 0.000164
643 0.000166
644 0.000171
645 0.000177
646 0.000183
647 0.000189
648 0.000194
649 0.000196
650 0.000198
651 0.000198
652 0.000198
653 0.000198
654 0.000198
655 0.000200
656 0.000203
657 0.000207
658 0.000211
659 0.000213
660 0.000215
661 0.000219
662 0.000223
663 0.000225
664 0.000228
665 0.000232
666 0.000232
667 0.000230
668 0.000228
669 0.000228
670 0.000227
671 0.000227
672 0.000228
673 0.000233
674 0.000238
675 0.000241
676 0.000244
677 0.000248
678 0.000248
679 0.000251
680 0.000254
681 0.000254
682 0.000254
683 0.000256
684 0.000257
685 0.000257
686 0.000258
687 0.000254
688 0.000252
689 0.000250
690 0.000245
691 0.000241
692 0.000239
693 0.000234
694 0.000230
695 0.000224
696 0.000220
697 0.000216
698 0.000213
699 0.000212
700 0.000210
701 0.000206
702 0.000200
703 0.000198
704 0.000198
705 0.000195
706 0.000193
707 0.000196
708 0.000199
709 0.000205
710 0.000208
711 0.000210
712 0.000209
713 0.000211
714 0.000213
715 0.000215
716 0.000215
717 0.000214
718 0.000214
719 0.000211
720 0.000210
721 0.000208
722 0.000204
723 0.000201
724 0.000200
725 0.000198
726 0.000193
727 0.000189
728 0.000183
729 0.000180
730 0.000177
731 0.000175
732 0.000173
733 0.000169
734 0.000165
735 0.000164
736 0.000163
737 0.000160
738 0.000155
739 0.000152
740 0.000148
741 0.000147
742 0.000146
743 0.000148
744 0.000147
745 0.000146
746 0.000146
747 0.000145
748 0.000142
749 0.000139
750 0.000140
751 0.000140
752 0.000140
753 0.000140
754 0.000140
755 0.000138
756 0.000136
757 0.000135
758 0.000132
759 0.000128
760 0.000125
761 0.000124
762 0.000123
763 0.000121
764 0.000116
765 0.000112
766 0.000109
767 0.000105
768 0.000104
769 0.000101
770 0.000096
771 0.000089
772 0.000082
773 0.000078
774 0.000076
775 0.000074
776 0.000074
777 0.000071
778 0.000071
779 0.000071
780 0.000071
781 0.000068
782 0.000068
783 0.000066
784 0.000067
785 0.000067
786 0.000067
787 0.000065
788 0.000064
789 0.000063
790 0.000059
791 0.000056
792 0.000054
793 0.000051
794 0.000048
795 0.000043
796 0.000040
797 0.000038
798 0.000037
799 0.000036
800 0.000038
801 0.000035
802 0.000032
803 0.000029
804 0.000029
805 0.000027
806 0.000029
807 0.000029
808 0.000027
809 0.000026
