# i correlation
1 0.001764
2 0.001717
3 0.001680
4 0.001649
5 0.001621
6 0.001598
7 0.001574
8 0.001553
9 0.001535
10 0.001519
11 0.001506
12 0.001496
13 0.001481
14 0.001467
15 0.001452
16 0.001436
17 0.001427
18 0.001420
19 0.001414
20 0.001411
21 0.001409
22 0.001408
23 0.001400
24 0.001393
25 0.001380
26 0.001365
27 0.001353
28 0.001344
29 0.001334
30 0.001328
31 0.001322
32 0.001317
33 0.001310
34 0.001297
35 0.001289
36 0.001279
37 0.001267
38 0.001254
39 0.001242
40 0.001229
41 0.001224
42 0.001223
43 0.001222
44 0.001217
45 0.001217
46 0.001212
47 0.001204
48 0.001191
49 0.001179
50 0.001168
51 0.001156
52 0.001151
53 0.001148
54 0.001144
55 0.001141
56 0.001136
57 0.001137
58 0.001139
59 0.001139
60 0.001139
61 0.001138
62 0.001134
63 0.001126
64 0.001119
65 0.001118
66 0.001114
67 0.001108
68 0.001101
69 0.001096
70 0.001088
71 0.001076
72 0.001064
73 0.001053
74 0.001048
75 0.001044
76 0.001042
77 0.001040
78 0.001033
79 0.001022
80 0.001013
81 0.001004
82 0.000999
83 0.000992
84 0.000985
85 0.000975
86 0.000965
87 0.000958
88 0.000957
89 0.000958
90 0.000955
91 0.000956
92 0.000959
93 0.000960
94 0.000955
95 0.000949
96 0.000943
97 0.000941
98 0.000937
99 0.000934
100 0.000933
101 0.000930
102 0.000927
103 0.000923
104 0.000924
105 0.000921
106 0.000919
107 0.000918
108 0.000913
109 0.000904
110 0.000894
111 0.000886
112 0.000879
113 0.000870
114 0.000863
115 0.000856
116 0.000848
117 0.000841
118 0.000832
119 0.000830
120 0.000828
121 0.000828
122 0.000826
123 0.000828
124 0.000831
125 0.000833
126 0.000834
127 0.000834
128 0.000833
129 0.000830
130 0.000827
131 0.000825
132 0.000824
133 0.000821
134 0.000820
135 0.000819
136 0.000817
137 0.000810
138 0.000803
139 0.000801
140 0.000797
141 0.000793
142 0.000785
143 0.000778
144 0.000770
145 0.000766
146 0.000763
147 0.000761
148 0.000757
149 0.000753
150 0.000752
151 0.000753
152 0.000756
153 0.000760
154 0.000762
155 0.000766
156 0.000769
157 0.000772
158 0.000777
159 0.000779
160 0.000780
161 0.000784
162 0.000788
163 0.000789
164 0.000784
165 0.000781
166 0.000780
167 0.000782
168 0.000782
169 0.000784
170 0.000786
171 0.000785
172 0.000781
173 0.000776
174 0.000768
175 0.000760
176 0.000757
177 0.000758
178 0.000757
179 0.000758
180 0.000754
181 0.000749
182 0.000744
183 0.000740
184 0.000740
185 0.000739
186 0.000736
187 0.000731
188 0.000730
189 0.000731
190 0.000735
191 0.000739
192 0.000740
193 0.000744
194 0.000744
195 0.000743
196 0.000742
197 0.000742
198 0.000744
199 0.000745
200 0.000743
201 0.000741
202 0.000736
203 0.000734
204 0.000732
205 0.000732
206 0.000729
207 0.000726
208 0.000727
209 0.000728
210 0.000727
211 0.000723
212 0.000723
213 0.000724
214 0.000722
215 0.000718
216 0.000719
217 0.000722
218 0.000721
219 0.000720
220 0.000724
221 0.000723
222 0.000721
223 0.000721
224 0.000720
225 0.000719
226 0.000713
227 0.000709
228 0.000707
229 0.000707
230 0.000707
231 0.000711
232 0.000715
233 0.000717
234 0.000717
235 0.000716
236 0.000717
237 0.000717
238 0.000720
239 0.000719
240 0.000715
241 0.000707
242 0.000700
243 0.000694
244 0.000686
245 0.000679
246 0.000669
247 0.000660
248 0.000649
249 0.000637
250 0.000631
251 0.000626
252 0.000622
253 0.000623
254 0.000624
255 0.000630
256 0.000633
257 0.000634
258 0.000637
259 0.000640
260 0.000644
261 0.000646
262 0.000653
263 0.000655
264 0.000655
265 0.000651
266 0.000653
267 0.000657
268 0.000661
269 0.000657
270 0.000652
271 0.000642
272 0.000631
273 0.000618
274 0.000613
275 0.000612
276 0.000609
277 0.000603
278 0.000597
279 0.000590
280 0.000581
281 0.000576
282 0.000567
283 0.000560
284 0.000551
285 0.000545
286 0.000545
287 0.000547
288 0.000551
289 0.000552
290 0.000554
291 0.000556
292 0.000554
293 0.000551
294 0.000547
295 0.000539
296 0.000535
297 0.000534
298 0.000536
299 0.000537
300 0.000539
301 0.000541
302 0.000539
303 0.000537
304 0.000532
305 0.000528
306 0.000521
307 0.000517
308 0.000513
309 0.000510
310 0.000507
311 0.000501
312 0.000501
313 0.000501
314 0.000496
315 0.000488
316 0.000481
317 0.000475
318 0.000469
319 0.000468
320 0.000471
321 0.000477
322 0.000483
323 0.000488
324 0.000496
325 0.000502
326 0.000502
327 0.000499
328 0.000499
329 0.000499
330 0.000499
331 0.000500
332 0.000503
333 0.000508
334 0.000509
335 0.000511
336 0.000513
337 0.000513
338 0.000509
339 0.000503
340 0.000495
341 0.000486
342 0.000480
343 0.000475
344 0.000474
345 0.000476
346 0.000478
347 0.000475
348 0.000472
349 0.000472
350 0.000470
351 0.000469
352 0.000470
353 0.000469
354 0.000469
355 0.000468
356 0.000470
357 0.000473
358 0.000475
359 0.000477
360 0.000478
361 0.000478
362 0.000474
363 0.000470
364 0.000470
365 0.000470
366 0.000468
367 0.000468
368 0.000470
369 0.000471
370 0.000476
371 0.000478
372 0.000474
373 0.000466
374 0.000460
375 0.000457
376 0.000450
377 0.000444
378 0.000443
379 0.000444
380 0.000445
381 0.000449
382 0.000453
383 0.000455
384 0.000451
385 0.000450
386 0.000445
387 0.000438
388 0.000432
389 0.000427
390 0.000424
391 0.000421
392 0.000422
393 0.000421
394 0.000419
395 0.000417
396 0.000413
397 0.000410
398 0.000407
399 0.000406
400 0.000406
401 0.000405
402 0.000410
403 0.000414
404 0.000416
405 0.000415
406 0.000410
407 0.000404
408 0.000399
409 0.000391
410 0.000386
411 0.000380
412 0.000373
413 0.000367
414 0.000365
415 0.000365
416 0.000364
417 0.000364
418 0.000360
419 0.000352
420 0.000342
421 0.000333
422 0.000323
423 0.000316
424 0.000313
425 0.000309
426 0.000303
427 0.000301
428 0.000299
429 0.000298
430 0.000302
431 0.000299
432 0.000296
433 0.000297
434 0.000297
435 0.000295
436 0.000293
437 0.000294
438 0.000295
439 0.000297
440 0.000297
441 0.000297
442 0.000294
443 0.000289
444 0.000287
445 0.000289
446 0.000291
447 0.000294
448 0.000297
449 0.000300
450 0.000297
451 0.000296
452 0.000295
453 0.000293
454 0.000293
455 0.000292
456 0.000292
457 0.000294
458 0.000298
459 0.000303
460 0.000312
461 0.000316
462 0.000319
463 0.000321
464 0.000319
465 0.000316
466 0.000312
467 0.000307
468 0.000302
469 0.000303
470 0.000302
471 0.000298
472 0.000299
473 0.000297
474 0.000293
475 0.000289
476 0.000284
477 0.000281
478 0.000276
479 0.000275
480 0.000279
481 0.000281
482 0.000280
483 0.000277
484 0.000277
485 0.000278
486 0.000279
487 0.000280
488 0.000277
489 0.000273
490 0.000272
491 0.000274
492 0.000276
493 0.000278
494 0.000280
495 0.000281
496 0.000280
497 0.000280
498 0.000282
499 0.000288
500 0.000290
501 0.000294
502 0.000294
503 0.000294
504 0.000294
505 0.000293
506 0.000292
507 0.000295
508 0.000297
509 0.000297
510 0.000292
511 0.000288
512 0.000287
513 0.000287
514 0.000286
515 0.000285
516 0.000284
517 0.000283
518 0.000282
519 0.000278
520 0.000273
521 0.000272
522 0.000275
523 0.000278
524 0.000281
525 0.000284
526 0.000289
527 0.000294
528 0.000296
529 0.000298
530 0.000301
531 0.000303
532 0.000304
533 0.000304
534 0.000305
535 0.000304
536 0.000304
537 0.000303
538 0.000303
539 0.000302
540 0.000301
541 0.000302
542 0.000301
543 0.000298
544 0.000297
545 0.000297
546 0.000297
547 0.000295
548 0.000290
549 0.000289
550 0.000289
551 0.000289
552 0.000290
553 0.000291
554 0.000289
555 0.000288
556 0.000288
557 0.000288
558 0.000288
559 0.000289
560 0.000290
561 0.000290
562 0.000294
563 0.000298
564 0.000300
565 0.000301
566 0.000300
567 0.000299
568 0.000298
569 0.000299
570 0.000298
571 0.000296
572 0.000292
573 0.000291
574 0.000291
575 0.000290
576 0.000286
577 0.000283
578 0.000279
579 0.000276
580 0.000273
581 0.000270
582 0.000265
583 0.000262
584 0.000260
585 0.000257
586 0.000254
587 0.000256
588 0.000261
589 0.000264
590 0.000264
591 0.000265
592 0.000266
593 0.000268
594 0.000268
595 0.000269
596 0.000269
597 0.000269
598 0.000268
599 0.000268
600 0.000271
601 0.000273
602 0.000275
603 0.000276
604 0.000274
605 0.000273
606 0.000272
607 0.000272
608 0.000269
609 0.000266
610 0.000262
611 0.000259
612 0.000256
613 0.000256
614 0.000252
615 0.000250
616 0.000248
617 0.000243
618 0.000239
619 0.000234
620 0.000233
621 0.000237
622 0.000244
623 0.000250
624 0.000256
625 0.000261
626 0.000264
627 0.000268
628 0.000271
629 0.000268
630 0.000268
631 0.000263
632 0.000258
633 0.000255
634 0.000251
635 0.000246
636 0.000240
637 0.000233
638 0.000228
639 0.000224
640 0.000220
641 0.000214
642 0.000209
643 0.000203
644 0.000196
645 0.000192
646 0.000188
647 0.000184
648 0.000182
649 0.000181
650 0.000183
651 0.000182
652 0.000179
653 0.000177
654 0.000177
655 0.000175
656 0.000173
657 0.000173
658 0.000175
659 0.000174
660 0.000174
661 0.000174
662 0.000176
663 0.000177
664 0.000176
665 0.000175
666 0.000175
667 0.000174
668 0.000174
669 0.000174
670 0.000177
671 0.000183
672 0.000187
673 0.000189
674 0.000189
675 0.000187
676 0.000184
677 0.000182
678 0.000180
679 0.000178
680 0.000178
681 0.000177
682 0.000176
683 0.000176
684 0.000173
685 0.000174
686 0.000175
687 0.000172
688 0.000168
689 0.000164
690 0.000158
691 0.000154
692 0.000153
693 0.000154
694 0.000154
695 0.000154
696 0.000150
697 0.000150
698 0.000148
699 0.000147
700 0.000146
701 0.000144
702 0.000141
703 0.000139
704 0.000138
705 0.000140
706 0.000141
707 0.000145
708 0.000147
709 0.000147
710 0.000145
711 0.000142
712 0.000139
713 0.000135
714 0.000132
715 0.000132
716 0.000133
717 0.000135
718 0.000134
719 0.000132
720 0.000129
721 0.000126
722 0.000123
723 0.000122
724 0.000123
725 0.000127
726 0.000128
727 0.000130
728 0.000133
729 0.000135
730 0.000140
731 0.000144
732 0.000149
733 0.000148
734 0.000148
735 0.000147
736 0.000146
737 0.000145
738 0.000144
739 0.000142
740 0.000141
741 0.000139
742 0.000137
743 0.000137
744 0.000134
745 0.000129
746 0.000124
747 0.000123
748 0.000122
749 0.000123
750 0.000127
751 0.000128
752 0.000128
753 0.000128
754 0.000130
755 0.000130
756 0.000131
757 0.000129
758 0.000128
759 0.000126
760 0.000127
761 0.000130
762 0.000135
763 0.000139
764 0.000140
765 0.000139
766 0.000138
767 0.000140
768 0.000141
769 0.000142
770 0.000142
771 0.000141
772 0.000141
773 0.000142
774 0.000141
775 0.000141
776 0.000140
777 0.000140
778 0.000140
779 0.000142
780 0.000141
781 0.000139
782 0.000139
783 0.000140
784 0.000143
785 0.000147
786 0.000150
787 0.000150
788 0.000146
789 0.000144
790 0.000144
791 0.000141
792 0.000141
793 0.000143
794 0.000143
795 0.000143
796 0.000141
797 0.000138
798 0.000136
799 0.000134
800 0.000131
801 0.000128
802 0.000127
803 0.000123
804 0.000119
805 0.000113
806 0.000109
807 0.000104
808 0.000100
809 0.000098
