# i correlation
1 0.001744
2 0.001698
3 0.001657
4 0.001617
5 0.001585
6 0.001554
7 0.001522
8 0.001494
9 0.001469
10 0.001443
11 0.001423
12 0.001407
13 0.001392
14 0.001378
15 0.001364
16 0.001352
17 0.001342
18 0.001338
19 0.001332
20 0.001326
21 0.001323
22 0.001318
23 0.001309
24 0.001303
25 0.001300
26 0.001292
27 0.001288
28 0.001285
29 0.001279
30 0.001268
31 0.001258
32 0.001249
33 0.001242
34 0.001237
35 0.001232
36 0.001225
37 0.001222
38 0.001219
39 0.001213
40 0.001204
41 0.001191
42 0.001180
43 0.001171
44 0.001162
45 0.001157
46 0.001154
47 0.001147
48 0.001142
49 0.001132
50 0.001123
51 0.001114
52 0.001102
53 0.001091
54 0.001080
55 0.001068
56 0.001058
57 0.001048
58 0.001037
59 0.001025
60 0.001017
61 0.001009
62 0.001002
63 0.000998
64 0.000995
65 0.000995
66 0.000998
67 0.000999
68 0.000995
69 0.000987
70 0.000983
71 0.000979
72 0.000978
73 0.000977
74 0.000972
75 0.000972
76 0.000977
77 0.000982
78 0.000984
79 0.000984
80 0.000979
81 0.000971
82 0.000964
83 0.000960
84 0.000954
85 0.000952
86 0.000948
87 0.000943
88 0.000938
89 0.000936
90 0.000933
91 0.000928
92 0.000925
93 0.000919
94 0.000913
95 0.000908
96 0.000905
97 0.000904
98 0.000902
99 0.000899
100 0.000897
101 0.000890
102 0.000882
103 0.000875
104 0.000866
105 0.000859
106 0.000851
107 0.000843
108 0.000836
109 0.000829
110 0.000825
111 0.000820
112 0.000816
113 0.000812
114 0.000810
115 0.000809
116 0.000806
117 0.000801
118 0.000798
119 0.000794
120 0.000790
121 0.000787
122 0.000785
123 0.000781
124 0.000777
125 0.000771
126 0.000765
127 0.000759
128 0.000754
129 0.000748
130 0.000743
131 0.000735
132 0.000727
133 0.000722
134 0.000721
135 0.000723
136 0.000725
137 0.000723
138 0.000723
139 0.000722
140 0.000718
141 0.000713
142 0.000707
143 0.000712
144 0.000715
145 0.000716
146 0.000711
147 0.000708
148 0.000705
149 0.000706
150 0.000702
151 0.000699
152 0.000695
153 0.000691
154 0.000683
155 0.000673
156 0.000666
157 0.000660
158 0.000658
159 0.000650
160 0.000643
161 0.000635
162 0.000627
163 0.000624
164 0.000619
165 0.000618
166 0.000616
167 0.000613
168 0.000610
169 0.000604
170 0.000599
171 0.000592
172 0.000589
173 0.000586
174 0.000584
175 0.000587
176 0.000589
177 0.000593
178 0.000596
179 0.000599
180 0.000601
181 0.000603
182 0.000601
183 0.000599
184 0.000599
185 0.000602
186 0.000607
187 0.000614
188 0.000619
189 0.000621
190 0.000619
191 0.000618
192 0.000617
193 0.000614
194 0.000609
195 0.000602
196 0.000596
197 0.000588
198 0.000578
199 0.000570
200 0.000565
201 0.000561
202 0.000559
203 0.000558
204 0.000555
205 0.000555
206 0.000555
207 0.000551
208 0.000545
209 0.000538
210 0.000536
211 0.000533
212 0.000536
213 0.000538
214 0.000539
215 0.000543
216 0.000547
217 0.000547
218 0.000546
219 0.000544
220 0.000543
221 0.000544
222 0.000544
223 0.000545
224 0.000550
225 0.000554
226 0.000558
227 0.000561
228 0.000561
229 0.000563
230 0.000566
231 0.000569
232 0.000567
233 0.000561
234 0.000559
235 0.000557
236 0.000553
237 0.000552
238 0.000549
239 0.000547
240 0.000543
241 0.000542
242 0.000545
243 0.000548
244 0.000549
245 0.000550
246 0.000546
247 0.000537
248 0.000529
249 0.000524
250 0.000515
251 0.000511
252 0.000506
253 0.000503
254 0.000500
255 0.000495
256 0.000492
257 0.000491
258 0.000490
259 0.000490
260 0.000492
261 0.000493
262 0.000492
263 0.000494
264 0.000497
265 0.000505
266 0.000514
267 0.000522
268 0.000530
269 0.000537
270 0.000546
271 0.000552
272 0.000558
273 0.000563
274 0.000564
275 0.000561
276 0.000555
277 0.000549
278 0.000543
279 0.000541
280 0.000540
281 0.000536
282 0.000535
283 0.000532
284 0.000530
285 0.000530
286 0.000531
287 0.000531
288 0.000534
289 0.000535
290 0.000537
291 0.000539
292 0.000541
293 0.000540
294 0.000537
295 0.000536
296 0.000531
297 0.000531
298 0.000530
299 0.000527
300 0.000529
301 0.000529
302 0.000533
303 0.000535
304 0.000532
305 0.000533
306 0.000532
307 0.000532
308 0.000531
309 0.000528
310 0.000522
311 0.000516
312 0.000509
313 0.000506
314 0.000501
315 0.000500
316 0.000496
317 0.000491
318 0.000487
319 0.000484
320 0.000487
321 0.000488
322 0.000489
323 0.000491
324 0.000492
325 0.000493
326 0.000493
327 0.000493
328 0.000494
329 0.000495
330 0.000495
331 0.000496
332 0.000494
333 0.000492
334 0.000491
335 0.000490
336 0.000492
337 0.000494
338 0.000497
339 0.000500
340 0.000504
341 0.000504
342 0.000503
343 0.000501
344 0.000498
345 0.000496
346 0.000494
347 0.000489
348 0.000484
349 0.000478
350 0.000478
351 0.000478
352 0.000478
353 0.000477
354 0.000478
355 0.000478
356 0.000478
357 0.000475
358 0.000473
359 0.000475
360 0.000473
361 0.000472
362 0.000471
363 0.000468
364 0.000470
365 0.000472
366 0.000473
367 0.000470
368 0.000469
369 0.000467
370 0.000466
371 0.000467
372 0.000463
373 0.000462
374 0.000459
375 0.000461
376 0.000460
377 0.000459
378 0.000462
379 0.000462
380 0.000464
381 0.000466
382 0.000462
383 0.000461
384 0.000459
385 0.000455
386 0.000450
387 0.000450
388 0.000448
389 0.000445
390 0.000444
391 0.000443
392 0.000447
393 0.000448
394 0.000447
395 0.000444
396 0.000443
397 0.000444
398 0.000442
399 0.000441
400 0.000441
401 0.000440
402 0.000438
403 0.000437
404 0.000433
405 0.000433
406 0.000435
407 0.000435
408 0.000434
409 0.000435
410 0.000438
411 0.000433
412 0.000429
413 0.000424
414 0.000418
415 0.000410
416 0.000405
417 0.000402
418 0.000403
419 0.000405
420 0.000403
421 0.000406
422 0.000408
423 0.000411
424 0.000414
425 0.000415
426 0.000417
427 0.000417
428 0.000420
429 0.000423
430 0.000424
431 0.000429
432 0.000433
433 0.000437
434 0.000436
435 0.000433
436 0.000430
437 0.000429
438 0.000429
439 0.000425
440 0.000418
441 0.000414
442 0.000409
443 0.000405
444 0.000402
445 0.000399
446 0.000398
447 0.000400
448 0.000400
449 0.000397
450 0.000396
451 0.000395
452 0.000393
453 0.000393
454 0.000393
455 0.000390
456 0.000392
457 0.000395
458 0.000398
459 0.000403
460 0.000405
461 0.000405
462 0.000408
463 0.000409
464 0.000409
465 0.000410
466 0.000410
467 0.000410
468 0.000407
469 0.000404
470 0.000401
471 0.000398
472 0.000395
473 0.000392
474 0.000389
475 0.000389
476 0.000389
477 0.000386
478 0.000385
479 0.000383
480 0.000382
481 0.000384
482 0.000382
483 0.000382
484 0.000383
485 0.000382
486 0.000379
487 0.000374
488 0.000369
489 0.000364
490 0.000361
491 0.000355
492 0.000350
493 0.000347
494 0.000344
495 0.000345
496 0.000347
497 0.000346
498 0.000344
499 0.000344
500 0.000341
501 0.000337
502 0.000336
503 0.000331
504 0.000326
505 0.000321
506 0.000312
507 0.000302
508 0.000294
509 0.000288
510 0.000284
511 0.000277
512 0.000270
513 0.000263
514 0.000258
515 0.000255
516 0.000250
517 0.000249
518 0.000248
519 0.000246
520 0.000245
521 0.000241
522 0.000239
523 0.000238
524 0.000240
525 0.000241
526 0.000240
527 0.000240
528 0.000241
529 0.000240
530 0.000239
531 0.000241
532 0.000243
533 0.000247
534 0.000247
535 0.000244
536 0.000243
537 0.000240
538 0.000236
539 0.000232
540 0.000227
541 0.000222
542 0.000217
543 0.000212
544 0.000207
545 0.000203
546 0.000199
547 0.000197
548 0.000195
549 0.000188
550 0.000187
551 0.000185
552 0.000185
553 0.000186
554 0.000183
555 0.000178
556 0.000174
557 0.000170
558 0.000164
559 0.000161
560 0.000158
561 0.000154
562 0.000152
563 0.000151
564 0.000148
565 0.000147
566 0.000148
567 0.000149
568 0.000154
569 0.000151
570 0.000151
571 0.000151
572 0.000154
573 0.000158
574 0.000161
575 0.000164
576 0.000167
577 0.000171
578 0.000174
579 0.000173
580 0.000172
581 0.000174
582 0.000179
583 0.000181
584 0.000182
585 0.000180
586 0.000177
587 0.000171
588 0.000162
589 0.000153
590 0.000145
591 0.000136
592 0.000126
593 0.000118
594 0.000110
595 0.000108
596 0.000105
597 0.000103
598 0.000100
599 0.000099
600 0.000100
601 0.000100
602 0.000102
603 0.000104
604 0.000103
605 0.000103
606 0.000102
607 0.000102
608 0.000104
609 0.000103
610 0.000104
611 0.000107
612 0.000106
613 0.000105
614 0.000102
615 0.000094
616 0.000089
617 0.000083
618 0.000079
619 0.000074
620 0.000070
621 0.000067
622 0.000065
623 0.000062
624 0.000061
625 0.000057
626 0.000052
627 0.000044
628 0.000038
629 0.000036
630 0.000035
631 0.000035
632 0.000036
633 0.000037
634 0.000035
635 0.000033
636 0.000031
637 0.000029
638 0.000030
639 0.000031
640 0.000031
641 0.000033
642 0.000031
643 0.000032
644 0.000033
645 0.000035
646 0.000038
647 0.000041
648 0.000045
649 0.000047
650 0.000052
651 0.000059
652 0.000064
653 0.000074
654 0.000081
655 0.000085
656 0.000089
657 0.000092
658 0.000094
659 0.000095
660 0.000096
661 0.000095
662 0.000097
663 0.000101
664 0.000103
665 0.000101
666 0.000098
667 0.000095
668 0.000094
669 0.000094
670 0.000094
671 0.000095
672 0.000098
673 0.000100
674 0.000100
675 0.000104
676 0.000107
677 0.000110
678 0.000116
679 0.000118
680 0.000119
681 0.000118
682 0.000118
683 0.000118
684 0.000119
685 0.000117
686 0.000115
687 0.000113
688 0.000110
689 0.000107
690 0.000104
691 0.000105
692 0.000104
693 0.000103
694 0.000098
695 0.000093
696 0.000092
697 0.000094
698 0.000097
699 0.000100
700 0.000102
701 0.000104
702 0.000105
703 0.000103
704 0.000100
705 0.000098
706 0.000094
707 0.000090
708 0.000085
709 0.000081
710 0.000077
711 0.000075
712 0.000074
713 0.000072
714 0.000070
715 0.000066
716 0.000062
717 0.000059
718 0.000056
719 0.000052
720 0.000053
721 0.000058
722 0.000058
723 0.000061
724 0.000063
725 0.000064
726 0.000066
727 0.000066
728 0.000065
729 0.000064
730 0.000066
731 0.000068
732 0.000070
733 0.000072
734 0.000074
735 0.000073
736 0.000074
737 0.000073
738 0.000073
739 0.000075
740 0.000075
741 0.000073
742 0.000071
743 0.000068
744 0.000067
745 0.000066
746 0.000064
747 0.000063
748 0.000064
749 0.000068
750 0.000068
751 0.000072
752 0.000078
753 0.000083
754 0.000088
755 0.000094
756 0.000098
757 0.000102
758 0.000103
759 0.000107
760 0.000109
761 0.000112
762 0.000116
763 0.000123
764 0.000128
765 0.000129
766 0.000131
767 0.000133
768 0.000134
769 0.000137
770 0.000138
771 0.000139
772 0.000139
773 0.000138
774 0.000136
775 0.000133
776 0.000132
777 0.000131
778 0.000129
779 0.000123
780 0.000116
781 0.000111
782 0.000105
783 0.000100
784 0.000098
785 0.000093
786 0.000088
787 0.000086
788 0.000084
789 0.000085
790 0.000089
791 0.000093
792 0.000095
793 0.000095
794 0.000094
795 0.000091
796 0.000087
797 0.000087
798 0.000088
799 0.000093
800 0.000096
801 0.000100
802 0.000105
803 0.000107
804 0.000109
805 0.000111
806 0.000112
807 0.000111
808 0.000110
809 0.000109
