# i correlation
1 0.001874
2 0.001831
3 0.001797
4 0.001764
5 0.001738
6 0.001717
7 0.001696
8 0.001676
9 0.001661
10 0.001651
11 0.001640
12 0.001631
13 0.001624
14 0.001616
15 0.001607
16 0.001600
17 0.001591
18 0.001580
19 0.001566
20 0.001558
21 0.001545
22 0.001533
23 0.001521
24 0.001501
25 0.001485
26 0.001474
27 0.001463
28 0.001456
29 0.001455
30 0.001450
31 0.001444
32 0.001436
33 0.001428
34 0.001418
35 0.001411
36 0.001400
37 0.001389
38 0.001371
39 0.001357
40 0.001345
41 0.001331
42 0.001311
43 0.001300
44 0.001291
45 0.001281
46 0.001269
47 0.001258
48 0.001247
49 0.001240
50 0.001233
51 0.001234
52 0.001233
53 0.001229
54 0.001224
55 0.001218
56 0.001211
57 0.001206
58 0.001201
59 0.001191
60 0.001182
61 0.001176
62 0.001171
63 0.001168
64 0.001165
65 0.001159
66 0.001158
67 0.001155
68 0.001149
69 0.001144
70 0.001139
71 0.001135
72 0.001131
73 0.001129
74 0.001132
75 0.001131
76 0.001127
77 0.001123
78 0.001117
79 0.001111
80 0.001113
81 0.001116
82 0.001114
83 0.001112
84 0.001110
85 0.001103
86 0.001102
87 0.001101
88 0.001101
89 0.001105
90 0.001105
91 0.001103
92 0.001102
93 0.001095
94 0.001087
95 0.001080
96 0.001076
97 0.001070
98 0.001068
99 0.001062
100 0.001057
101 0.001052
102 0.001050
103 0.001047
104 0.001045
105 0.001041
106 0.001039
107 0.001032
108 0.001018
109 0.001012
110 0.001005
111 0.001004
112 0.001001
113 0.000999
114 0.000995
115 0.000992
116 0.000987
117 0.000983
118 0.000981
119 0.000976
120 0.000971
121 0.000966
122 0.000953
123 0.000940
124 0.000932
125 0.000925
126 0.000916
127 0.000911
128 0.000908
129 0.000904
130 0.000895
131 0.000887
132 0.000881
133 0.000878
134 0.000873
135 0.000870
136 0.000865
137 0.000863
138 0.000861
139 0.000853
140 0.000847
141 0.000843
142 0.000840
143 0.000837
144 0.000835
145 0.000832
146 0.000834
147 0.000835
148 0.000835
149 0.000833
150 0.000836
151 0.000836
152 0.000831
153 0.000826
154 0.000821
155 0.000817
156 0.000813
157 0.000811
158 0.000807
159 0.000800
160 0.000794
161 0.000792
162 0.000791
163 0.000786
164 0.000784
165 0.000779
166 0.000774
167 0.000771
168 0.000773
169 0.000772
170 0.000769
171 0.000767
172 0.000767
173 0.000772
174 0.000773
175 0.000779
176 0.000783
177 0.000783
178 0.000786
179 0.000787
180 0.000786
181 0.000788
182 0.000789
183 0.000786
184 0.000783
185 0.000784
186 0.000785
187 0.000784
188 0.000782
189 0.000780
190 0.000777
191 0.000776
192 0.000772
193 0.000769
194 0.000766
195 0.000766
196 0.000760
197 0.000756
198 0.000757
199 0.000757
200 0.000752
201 0.000748
202 0.000741
203 0.000734
204 0.000732
205 0.000732
206 0.000731
207 0.000729
208 0.000727
209 0.000724
210 0.000717
211 0.000713
212 0.000713
213 0.000713
214 0.000718
215 0.000720
216 0.000723
217 0.000727
218 0.000732
219 0.000731
220 0.000730
221 0.000728
222 0.000723
223 0.000718
224 0.000714
225 0.000707
226 0.000704
227 0.000708
228 0.000710
229 0.000711
230 0.000715
231 0.000717
232 0.000717
233 0.000717
234 0.000718
235 0.000719
236 0.000719
237 0.000714
238 0.000709
239 0.000706
240 0.000701
241 0.000696
242 0.000693
243 0.000691
244 0.000689
245 0.000684
246 0.000674
247 0.000670
248 0.000667
249 0.000663
250 0.000662
251 0.000662
252 0.000667
253 0.000672
254 0.000672
255 0.000666
256 0.000661
257 0.000654
258 0.000646
259 0.000647
260 0.000647
261 0.000646
262 0.000645
263 0.000643
264 0.000642
265 0.000643
266 0.000642
267 0.000639
268 0.000630
269 0.000628
270 0.000624
271 0.000625
272 0.000625
273 0.000621
274 0.000619
275 0.000619
276 0.000614
277 0.000612
278 0.000612
279 0.000613
280 0.000616
281 0.000619
282 0.000621
283 0.000620
284 0.000617
285 0.000614
286 0.000610
287 0.000605
288 0.000598
289 0.000589
290 0.000583
291 0.000577
292 0.000572
293 0.000572
294 0.000570
295 0.000569
296 0.000572
297 0.000572
298 0.000570
299 0.000567
300 0.000567
301 0.000565
302 0.000555
303 0.000546
304 0.000542
305 0.000538
306 0.000538
307 0.000531
308 0.000525
309 0.000517
310 0.000521
311 0.000524
312 0.000523
313 0.000522
314 0.000518
315 0.000516
316 0.000513
317 0.000510
318 0.000510
319 0.000511
320 0.000511
321 0.000506
322 0.000503
323 0.000503
324 0.000499
325 0.000499
326 0.000500
327 0.000501
328 0.000501
329 0.000496
330 0.000495
331 0.000492
332 0.000490
333 0.000491
334 0.000492
335 0.000492
336 0.000492
337 0.000493
338 0.000490
339 0.000487
340 0.000483
341 0.000477
342 0.000473
343 0.000468
344 0.000461
345 0.000456
346 0.000453
347 0.000445
348 0.000438
349 0.000435
350 0.000431
351 0.000430
352 0.000429
353 0.000424
354 0.000421
355 0.000422
356 0.000422
357 0.000421
358 0.000417
359 0.000420
360 0.000419
361 0.000417
362 0.000415
363 0.000414
364 0.000412
365 0.000411
366 0.000410
367 0.000410
368 0.000416
369 0.000420
370 0.000422
371 0.000424
372 0.000428
373 0.000431
374 0.000436
375 0.000438
376 0.000441
377 0.000442
378 0.000441
379 0.000439
380 0.000439
381 0.000440
382 0.000439
383 0.000437
384 0.000435
385 0.000431
386 0.000430
387 0.000428
388 0.000426
389 0.000430
390 0.000434
391 0.000437
392 0.000442
393 0.000447
394 0.000449
395 0.000451
396 0.000453
397 0.000454
398 0.000455
399 0.000457
400 0.000462
401 0.000462
402 0.000463
403 0.000467
404 0.000472
405 0.000473
406 0.000476
407 0.000478
408 0.000478
409 0.000482
410 0.000481
411 0.000479
412 0.000480
413 0.000479
414 0.000476
415 0.000477
416 0.000478
417 0.000481
418 0.000481
419 0.000479
420 0.000477
421 0.000478
422 0.000477
423 0.000476
424 0.000471
425 0.000465
426 0.000464
427 0.000459
428 0.000456
429 0.000453
430 0.000452
431 0.000447
432 0.000443
433 0.000438
434 0.000436
435 0.000435
436 0.000432
437 0.000424
438 0.000417
439 0.000414
440 0.000411
441 0.000412
442 0.000414
443 0.000416
444 0.000417
445 0.000416
446 0.000415
447 0.000414
448 0.000415
449 0.000416
450 0.000417
451 0.000420
452 0.000424
453 0.000424
454 0.000424
455 0.000421
456 0.000418
457 0.000418
458 0.000419
459 0.000419
460 0.000418
461 0.000417
462 0.000415
463 0.000413
464 0.000408
465 0.000404
466 0.000400
467 0.000396
468 0.000393
469 0.000389
470 0.000388
471 0.000388
472 0.000391
473 0.000396
474 0.000401
475 0.000406
476 0.000408
477 0.000407
478 0.000410
479 0.000415
480 0.000417
481 0.000422
482 0.000423
483 0.000425
484 0.000422
485 0.000420
486 0.000420
487 0.000422
488 0.000423
489 0.000425
490 0.000424
491 0.000422
492 0.000419
493 0.000419
494 0.000419
495 0.000420
496 0.000423
497 0.000425
498 0.000428
499 0.000430
500 0.000430
501 0.000430
502 0.000428
503 0.000425
504 0.000421
505 0.000421
506 0.000421
507 0.000421
508 0.000420
509 0.000419
510 0.000424
511 0.000429
512 0.000433
513 0.000435
514 0.000438
515 0.000441
516 0.000444
517 0.000446
518 0.000446
519 0.000443
520 0.000436
521 0.000430
522 0.000424
523 0.000415
524 0.000410
525 0.000405
526 0.000404
527 0.000406
528 0.000406
529 0.000403
530 0.000400
531 0.000397
532 0.000398
533 0.000399
534 0.000398
535 0.000394
536 0.000389
537 0.000386
538 0.000382
539 0.000377
540 0.000373
541 0.000369
542 0.000366
543 0.000361
544 0.000358
545 0.000355
546 0.000352
547 0.000352
548 0.000351
549 0.000352
550 0.000355
551 0.000358
552 0.000355
553 0.000351
554 0.000349
555 0.000351
556 0.000350
557 0.000350
558 0.000349
559 0.000348
560 0.000348
561 0.000348
562 0.000350
563 0.000354
564 0.000358
565 0.000359
566 0.000356
567 0.000358
568 0.000357
569 0.000355
570 0.000355
571 0.000353
572 0.000349
573 0.000350
574 0.000347
575 0.000345
576 0.000341
577 0.000338
578 0.000340
579 0.000342
580 0.000342
581 0.000341
582 0.000341
583 0.000339
584 0.000338
585 0.000337
586 0.000331
587 0.000329
588 0.000324
589 0.000318
590 0.000316
591 0.000317
592 0.000318
593 0.000320
594 0.000324
595 0.000324
596 0.000326
597 0.000327
598 0.000330
599 0.000331
600 0.000332
601 0.000331
602 0.000331
603 0.000331
604 0.000334
605 0.000335
606 0.000335
607 0.000335
608 0.000335
609 0.000332
610 0.000327
611 0.000323
612 0.000320
613 0.000318
614 0.000316
615 0.000313
616 0.000314
617 0.000311
618 0.000309
619 0.000306
620 0.000300
621 0.000297
622 0.000291
623 0.000284
624 0.000279
625 0.000276
626 0.000276
627 0.000275
628 0.000277
629 0.000276
630 0.000275
631 0.000277
632 0.000277
633 0.000278
634 0.000277
635 0.000276
636 0.000277
637 0.000276
638 0.000273
639 0.000273
640 0.000272
641 0.000270
642 0.000270
643 0.000268
644 0.000265
645 0.000266
646 0.000267
647 0.000268
648 0.000271
649 0.000271
650 0.000273
651 0.000277
652 0.000276
653 0.000280
654 0.000280
655 0.000279
656 0.000282
657 0.000284
658 0.000285
659 0.000286
660 0.000284
661 0.000284
662 0.000285
663 0.000287
664 0.000288
665 0.000291
666 0.000292
667 0.000293
668 0.000297
669 0.000303
670 0.000307
671 0.000313
672 0.000314
673 0.000315
674 0.000317
675 0.000317
676 0.000319
677 0.000319
678 0.000316
679 0.000317
680 0.000317
681 0.000315
682 0.000316
683 0.000317
684 0.000317
685 0.000317
686 0.000319
687 0.000321
688 0.000322
689 0.000323
690 0.000322
691 0.000322
692 0.000318
693 0.000315
694 0.000315
695 0.000313
696 0.000314
697 0.000316
698 0.000313
699 0.000308
700 0.000307
701 0.000305
702 0.000303
703 0.000303
704 0.000305
705 0.000309
706 0.000312
707 0.000313
708 0.000315
709 0.000314
710 0.000312
711 0.000309
712 0.000306
713 0.000303
714 0.000301
715 0.000299
716 0.000296
717 0.000299
718 0.000297
719 0.000294
720 0.000293
721 0.000290
722 0.000287
723 0.000284
724 0.000281
725 0.000277
726 0.000278
727 0.000279
728 0.000280
729 0.000278
730 0.000274
731 0.000274
732 0.000273
733 0.000274
734 0.000276
735 0.000278
736 0.000279
737 0.000279
738 0.000280
739 0.000279
740 0.000280
741 0.000280
742 0.000283
743 0.000282
744 0.000281
745 0.000280
746 0.000282
747 0.000281
748 0.000280
749 0.000280
750 0.000279
751 0.000278
752 0.000278
753 0.000275
754 0.000275
755 0.000275
756 0.000276
757 0.000276
758 0.000277
759 0.000275
760 0.000275
761 0.000277
762 0.000277
763 0.000277
764 0.000277
765 0.000276
766 0.000272
767 0.000267
768 0.000265
769 0.000266
770 0.000263
771 0.000263
772 0.000262
773 0.000258
774 0.000253
775 0.000250
776 0.000246
777 0.000245
778 0.000247
779 0.000249
780 0.000251
781 0.000252
782 0.000254
783 0.000255
784 0.000255
785 0.000255
786 0.000257
787 0.000258
788 0.000256
789 0.000254
790 0.000251
791 0.000251
792 0.000250
793 0.000251
794 0.000253
795 0.000251
796 0.000252
797 0.000255
798 0.000261
799 0.000266
800 0.000269
801 0.000271
802 0.000271
803 0.000268
804 0.000266
805 0.000259
806 0.000251
807 0.000244
808 0.000236
809 0.000230
