# i correlation
1 0.001494
2 0.001451
3 0.001416
4 0.001388
5 0.001363
6 0.001341
7 0.001320
8 0.001304
9 0.001295
10 0.001291
11 0.001281
12 0.001273
13 0.001258
14 0.001245
15 0.001231
16 0.001217
17 0.001205
18 0.001198
19 0.001190
20 0.001186
21 0.001181
22 0.001172
23 0.001165
24 0.001156
25 0.001140
26 0.001131
27 0.001120
28 0.001112
29 0.001101
30 0.001094
31 0.001090
32 0.001087
33 0.001080
34 0.001070
35 0.001059
36 0.001052
37 0.001043
38 0.001035
39 0.001024
40 0.001016
41 0.001008
42 0.001003
43 0.000998
44 0.000996
45 0.000996
46 0.000995
47 0.000996
48 0.000993
49 0.000988
50 0.000988
51 0.000987
52 0.000984
53 0.000978
54 0.000975
55 0.000967
56 0.000961
57 0.000955
58 0.000950
59 0.000945
60 0.000940
61 0.000935
62 0.000922
63 0.000908
64 0.000899
65 0.000890
66 0.000883
67 0.000876
68 0.000868
69 0.000862
70 0.000861
71 0.000860
72 0.000854
73 0.000852
74 0.000852
75 0.000852
76 0.000852
77 0.000851
78 0.000850
79 0.000852
80 0.000855
81 0.000856
82 0.000856
83 0.000850
84 0.000845
85 0.000843
86 0.000841
87 0.000839
88 0.000838
89 0.000835
90 0.000831
91 0.000828
92 0.000822
93 0.000814
94 0.000807
95 0.000801
96 0.000795
97 0.000788
98 0.000787
99 0.000785
100 0.000781
101 0.000776
102 0.000770
103 0.000768
104 0.000760
105 0.000754
106 0.000746
107 0.000738
108 0.000732
109 0.000726
110 0.000720
111 0.000716
112 0.000712
113 0.000707
114 0.000701
115 0.000694
116 0.000688
117 0.000686
118 0.000682
119 0.000679
120 0.000674
121 0.000671
122 0.000663
123 0.000654
124 0.000648
125 0.000644
126 0.000640
127 0.000636
128 0.000635
129 0.000636
130 0.000636
131 0.000641
132 0.000643
133 0.000642
134 0.000639
135 0.000637
136 0.000637
137 0.000637
138 0.000636
139 0.000634
140 0.000628
141 0.000625
142 0.000621
143 0.000621
144 0.000621
145 0.000623
146 0.000625
147 0.000628
148 0.000631
149 0.000636
150 0.000640
151 0.000640
152 0.000639
153 0.000636
154 0.000627
155 0.000619
156 0.000610
157 0.000600
158 0.000590
159 0.000586
160 0.000582
161 0.000577
162 0.000573
163 0.000567
164 0.000564
165 0.000564
166 0.000566
167 0.000567
168 0.000562
169 0.000558
170 0.000553
171 0.000551
172 0.000546
173 0.000543
174 0.000538
175 0.000531
176 0.000526
177 0.000524
178 0.000520
179 0.000516
180 0.000512
181 0.000506
182 0.000499
183 0.000492
184 0.000482
185 0.000474
186 0.000470
187 0.000468
188 0.000465
189 0.000462
190 0.000462
191 0.000460
192 0.000456
193 0.000451
194 0.000449
195 0.000444
196 0.000433
197 0.000429
198 0.000422
199 0.000415
200 0.000412
201 0.000412
202 0.000408
203 0.000407
204 0.000410
205 0.000414
206 0.000419
207 0.000422
208 0.000422
209 0.000421
210 0.000423
211 0.000425
212 0.000425
213 0.000425
214 0.000425
215 0.000424
216 0.000420
217 0.000419
218 0.000421
219 0.000423
220 0.000420
221 0.000422
222 0.000423
223 0.000423
224 0.000424
225 0.000426
226 0.000428
227 0.000435
228 0.000436
229 0.000439
230 0.000440
231 0.000441
232 0.000441
233 0.000446
234 0.000448
235 0.000449
236 0.000447
237 0.000448
238 0.000447
239 0.000450
240 0.000447
241 0.000448
242 0.000445
243 0.000437
244 0.000429
245 0.000424
246 0.000420
247 0.000417
248 0.000414
249 0.000416
250 0.000417
251 0.000416
252 0.000409
253 0.000403
254 0.000395
255 0.000390
256 0.000386
257 0.000380
258 0.000374
259 0.000371
260 0.000371
261 0.000374
262 0.000378
263 0.000381
264 0.000381
265 0.000382
266 0.000381
267 0.000379
268 0.000375
269 0.000369
270 0.000363
271 0.000360
272 0.000359
273 0.000360
274 0.000356
275 0.000348
276 0.000340
277 0.000336
278 0.000330
279 0.000325
280 0.000318
281 0.000314
282 0.000313
283 0.000314
284 0.000316
285 0.000323
286 0.000329
287 0.000332
288 0.000335
289 0.000334
290 0.000329
291 0.000326
292 0.000322
293 0.000320
294 0.000319
295 0.000321
296 0.000324
297 0.000329
298 0.000334
299 0.000335
300 0.000335
301 0.000336
302 0.000334
303 0.000335
304 0.000333
305 0.000331
306 0.000332
307 0.000332
308 0.000329
309 0.000331
310 0.000333
311 0.000336
312 0.000336
313 0.000338
314 0.000338
315 0.000338
316 0.000341
317 0.000344
318 0.000347
319 0.000349
320 0.000349
321 0.000350
322 0.000352
323 0.000349
324 0.000349
325 0.000346
326 0.000343
327 0.000346
328 0.000346
329 0.000346
330 0.000344
331 0.000342
332 0.000343
333 0.000341
334 0.000337
335 0.000330
336 0.000327
337 0.000328
338 0.000328
339 0.000329
340 0.000329
341 0.000325
342 0.000325
343 0.000326
344 0.000326
345 0.000325
346 0.000320
347 0.000319
348 0.000316
349 0.000314
350 0.000312
351 0.000308
352 0.000308
353 0.000310
354 0.000315
355 0.000317
356 0.000316
357 0.000315
358 0.000316
359 0.000317
360 0.000321
361 0.000324
362 0.000324
363 0.000323
364 0.000321
365 0.000319
366 0.000316
367 0.000314
368 0.000313
369 0.000306
370 0.000301
371 0.000300
372 0.000300
373 0.000298
374 0.000297
375 0.000296
376 0.000297
377 0.000300
378 0.000301
379 0.000297
380 0.000293
381 0.000291
382 0.000286
383 0.000284
384 0.000284
385 0.000282
386 0.000282
387 0.000282
388 0.000283
389 0.000280
390 0.000276
391 0.000272
392 0.000270
393 0.000266
394 0.000264
395 0.000262
396 0.000260
397 0.000259
398 0.000265
399 0.000268
400 0.000270
401 0.000271
402 0.000269
403 0.000264
404 0.000263
405 0.000260
406 0.000256
407 0.000253
408 0.000254
409 0.000254
410 0.000256
411 0.000255
412 0.000254
413 0.000254
414 0.000256
415 0.000257
416 0.000260
417 0.000262
418 0.000264
419 0.000267
420 0.000269
421 0.000265
422 0.000264
423 0.000263
424 0.000259
425 0.000257
426 0.000253
427 0.000250
428 0.000253
429 0.000252
430 0.000249
431 0.000246
432 0.000246
433 0.000244
434 0.000245
435 0.000248
436 0.000253
437 0.000257
438 0.000261
439 0.000266
440 0.000271
441 0.000275
442 0.000277
443 0.000279
444 0.000283
445 0.000284
446 0.000285
447 0.000286
448 0.000290
449 0.000294
450 0.000298
451 0.000301
452 0.000305
453 0.000309
454 0.000314
455 0.000318
456 0.000322
457 0.000324
458 0.000326
459 0.000327
460 0.000331
461 0.000333
462 0.000334
463 0.000334
464 0.000334
465 0.000334
466 0.000335
467 0.000334
468 0.000339
469 0.000339
470 0.000339
471 0.000338
472 0.000337
473 0.000335
474 0.000334
475 0.000333
476 0.000334
477 0.000335
478 0.000337
479 0.000338
480 0.000344
481 0.000343
482 0.000343
483 0.000341
484 0.000338
485 0.000333
486 0.000332
487 0.000330
488 0.000329
489 0.000328
490 0.000326
491 0.000325
492 0.000327
493 0.000329
494 0.000329
495 0.000326
496 0.000324
497 0.000322
498 0.000325
499 0.000328
500 0.000330
501 0.000332
502 0.000334
503 0.000333
504 0.000335
505 0.000337
506 0.000338
507 0.000337
508 0.000335
509 0.000333
510 0.000335
511 0.000337
512 0.000341
513 0.000343
514 0.000342
515 0.000340
516 0.000338
517 0.000332
518 0.000326
519 0.000322
520 0.000315
521 0.000309
522 0.000305
523 0.000300
524 0.000295
525 0.000293
526 0.000291
527 0.000288
528 0.000287
529 0.000284
530 0.000284
531 0.000286
532 0.000283
533 0.000280
534 0.000280
535 0.000280
536 0.000281
537 0.000283
538 0.000285
539 0.000287
540 0.000287
541 0.000287
542 0.000286
543 0.000282
544 0.000276
545 0.000271
546 0.000265
547 0.000262
548 0.000262
549 0.000262
550 0.000264
551 0.000266
552 0.000267
553 0.000269
554 0.000271
555 0.000271
556 0.000265
557 0.000263
558 0.000261
559 0.000262
560 0.000259
561 0.000257
562 0.000256
563 0.000257
564 0.000256
565 0.000255
566 0.000254
567 0.000252
568 0.000249
569 0.000246
570 0.000241
571 0.000240
572 0.000241
573 0.000246
574 0.000248
575 0.000250
576 0.000248
577 0.000243
578 0.000242
579 0.000238
580 0.000232
581 0.000230
582 0.000230
583 0.000234
584 0.000235
585 0.000238
586 0.000240
587 0.000244
588 0.000248
589 0.000256
590 0.000259
591 0.000261
592 0.000263
593 0.000266
594 0.000269
595 0.000274
596 0.000278
597 0.000278
598 0.000276
599 0.000276
600 0.000273
601 0.000271
602 0.000269
603 0.000265
604 0.000264
605 0.000265
606 0.000266
607 0.000265
608 0.000259
609 0.000254
610 0.000252
611 0.000251
612 0.000246
613 0.000240
614 0.000234
615 0.000231
616 0.000230
617 0.000229
618 0.000230
619 0.000231
620 0.000233
621 0.000232
622 0.000229
623 0.000227
624 0.000222
625 0.000220
626 0.000216
627 0.000214
628 0.000210
629 0.000208
630 0.000206
631 0.000203
632 0.000200
633 0.000200
634 0.000198
635 0.000195
636 0.000190
637 0.000188
638 0.000184
639 0.000182
640 0.000178
641 0.000175
642 0.000175
643 0.000174
644 0.000174
645 0.000172
646 0.000171
647 0.000171
648 0.000172
649 0.000175
650 0.000179
651 0.000181
652 0.000180
653 0.000178
654 0.000174
655 0.000172
656 0.000170
657 0.000167
658 0.000163
659 0.000158
660 0.000153
661 0.000147
662 0.000142
663 0.000137
664 0.000132
665 0.000128
666 0.000126
667 0.000126
668 0.000121
669 0.000119
670 0.000119
671 0.000121
672 0.000122
673 0.000122
674 0.000122
675 0.000122
676 0.000122
677 0.000123
678 0.000124
679 0.000123
680 0.000122
681 0.000125
682 0.000126
683 0.000130
684 0.000133
685 0.000134
686 0.000138
687 0.000141
688 0.000140
689 0.000138
690 0.000139
691 0.000139
692 0.000140
693 0.000140
694 0.000141
695 0.000139
696 0.000136
697 0.000133
698 0.000130
699 0.000127
700 0.000124
701 0.000124
702 0.000127
703 0.000131
704 0.000136
705 0.000140
706 0.000141
707 0.000144
708 0.000143
709 0.000140
710 0.000135
711 0.000130
712 0.000124
713 0.000117
714 0.000113
715 0.000107
716 0.000103
717 0.000099
718 0.000094
719 0.000092
720 0.000088
721 0.000086
722 0.000083
723 0.000082
724 0.000081
725 0.000081
726 0.000083
727 0.000082
728 0.000084
729 0.000083
730 0.000083
731 0.000083
732 0.000082
733 0.000083
734 0.000083
735 0.000083
736 0.000085
737 0.000088
738 0.000091
739 0.000093
740 0.000097
741 0.000099
742 0.000101
743 0.000101
744 0.000102
745 0.000103
746 0.000102
747 0.000103
748 0.000103
749 0.000105
750 0.000105
751 0.000107
752 0.000111
753 0.000113
754 0.000115
755 0.000119
756 0.000121
757 0.000121
758 0.000120
759 0.000116
760 0.000113
761 0.000112
762 0.000111
763 0.000109
764 0.000106
765 0.000104
766 0.000103
767 0.000102
768 0.000100
769 0.000098
770 0.000094
771 0.000093
772 0.000094
773 0.000098
774 0.000098
775 0.000099
776 0.000099
777 0.000100
778 0.000102
779 0.000102
780 0.000100
781 0.000096
782 0.000094
783 0.000092
784 0.000089
785 0.000087
786 0.000086
787 0.000086
788 0.000085
789 0.000085
790 0.000085
791 0.000086
792 0.000085
793 0.000084
794 0.000082
795 0.000079
796 0.000076
797 0.000075
798 0.000077
799 0.000079
800 0.000081
801 0.000084
802 0.000087
803 0.000090
804 0.000092
805 0.000094
806 0.000093
807 0.000091
808 0.000093
809 0.000095
