# i correlation
1 0.001464
2 0.001424
3 0.001390
4 0.001356
5 0.001331
6 0.001316
7 0.001300
8 0.001282
9 0.001266
10 0.001252
11 0.001239
12 0.001225
13 0.001216
14 0.001207
15 0.001196
16 0.001184
17 0.001172
18 0.001159
19 0.001147
20 0.001137
21 0.001123
22 0.001110
23 0.001102
24 0.001092
25 0.001079
26 0.001067
27 0.001053
28 0.001044
29 0.001033
30 0.001025
31 0.001020
32 0.001013
33 0.001008
34 0.001002
35 0.000997
36 0.000992
37 0.000986
38 0.000978
39 0.000970
40 0.000966
41 0.000965
42 0.000962
43 0.000958
44 0.000952
45 0.000945
46 0.000937
47 0.000927
48 0.000925
49 0.000924
50 0.000922
51 0.000926
52 0.000928
53 0.000930
54 0.000933
55 0.000933
56 0.000934
57 0.000934
58 0.000933
59 0.000935
60 0.000936
61 0.000938
62 0.000937
63 0.000935
64 0.000934
65 0.000933
66 0.000933
67 0.000930
68 0.000929
69 0.000924
70 0.000920
71 0.000916
72 0.000911
73 0.000905
74 0.000902
75 0.000897
76 0.000893
77 0.000887
78 0.000880
79 0.000875
80 0.000872
81 0.000869
82 0.000865
83 0.000858
84 0.000849
85 0.000841
86 0.000831
87 0.000819
88 0.000811
89 0.000806
90 0.000801
91 0.000794
92 0.000787
93 0.000778
94 0.000778
95 0.000776
96 0.000773
97 0.000772
98 0.000766
99 0.000759
100 0.000754
101 0.000748
102 0.000745
103 0.000743
104 0.000741
105 0.000740
106 0.000737
107 0.000735
108 0.000733
109 0.000730
110 0.000724
111 0.000722
112 0.000721
113 0.000724
114 0.000732
115 0.000735
116 0.000738
117 0.000738
118 0.000736
119 0.000736
120 0.000737
121 0.000739
122 0.000741
123 0.000743
124 0.000745
125 0.000749
126 0.000752
127 0.000752
128 0.000751
129 0.000748
130 0.000741
131 0.000740
132 0.000739
133 0.000736
134 0.000734
135 0.000732
136 0.000729
137 0.000728
138 0.000731
139 0.000733
140 0.000735
141 0.000732
142 0.000730
143 0.000723
144 0.000713
145 0.000703
146 0.000694
147 0.000685
148 0.000677
149 0.000673
150 0.000670
151 0.000668
152 0.000661
153 0.000657
154 0.000652
155 0.000649
156 0.000646
157 0.000644
158 0.000641
159 0.000639
160 0.000636
161 0.000631
162 0.000628
163 0.000624
164 0.000618
165 0.000609
166 0.000601
167 0.000589
168 0.000580
169 0.000576
170 0.000577
171 0.000575
172 0.000570
173 0.000568
174 0.000565
175 0.000564
176 0.000562
177 0.000566
178 0.000565
179 0.000567
180 0.000570
181 0.000572
182 0.000574
183 0.000577
184 0.000574
185 0.000572
186 0.000571
187 0.000567
188 0.000564
189 0.000561
190 0.000561
191 0.000562
192 0.000562
193 0.000561
194 0.000558
195 0.000555
196 0.000551
197 0.000548
198 0.000546
199 0.000547
200 0.000549
201 0.000553
202 0.000556
203 0.000559
204 0.000557
205 0.000555
206 0.000550
207 0.000546
208 0.000544
209 0.000542
210 0.000541
211 0.000543
212 0.000544
213 0.000543
214 0.000544
215 0.000543
216 0.000539
217 0.000535
218 0.000535
219 0.000535
220 0.000532
221 0.000533
222 0.000535
223 0.000534
224 0.000535
225 0.000536
226 0.000536
227 0.000534
228 0.000533
229 0.000526
230 0.000519
231 0.000513
232 0.000513
233 0.000510
234 0.000512
235 0.000511
236 0.000513
237 0.000513
238 0.000511
239 0.000514
240 0.000514
241 0.000512
242 0.000513
243 0.000515
244 0.000517
245 0.000526
246 0.000536
247 0.000547
248 0.000554
249 0.000555
250 0.000549
251 0.000544
252 0.000539
253 0.000536
254 0.000538
255 0.000539
256 0.000539
257 0.000537
258 0.000535
259 0.000532
260 0.000531
261 0.000534
262 0.000537
263 0.000539
264 0.000540
265 0.000538
266 0.000534
267 0.000534
268 0.000535
269 0.000536
270 0.000538
271 0.000542
272 0.000547
273 0.000549
274 0.000552
275 0.000556
276 0.000561
277 0.000568
278 0.000574
279 0.000575
280 0.000577
281 0.000580
282 0.000582
283 0.000580
284 0.000579
285 0.000576
286 0.000575
287 0.000574
288 0.000570
289 0.000566
290 0.000562
291 0.000559
292 0.000554
293 0.000551
294 0.000548
295 0.000545
296 0.000543
297 0.000543
298 0.000537
299 0.000530
300 0.000525
301 0.000521
302 0.000520
303 0.000522
304 0.000523
305 0.000522
306 0.000522
307 0.000521
308 0.000519
309 0.000515
310 0.000515
311 0.000511
312 0.000510
313 0.000507
314 0.000504
315 0.000505
316 0.000510
317 0.000517
318 0.000521
319 0.000527
320 0.000530
321 0.000534
322 0.000538
323 0.000538
324 0.000536
325 0.000536
326 0.000534
327 0.000531
328 0.000528
329 0.000525
330 0.000524
331 0.000522
332 0.000520
333 0.000518
334 0.000515
335 0.000514
336 0.000515
337 0.000514
338 0.000513
339 0.000514
340 0.000513
341 0.000511
342 0.000511
343 0.000513
344 0.000514
345 0.000516
346 0.000518
347 0.000513
348 0.000510
349 0.000504
350 0.000500
351 0.000498
352 0.000500
353 0.000504
354 0.000506
355 0.000505
356 0.000505
357 0.000499
358 0.000495
359 0.000487
360 0.000481
361 0.000479
362 0.000480
363 0.000485
364 0.000485
365 0.000483
366 0.000479
367 0.000471
368 0.000465
369 0.000458
370 0.000455
371 0.000456
372 0.000460
373 0.000462
374 0.000463
375 0.000462
376 0.000462
377 0.000461
378 0.000460
379 0.000459
380 0.000454
381 0.000450
382 0.000444
383 0.000440
384 0.000437
385 0.000437
386 0.000441
387 0.000448
388 0.000453
389 0.000456
390 0.000454
391 0.000452
392 0.000446
393 0.000438
394 0.000432
395 0.000426
396 0.000423
397 0.000425
398 0.000431
399 0.000434
400 0.000436
401 0.000439
402 0.000441
403 0.000446
404 0.000449
405 0.000454
406 0.000458
407 0.000464
408 0.000463
409 0.000465
410 0.000463
411 0.000462
412 0.000458
413 0.000454
414 0.000450
415 0.000446
416 0.000443
417 0.000442
418 0.000438
419 0.000437
420 0.000436
421 0.000434
422 0.000433
423 0.000428
424 0.000425
425 0.000422
426 0.000418
427 0.000416
428 0.000415
429 0.000414
430 0.000410
431 0.000409
432 0.000406
433 0.000403
434 0.000402
435 0.000402
436 0.000399
437 0.000399
438 0.000399
439 0.000397
440 0.000398
441 0.000396
442 0.000393
443 0.000388
444 0.000384
445 0.000382
446 0.000381
447 0.000383
448 0.000387
449 0.000387
450 0.000389
451 0.000393
452 0.000397
453 0.000402
454 0.000405
455 0.000409
456 0.000407
457 0.000407
458 0.000412
459 0.000416
460 0.000420
461 0.000425
462 0.000427
463 0.000426
464 0.000423
465 0.000422
466 0.000419
467 0.000422
468 0.000426
469 0.000427
470 0.000428
471 0.000430
472 0.000431
473 0.000433
474 0.000434
475 0.000432
476 0.000431
477 0.000429
478 0.000427
479 0.000427
480 0.000427
481 0.000427
482 0.000427
483 0.000428
484 0.000424
485 0.000421
486 0.000419
487 0.000415
488 0.000411
489 0.000410
490 0.000407
491 0.000405
492 0.000400
493 0.000396
494 0.000390
495 0.000385
496 0.000383
497 0.000382
498 0.000380
499 0.000375
500 0.000369
501 0.000364
502 0.000360
503 0.000358
504 0.000357
505 0.000356
506 0.000354
507 0.000352
508 0.000348
509 0.000347
510 0.000345
511 0.000344
512 0.000344
513 0.000341
514 0.000340
515 0.000338
516 0.000336
517 0.000336
518 0.000337
519 0.000336
520 0.000336
521 0.000337
522 0.000340
523 0.000345
524 0.000348
525 0.000354
526 0.000362
527 0.000368
528 0.000371
529 0.000375
530 0.000377
531 0.000377
532 0.000377
533 0.000378
534 0.000377
535 0.000378
536 0.000380
537 0.000381
538 0.000384
539 0.000384
540 0.000385
541 0.000385
542 0.000387
543 0.000393
544 0.000394
545 0.000396
546 0.000394
547 0.000389
548 0.000388
549 0.000390
550 0.000389
551 0.000388
552 0.000384
553 0.000382
554 0.000381
555 0.000379
556 0.000377
557 0.000376
558 0.000377
559 0.000377
560 0.000375
561 0.000372
562 0.000369
563 0.000367
564 0.000366
565 0.000365
566 0.000363
567 0.000361
568 0.000360
569 0.000358
570 0.000353
571 0.000348
572 0.000341
573 0.000334
574 0.000328
575 0.000323
576 0.000318
577 0.000313
578 0.000308
579 0.000305
580 0.000304
581 0.000300
582 0.000299
583 0.000295
584 0.000289
585 0.000280
586 0.000274
587 0.000269
588 0.000266
589 0.000264
590 0.000266
591 0.000267
592 0.000266
593 0.000266
594 0.000267
595 0.000265
596 0.000262
597 0.000262
598 0.000261
599 0.000262
600 0.000266
601 0.000267
602 0.000268
603 0.000269
604 0.000268
605 0.000268
606 0.000266
607 0.000264
608 0.000263
609 0.000262
610 0.000262
611 0.000263
612 0.000266
613 0.000267
614 0.000268
615 0.000266
616 0.000262
617 0.000261
618 0.000260
619 0.000259
620 0.000261
621 0.000260
622 0.000258
623 0.000258
624 0.000257
625 0.000257
626 0.000258
627 0.000257
628 0.000257
629 0.000256
630 0.000254
631 0.000254
632 0.000255
633 0.000254
634 0.000257
635 0.000259
636 0.000259
637 0.000261
638 0.000260
639 0.000257
640 0.000257
641 0.000257
642 0.000257
643 0.000258
644 0.000256
645 0.000258
646 0.000260
647 0.000258
648 0.000256
649 0.000256
650 0.000256
651 0.000259
652 0.000262
653 0.000264
654 0.000267
655 0.000269
656 0.000271
657 0.000272
658 0.000272
659 0.000272
660 0.000273
661 0.000273
662 0.000275
663 0.000275
664 0.000273
665 0.000273
666 0.000273
667 0.000272
668 0.000273
669 0.000273
670 0.000271
671 0.000268
672 0.000265
673 0.000262
674 0.000260
675 0.000257
676 0.000252
677 0.000248
678 0.000242
679 0.000240
680 0.000239
681 0.000236
682 0.000234
683 0.000233
684 0.000235
685 0.000236
686 0.000238
687 0.000236
688 0.000233
689 0.000230
690 0.000226
691 0.000224
692 0.000220
693 0.000215
694 0.000213
695 0.000211
696 0.000209
697 0.000209
698 0.000208
699 0.000208
700 0.000208
701 0.000208
702 0.000207
703 0.000206
704 0.000205
705 0.000203
706 0.000200
707 0.000199
708 0.000199
709 0.000199
710 0.000198
711 0.000196
712 0.000193
713 0.000188
714 0.000184
715 0.000182
716 0.000179
717 0.000177
718 0.000174
719 0.000173
720 0.000169
721 0.000165
722 0.000164
723 0.000163
724 0.000160
725 0.000159
726 0.000160
727 0.000159
728 0.000160
729 0.000159
730 0.000154
731 0.000149
732 0.000146
733 0.000141
734 0.000138
735 0.000134
736 0.000132
737 0.000129
738 0.000128
739 0.000129
740 0.000129
741 0.000130
742 0.000130
743 0.000129
744 0.000125
745 0.000125
746 0.000124
747 0.000120
748 0.000113
749 0.000104
750 0.000096
751 0.000091
752 0.000089
753 0.000087
754 0.000087
755 0.000085
756 0.000082
757 0.000079
758 0.000076
759 0.000076
760 0.000077
761 0.000077
762 0.000076
763 0.000077
764 0.000076
765 0.000077
766 0.000077
767 0.000076
768 0.000076
769 0.000075
770 0.000075
771 0.000075
772 0.000073
773 0.000072
774 0.000072
775 0.000073
776 0.000074
777 0.000078
778 0.000080
779 0.000084
780 0.000087
781 0.000088
782 0.000088
783 0.000092
784 0.000094
785 0.000096
786 0.000095
787 0.000093
788 0.000091
789 0.000088
790 0.000087
791 0.000086
792 0.000084
793 0.000083
794 0.000083
795 0.000081
796 0.000079
797 0.000077
798 0.000077
799 0.000077
800 0.000078
801 0.000079
802 0.000079
803 0.000077
804 0.000078
805 0.000079
806 0.000079
807 0.000080
808 0.000082
809 0.000081
