# i correlation
1 0.001546
2 0.001503
3 0.001459
4 0.001421
5 0.001394
6 0.001370
7 0.001346
8 0.001325
9 0.001306
10 0.001288
11 0.001271
12 0.001253
13 0.001240
14 0.001228
15 0.001220
16 0.001214
17 0.001203
18 0.001192
19 0.001182
20 0.001174
21 0.001172
22 0.001167
23 0.001164
24 0.001158
25 0.001154
26 0.001151
27 0.001149
28 0.001146
29 0.001139
30 0.001133
31 0.001126
32 0.001119
33 0.001111
34 0.001101
35 0.001088
36 0.001076
37 0.001069
38 0.001068
39 0.001068
40 0.001068
41 0.001073
42 0.001073
43 0.001075
44 0.001079
45 0.001080
46 0.001081
47 0.001086
48 0.001089
49 0.001090
50 0.001087
51 0.001083
52 0.001079
53 0.001072
54 0.001059
55 0.001050
56 0.001041
57 0.001030
58 0.001023
59 0.001016
60 0.001008
61 0.001000
62 0.000996
63 0.000993
64 0.000991
65 0.000985
66 0.000979
67 0.000966
68 0.000952
69 0.000939
70 0.000927
71 0.000918
72 0.000910
73 0.000902
74 0.000895
75 0.000886
76 0.000879
77 0.000867
78 0.000857
79 0.000844
80 0.000835
81 0.000821
82 0.000811
83 0.000803
84 0.000797
85 0.000795
86 0.000791
87 0.000785
88 0.000781
89 0.000774
90 0.000773
91 0.000771
92 0.000771
93 0.000779
94 0.000786
95 0.000792
96 0.000797
97 0.000803
98 0.000806
99 0.000810
100 0.000813
101 0.000810
102 0.000805
103 0.000802
104 0.000802
105 0.000804
106 0.000805
107 0.000798
108 0.000793
109 0.000788
110 0.000777
111 0.000768
112 0.000759
113 0.000752
114 0.000749
115 0.000746
116 0.000744
117 0.000738
118 0.000730
119 0.000727
120 0.000715
121 0.000710
122 0.000703
123 0.000701
124 0.000698
125 0.000695
126 0.000694
127 0.000691
128 0.000688
129 0.000680
130 0.000675
131 0.000672
132 0.000672
133 0.000668
134 0.000662
135 0.000651
136 0.000644
137 0.000642
138 0.000643
139 0.000645
140 0.000646
141 0.000648
142 0.000653
143 0.000659
144 0.000667
145 0.000672
146 0.000676
147 0.000676
148 0.000670
149 0.000671
150 0.000673
151 0.000672
152 0.000673
153 0.000673
154 0.000670
155 0.000665
156 0.000661
157 0.000656
158 0.000651
159 0.000649
160 0.000650
161 0.000650
162 0.000651
163 0.000649
164 0.000650
165 0.000650
166 0.000652
167 0.000656
168 0.000663
169 0.000669
170 0.000677
171 0.000684
172 0.000691
173 0.000693
174 0.000690
175 0.000684
176 0.000677
177 0.000675
178 0.000675
179 0.000673
180 0.000671
181 0.000667
182 0.000660
183 0.000657
184 0.000650
185 0.000653
186 0.000649
187 0.000647
188 0.000643
189 0.000641
190 0.000645
191 0.000652
192 0.000658
193 0.000665
194 0.000673
195 0.000674
196 0.000675
197 0.000676
198 0.000673
199 0.000674
200 0.000673
201 0.000670
202 0.000670
203 0.000666
204 0.000660
205 0.000650
206 0.000638
207 0.000623
208 0.000611
209 0.000601
210 0.000594
211 0.000588
212 0.000583
213 0.000580
214 0.000577
215 0.000577
216 0.000574
217 0.000575
218 0.000578
219 0.000582
220 0.000584
221 0.000586
222 0.000584
223 0.000580
224 0.000578
225 0.000578
226 0.000578
227 0.000577
228 0.000580
229 0.000578
230 0.000579
231 0.000577
232 0.000574
233 0.000571
234 0.000568
235 0.000565
236 0.000560
237 0.000561
238 0.000563
239 0.000564
240 0.000568
241 0.000570
242 0.000574
243 0.000581
244 0.000586
245 0.000588
246 0.000588
247 0.000587
248 0.000584
249 0.000585
250 0.000586
251 0.000587
252 0.000583
253 0.000579
254 0.000573
255 0.000568
256 0.000564
257 0.000556
258 0.000548
259 0.000541
260 0.000529
261 0.000521
262 0.000513
263 0.000501
264 0.000492
265 0.000489
266 0.000487
267 0.000485
268 0.000488
269 0.000488
270 0.000487
271 0.000485
272 0.000483
273 0.000479
274 0.000472
275 0.000470
276 0.000468
277 0.000470
278 0.000474
279 0.000473
280 0.000471
281 0.000464
282 0.000457
283 0.000449
284 0.000447
285 0.000446
286 0.000447
287 0.000450
288 0.000447
289 0.000446
290 0.000444
291 0.000444
292 0.000444
293 0.000445
294 0.000447
295 0.000449
296 0.000450
297 0.000450
298 0.000448
299 0.000448
300 0.000447
301 0.000448
302 0.000449
303 0.000448
304 0.000446
305 0.000443
306 0.000442
307 0.000434
308 0.000430
309 0.000430
310 0.000429
311 0.000426
312 0.000420
313 0.000413
314 0.000409
315 0.000405
316 0.000402
317 0.000405
318 0.000407
319 0.000412
320 0.000415
321 0.000416
322 0.000410
323 0.000405
324 0.000403
325 0.000406
326 0.000406
327 0.000406
328 0.000405
329 0.000401
330 0.000397
331 0.000395
332 0.000389
333 0.000382
334 0.000378
335 0.000369
336 0.000364
337 0.000360
338 0.000357
339 0.000354
340 0.000354
341 0.000356
342 0.000360
343 0.000367
344 0.000376
345 0.000387
346 0.000395
347 0.000404
348 0.000405
349 0.000410
350 0.000412
351 0.000419
352 0.000426
353 0.000434
354 0.000436
355 0.000435
356 0.000433
357 0.000432
358 0.000433
359 0.000432
360 0.000429
361 0.000430
362 0.000429
363 0.000426
364 0.000422
365 0.000421
366 0.000418
367 0.000419
368 0.000419
369 0.000416
370 0.000413
371 0.000409
372 0.000410
373 0.000415
374 0.000422
375 0.000426
376 0.000429
377 0.000431
378 0.000429
379 0.000425
380 0.000421
381 0.000420
382 0.000423
383 0.000427
384 0.000436
385 0.000442
386 0.000443
387 0.000445
388 0.000444
389 0.000442
390 0.000443
391 0.000443
392 0.000441
393 0.000444
394 0.000445
395 0.000446
396 0.000451
397 0.000450
398 0.000448
399 0.000444
400 0.000442
401 0.000439
402 0.000437
403 0.000435
404 0.000434
405 0.000432
406 0.000430
407 0.000427
408 0.000421
409 0.000413
410 0.000407
411 0.000407
412 0.000407
413 0.000408
414 0.000409
415 0.000410
416 0.000410
417 0.000413
418 0.000419
419 0.000424
420 0.000427
421 0.000427
422 0.000427
423 0.000431
424 0.000433
425 0.000436
426 0.000435
427 0.000433
428 0.000433
429 0.000433
430 0.000432
431 0.000431
432 0.000429
433 0.000422
434 0.000420
435 0.000416
436 0.000411
437 0.000408
438 0.000402
439 0.000396
440 0.000390
441 0.000383
442 0.000375
443 0.000369
444 0.000361
445 0.000355
446 0.000353
447 0.000356
448 0.000361
449 0.000364
450 0.000368
451 0.000374
452 0.000376
453 0.000378
454 0.000374
455 0.000371
456 0.000367
457 0.000360
458 0.000360
459 0.000359
460 0.000355
461 0.000350
462 0.000347
463 0.000341
464 0.000336
465 0.000330
466 0.000323
467 0.000319
468 0.000316
469 0.000312
470 0.000310
471 0.000309
472 0.000309
473 0.000309
474 0.000305
475 0.000299
476 0.000295
477 0.000294
478 0.000294
479 0.000294
480 0.000293
481 0.000291
482 0.000289
483 0.000286
484 0.000286
485 0.000281
486 0.000279
487 0.000275
488 0.000271
489 0.000268
490 0.000271
491 0.000272
492 0.000272
493 0.000273
494 0.000272
495 0.000272
496 0.000274
497 0.000275
498 0.000275
499 0.000279
500 0.000285
501 0.000286
502 0.000287
503 0.000285
504 0.000279
505 0.000274
506 0.000270
507 0.000264
508 0.000259
509 0.000253
510 0.000248
511 0.000248
512 0.000248
513 0.000248
514 0.000246
515 0.000241
516 0.000235
517 0.000232
518 0.000231
519 0.000235
520 0.000239
521 0.000244
522 0.000247
523 0.000252
524 0.000255
525 0.000258
526 0.000257
527 0.000259
528 0.000258
529 0.000258
530 0.000257
531 0.000255
532 0.000249
533 0.000242
534 0.000237
535 0.000232
536 0.000231
537 0.000230
538 0.000228
539 0.000227
540 0.000224
541 0.000220
542 0.000219
543 0.000216
544 0.000216
545 0.000220
546 0.000227
547 0.000231
548 0.000234
549 0.000234
550 0.000233
551 0.000232
552 0.000233
553 0.000232
554 0.000231
555 0.000232
556 0.000231
557 0.000232
558 0.000232
559 0.000229
560 0.000223
561 0.000217
562 0.000217
563 0.000216
564 0.000219
565 0.000218
566 0.000213
567 0.000213
568 0.000212
569 0.000212
570 0.000214
571 0.000216
572 0.000217
573 0.000217
574 0.000217
575 0.000218
576 0.000217
577 0.000218
578 0.000218
579 0.000218
580 0.000217
581 0.000219
582 0.000214
583 0.000211
584 0.000208
585 0.000205
586 0.000204
587 0.000204
588 0.000201
589 0.000200
590 0.000200
591 0.000200
592 0.000201
593 0.000203
594 0.000203
595 0.000206
596 0.000215
597 0.000225
598 0.000234
599 0.000237
600 0.000237
601 0.000235
602 0.000232
603 0.000230
604 0.000228
605 0.000229
606 0.000231
607 0.000230
608 0.000229
609 0.000229
610 0.000226
611 0.000227
612 0.000229
613 0.000229
614 0.000229
615 0.000230
616 0.000229
617 0.000229
618 0.000230
619 0.000233
620 0.000237
621 0.000241
622 0.000249
623 0.000255
624 0.000259
625 0.000263
626 0.000266
627 0.000267
628 0.000268
629 0.000266
630 0.000265
631 0.000261
632 0.000255
633 0.000249
634 0.000240
635 0.000232
636 0.000225
637 0.000219
638 0.000214
639 0.000212
640 0.000211
641 0.000208
642 0.000207
643 0.000204
644 0.000202
645 0.000204
646 0.000204
647 0.000202
648 0.000196
649 0.000192
650 0.000190
651 0.000188
652 0.000189
653 0.000191
654 0.000191
655 0.000195
656 0.000196
657 0.000196
658 0.000195
659 0.000192
660 0.000187
661 0.000187
662 0.000184
663 0.000185
664 0.000186
665 0.000182
666 0.000178
667 0.000173
668 0.000171
669 0.000171
670 0.000172
671 0.000176
672 0.000181
673 0.000187
674 0.000192
675 0.000197
676 0.000200
677 0.000202
678 0.000205
679 0.000206
680 0.000205
681 0.000202
682 0.000197
683 0.000195
684 0.000192
685 0.000188
686 0.000183
687 0.000175
688 0.000168
689 0.000162
690 0.000157
691 0.000156
692 0.000155
693 0.000156
694 0.000156
695 0.000153
696 0.000151
697 0.000148
698 0.000146
699 0.000144
700 0.000140
701 0.000137
702 0.000139
703 0.000139
704 0.000142
705 0.000147
706 0.000152
707 0.000156
708 0.000156
709 0.000155
710 0.000152
711 0.000147
712 0.000144
713 0.000137
714 0.000133
715 0.000130
716 0.000128
717 0.000128
718 0.000127
719 0.000129
720 0.000130
721 0.000131
722 0.000132
723 0.000133
724 0.000135
725 0.000138
726 0.000137
727 0.000138
728 0.000138
729 0.000137
730 0.000138
731 0.000138
732 0.000137
733 0.000134
734 0.000131
735 0.000128
736 0.000125
737 0.000124
738 0.000122
739 0.000123
740 0.000126
741 0.000130
742 0.000130
743 0.000131
744 0.000129
745 0.000128
746 0.000124
747 0.000117
748 0.000110
749 0.000106
750 0.000103
751 0.000103
752 0.000102
753 0.000096
754 0.000092
755 0.000087
756 0.000083
757 0.000079
758 0.000079
759 0.000080
760 0.000078
761 0.000077
762 0.000077
763 0.000074
764 0.000072
765 0.000071
766 0.000071
767 0.000073
768 0.000076
769 0.000081
770 0.000085
771 0.000088
772 0.000092
773 0.000095
774 0.000096
775 0.000099
776 0.000099
777 0.000100
778 0.000100
779 0.000099
780 0.000098
781 0.000096
782 0.000097
783 0.000101
784 0.000100
785 0.000100
786 0.000097
787 0.000095
788 0.000093
789 0.000093
790 0.000094
791 0.000094
792 0.000095
793 0.000096
794 0.000096
795 0.000092
796 0.000092
797 0.000091
798 0.000090
799 0.000089
800 0.000087
801 0.000085
802 0.000081
803 0.000078
804 0.000073
805 0.000071
806 0.000065
807 0.000063
808 0.000059
809 0.000053
