# i correlation
1 0.001587
2 0.001548
3 0.001512
4 0.001484
5 0.001461
6 0.001444
7 0.001432
8 0.001422
9 0.001413
10 0.001405
11 0.001399
12 0.001394
13 0.001388
14 0.001382
15 0.001377
16 0.001371
17 0.001366
18 0.001360
19 0.001355
20 0.001350
21 0.001342
22 0.001332
23 0.001320
24 0.001308
25 0.001296
26 0.001289
27 0.001283
28 0.001279
29 0.001274
30 0.001268
31 0.001265
32 0.001254
33 0.001247
34 0.001239
35 0.001230
36 0.001220
37 0.001214
38 0.001209
39 0.001204
40 0.001197
41 0.001190
42 0.001182
43 0.001173
44 0.001168
45 0.001161
46 0.001154
47 0.001147
48 0.001138
49 0.001129
50 0.001121
51 0.001116
52 0.001110
53 0.001103
54 0.001099
55 0.001096
56 0.001092
57 0.001089
58 0.001084
59 0.001080
60 0.001074
61 0.001070
62 0.001065
63 0.001063
64 0.001061
65 0.001058
66 0.001057
67 0.001056
68 0.001053
69 0.001048
70 0.001044
71 0.001041
72 0.001040
73 0.001034
74 0.001029
75 0.001024
76 0.001017
77 0.001015
78 0.001014
79 0.001015
80 0.001018
81 0.001018
82 0.001018
83 0.001019
84 0.001019
85 0.001018
86 0.001013
87 0.001010
88 0.001006
89 0.001003
90 0.001004
91 0.001002
92 0.001002
93 0.000999
94 0.000996
95 0.000996
96 0.000996
97 0.000994
98 0.000993
99 0.000990
100 0.000986
101 0.000984
102 0.000978
103 0.000972
104 0.000967
105 0.000967
106 0.000965
107 0.000961
108 0.000958
109 0.000956
110 0.000959
111 0.000963
112 0.000963
113 0.000958
114 0.000952
115 0.000945
116 0.000940
117 0.000937
118 0.000936
119 0.000935
120 0.000929
121 0.000925
122 0.000921
123 0.000920
124 0.000921
125 0.000922
126 0.000920
127 0.000916
128 0.000911
129 0.000904
130 0.000899
131 0.000897
132 0.000896
133 0.000893
134 0.000889
135 0.000881
136 0.000878
137 0.000877
138 0.000875
139 0.000875
140 0.000874
141 0.000872
142 0.000867
143 0.000863
144 0.000861
145 0.000862
146 0.000862
147 0.000862
148 0.000859
149 0.000858
150 0.000855
151 0.000852
152 0.000847
153 0.000845
154 0.000842
155 0.000839
156 0.000836
157 0.000827
158 0.000819
159 0.000810
160 0.000800
161 0.000792
162 0.000786
163 0.000782
164 0.000779
165 0.000779
166 0.000776
167 0.000779
168 0.000780
169 0.000781
170 0.000780
171 0.000776
172 0.000774
173 0.000771
174 0.000766
175 0.000763
176 0.000760
177 0.000756
178 0.000752
179 0.000748
180 0.000745
181 0.000742
182 0.000741
183 0.000741
184 0.000744
185 0.000742
186 0.000739
187 0.000734
188 0.000733
189 0.000730
190 0.000725
191 0.000725
192 0.000723
193 0.000717
194 0.000710
195 0.000707
196 0.000703
197 0.000697
198 0.000691
199 0.000689
200 0.000690
201 0.000689
202 0.000691
203 0.000693
204 0.000692
205 0.000690
206 0.000687
207 0.000681
208 0.000678
209 0.000677
210 0.000677
211 0.000677
212 0.000679
213 0.000679
214 0.000678
215 0.000678
216 0.000677
217 0.000678
218 0.000677
219 0.000676
220 0.000675
221 0.000672
222 0.000672
223 0.000670
224 0.000669
225 0.000666
226 0.000661
227 0.000655
228 0.000650
229 0.000648
230 0.000649
231 0.000650
232 0.000650
233 0.000652
234 0.000653
235 0.000652
236 0.000651
237 0.000652
238 0.000651
239 0.000648
240 0.000642
241 0.000637
242 0.000634
243 0.000632
244 0.000631
245 0.000629
246 0.000626
247 0.000622
248 0.000617
249 0.000612
250 0.000608
251 0.000608
252 0.000605
253 0.000601
254 0.000597
255 0.000596
256 0.000597
257 0.000595
258 0.000592
259 0.000590
260 0.000589
261 0.000586
262 0.000582
263 0.000580
264 0.000577
265 0.000578
266 0.000580
267 0.000581
268 0.000582
269 0.000580
270 0.000575
271 0.000572
272 0.000570
273 0.000568
274 0.000564
275 0.000562
276 0.000560
277 0.000560
278 0.000561
279 0.000565
280 0.000567
281 0.000564
282 0.000560
283 0.000557
284 0.000554
285 0.000553
286 0.000554
287 0.000558
288 0.000563
289 0.000569
290 0.000571
291 0.000568
292 0.000562
293 0.000557
294 0.000555
295 0.000551
296 0.000552
297 0.000552
298 0.000554
299 0.000556
300 0.000558
301 0.000560
302 0.000563
303 0.000565
304 0.000567
305 0.000567
306 0.000567
307 0.000563
308 0.000560
309 0.000559
310 0.000557
311 0.000555
312 0.000555
313 0.000558
314 0.000562
315 0.000564
316 0.000568
317 0.000573
318 0.000575
319 0.000572
320 0.000569
321 0.000567
322 0.000566
323 0.000568
324 0.000568
325 0.000566
326 0.000565
327 0.000564
328 0.000566
329 0.000568
330 0.000567
331 0.000567
332 0.000565
333 0.000564
334 0.000563
335 0.000562
336 0.000559
337 0.000555
338 0.000551
339 0.000543
340 0.000537
341 0.000531
342 0.000528
343 0.000529
344 0.000532
345 0.000537
346 0.000543
347 0.000548
348 0.000551
349 0.000553
350 0.000554
351 0.000555
352 0.000555
353 0.000555
354 0.000554
355 0.000553
356 0.000554
357 0.000557
358 0.000559
359 0.000557
360 0.000555
361 0.000554
362 0.000553
363 0.000551
364 0.000549
365 0.000547
366 0.000544
367 0.000540
368 0.000541
369 0.000543
370 0.000544
371 0.000543
372 0.000542
373 0.000540
374 0.000534
375 0.000529
376 0.000523
377 0.000520
378 0.000517
379 0.000516
380 0.000513
381 0.000509
382 0.000503
383 0.000496
384 0.000492
385 0.000486
386 0.000483
387 0.000481
388 0.000482
389 0.000481
390 0.000481
391 0.000479
392 0.000477
393 0.000473
394 0.000471
395 0.000468
396 0.000465
397 0.000461
398 0.000458
399 0.000454
400 0.000453
401 0.000454
402 0.000452
403 0.000451
404 0.000447
405 0.000443
406 0.000437
407 0.000433
408 0.000430
409 0.000427
410 0.000425
411 0.000424
412 0.000422
413 0.000424
414 0.000427
415 0.000429
416 0.000431
417 0.000431
418 0.000430
419 0.000432
420 0.000431
421 0.000429
422 0.000423
423 0.000419
424 0.000413
425 0.000410
426 0.000406
427 0.000402
428 0.000402
429 0.000402
430 0.000401
431 0.000397
432 0.000394
433 0.000393
434 0.000392
435 0.000394
436 0.000394
437 0.000392
438 0.000390
439 0.000389
440 0.000391
441 0.000392
442 0.000394
443 0.000395
444 0.000394
445 0.000391
446 0.000388
447 0.000386
448 0.000385
449 0.000384
450 0.000384
451 0.000383
452 0.000383
453 0.000385
454 0.000389
455 0.000394
456 0.000398
457 0.000401
458 0.000403
459 0.000404
460 0.000404
461 0.000405
462 0.000406
463 0.000410
464 0.000412
465 0.000411
466 0.000407
467 0.000403
468 0.000403
469 0.000404
470 0.000407
471 0.000411
472 0.000413
473 0.000416
474 0.000418
475 0.000420
476 0.000418
477 0.000416
478 0.000412
479 0.000407
480 0.000405
481 0.000404
482 0.000405
483 0.000407
484 0.000410
485 0.000413
486 0.000412
487 0.000411
488 0.000411
489 0.000415
490 0.000418
491 0.000420
492 0.000422
493 0.000424
494 0.000426
495 0.000423
496 0.000420
497 0.000419
498 0.000417
499 0.000417
500 0.000417
501 0.000419
502 0.000424
503 0.000427
504 0.000430
505 0.000433
506 0.000435
507 0.000434
508 0.000429
509 0.000425
510 0.000422
511 0.000419
512 0.000416
513 0.000416
514 0.000416
515 0.000417
516 0.000414
517 0.000410
518 0.000404
519 0.000398
520 0.000393
521 0.000389
522 0.000385
523 0.000381
524 0.000379
525 0.000377
526 0.000375
527 0.000371
528 0.000368
529 0.000362
530 0.000356
531 0.000349
532 0.000342
533 0.000337
534 0.000333
535 0.000332
536 0.000333
537 0.000333
538 0.000334
539 0.000334
540 0.000336
541 0.000338
542 0.000336
543 0.000334
544 0.000329
545 0.000323
546 0.000320
547 0.000317
548 0.000314
549 0.000311
550 0.000307
551 0.000305
552 0.000303
553 0.000303
554 0.000301
555 0.000300
556 0.000298
557 0.000298
558 0.000295
559 0.000294
560 0.000294
561 0.000295
562 0.000294
563 0.000289
564 0.000285
565 0.000283
566 0.000283
567 0.000281
568 0.000282
569 0.000284
570 0.000285
571 0.000285
572 0.000285
573 0.000285
574 0.000289
575 0.000289
576 0.000288
577 0.000286
578 0.000285
579 0.000286
580 0.000289
581 0.000292
582 0.000295
583 0.000297
584 0.000298
585 0.000302
586 0.000304
587 0.000306
588 0.000307
589 0.000310
590 0.000313
591 0.000313
592 0.000314
593 0.000313
594 0.000315
595 0.000318
596 0.000321
597 0.000322
598 0.000320
599 0.000316
600 0.000314
601 0.000311
602 0.000311
603 0.000314
604 0.000314
605 0.000315
606 0.000315
607 0.000317
608 0.000318
609 0.000320
610 0.000323
611 0.000324
612 0.000325
613 0.000328
614 0.000327
615 0.000323
616 0.000323
617 0.000321
618 0.000322
619 0.000323
620 0.000324
621 0.000325
622 0.000326
623 0.000325
624 0.000322
625 0.000321
626 0.000320
627 0.000315
628 0.000309
629 0.000302
630 0.000298
631 0.000295
632 0.000293
633 0.000292
634 0.000293
635 0.000292
636 0.000292
637 0.000293
638 0.000297
639 0.000299
640 0.000301
641 0.000303
642 0.000303
643 0.000299
644 0.000297
645 0.000294
646 0.000291
647 0.000289
648 0.000287
649 0.000286
650 0.000285
651 0.000282
652 0.000280
653 0.000279
654 0.000279
655 0.000276
656 0.000275
657 0.000275
658 0.000275
659 0.000274
660 0.000275
661 0.000274
662 0.000272
663 0.000269
664 0.000264
665 0.000259
666 0.000256
667 0.000254
668 0.000253
669 0.000255
670 0.000255
671 0.000254
672 0.000251
673 0.000248
674 0.000246
675 0.000246
676 0.000246
677 0.000248
678 0.000249
679 0.000249
680 0.000253
681 0.000254
682 0.000253
683 0.000249
684 0.000247
685 0.000244
686 0.000243
687 0.000240
688 0.000237
689 0.000235
690 0.000232
691 0.000229
692 0.000227
693 0.000226
694 0.000226
695 0.000225
696 0.000223
697 0.000223
698 0.000226
699 0.000225
700 0.000221
701 0.000218
702 0.000214
703 0.000210
704 0.000207
705 0.000205
706 0.000204
707 0.000204
708 0.000208
709 0.000212
710 0.000214
711 0.000216
712 0.000216
713 0.000217
714 0.000219
715 0.000222
716 0.000223
717 0.000224
718 0.000226
719 0.000228
720 0.000230
721 0.000231
722 0.000231
723 0.000229
724 0.000227
725 0.000225
726 0.000225
727 0.000224
728 0.000224
729 0.000226
730 0.000229
731 0.000231
732 0.000233
733 0.000232
734 0.000232
735 0.000230
736 0.000231
737 0.000232
738 0.000230
739 0.000230
740 0.000226
741 0.000224
742 0.000221
743 0.000221
744 0.000220
745 0.000221
746 0.000219
747 0.000218
748 0.000218
749 0.000219
750 0.000221
751 0.000221
752 0.000223
753 0.000222
754 0.000219
755 0.000213
756 0.000207
757 0.000203
758 0.000198
759 0.000197
760 0.000195
761 0.000195
762 0.000194
763 0.000191
764 0.000185
765 0.000182
766 0.000177
767 0.000176
768 0.000174
769 0.000172
770 0.000172
771 0.000172
772 0.000173
773 0.000172
774 0.000170
775 0.000165
776 0.000160
777 0.000156
778 0.000153
779 0.000150
780 0.000147
781 0.000145
782 0.000144
783 0.000142
784 0.000140
785 0.000136
786 0.000132
787 0.000130
788 0.000129
789 0.000129
790 0.000129
791 0.000131
792 0.000132
793 0.000132
794 0.000133
795 0.000131
796 0.000127
797 0.000124
798 0.000120
799 0.000115
800 0.000111
801 0.000108
802 0.000105
803 0.000103
804 0.000102
805 0.000103
806 0.000104
807 0.000104
808 0.000105
809 0.000108
