# i correlation
1 0.001722
2 0.001681
3 0.001651
4 0.001627
5 0.001607
6 0.001590
7 0.001568
8 0.001548
9 0.001531
10 0.001517
11 0.001503
12 0.001486
13 0.001467
14 0.001449
15 0.001430
16 0.001405
17 0.001381
18 0.001361
19 0.001351
20 0.001335
21 0.001321
22 0.001309
23 0.001300
24 0.001293
25 0.001287
26 0.001278
27 0.001269
28 0.001264
29 0.001258
30 0.001250
31 0.001245
32 0.001242
33 0.001235
34 0.001227
35 0.001217
36 0.001206
37 0.001197
38 0.001188
39 0.001181
40 0.001168
41 0.001160
42 0.001155
43 0.001155
44 0.001151
45 0.001146
46 0.001138
47 0.001131
48 0.001122
49 0.001113
50 0.001105
51 0.001101
52 0.001099
53 0.001096
54 0.001091
55 0.001085
56 0.001084
57 0.001083
58 0.001082
59 0.001076
60 0.001068
61 0.001058
62 0.001051
63 0.001046
64 0.001044
65 0.001044
66 0.001045
67 0.001048
68 0.001051
69 0.001047
70 0.001038
71 0.001034
72 0.001036
73 0.001036
74 0.001032
75 0.001027
76 0.001021
77 0.001017
78 0.001019
79 0.001021
80 0.001019
81 0.001016
82 0.001015
83 0.001015
84 0.001010
85 0.001005
86 0.001000
87 0.000997
88 0.000993
89 0.000992
90 0.000987
91 0.000982
92 0.000980
93 0.000978
94 0.000973
95 0.000966
96 0.000960
97 0.000956
98 0.000951
99 0.000947
100 0.000940
101 0.000931
102 0.000923
103 0.000916
104 0.000916
105 0.000913
106 0.000907
107 0.000903
108 0.000899
109 0.000893
110 0.000890
111 0.000886
112 0.000884
113 0.000879
114 0.000874
115 0.000869
116 0.000870
117 0.000873
118 0.000871
119 0.000870
120 0.000865
121 0.000864
122 0.000863
123 0.000863
124 0.000864
125 0.000867
126 0.000871
127 0.000868
128 0.000865
129 0.000863
130 0.000859
131 0.000857
132 0.000858
133 0.000856
134 0.000859
135 0.000860
136 0.000861
137 0.000860
138 0.000856
139 0.000853
140 0.000858
141 0.000861
142 0.000862
143 0.000862
144 0.000861
145 0.000861
146 0.000858
147 0.000858
148 0.000854
149 0.000858
150 0.000862
151 0.000866
152 0.000864
153 0.000865
154 0.000865
155 0.000867
156 0.000868
157 0.000866
158 0.000865
159 0.000865
160 0.000862
161 0.000860
162 0.000853
163 0.000844
164 0.000841
165 0.000840
166 0.000838
167 0.000832
168 0.000827
169 0.000820
170 0.000814
171 0.000812
172 0.000814
173 0.000812
174 0.000809
175 0.000806
176 0.000802
177 0.000802
178 0.000801
179 0.000800
180 0.000800
181 0.000801
182 0.000800
183 0.000798
184 0.000793
185 0.000792
186 0.000791
187 0.000789
188 0.000786
189 0.000778
190 0.000771
191 0.000770
192 0.000770
193 0.000769
194 0.000770
195 0.000765
196 0.000761
197 0.000757
198 0.000755
199 0.000751
200 0.000752
201 0.000751
202 0.000749
203 0.000746
204 0.000743
205 0.000744
206 0.000745
207 0.000747
208 0.000747
209 0.000749
210 0.000749
211 0.000750
212 0.000749
213 0.000746
214 0.000743
215 0.000742
216 0.000741
217 0.000741
218 0.000738
219 0.000733
220 0.000728
221 0.000725
222 0.000721
223 0.000723
224 0.000725
225 0.000723
226 0.000720
227 0.000715
228 0.000711
229 0.000708
230 0.000709
231 0.000709
232 0.000710
233 0.000711
234 0.000713
235 0.000712
236 0.000712
237 0.000711
238 0.000710
239 0.000709
240 0.000707
241 0.000702
242 0.000694
243 0.000689
244 0.000687
245 0.000683
246 0.000678
247 0.000673
248 0.000667
249 0.000660
250 0.000657
251 0.000654
252 0.000649
253 0.000643
254 0.000638
255 0.000632
256 0.000626
257 0.000621
258 0.000616
259 0.000613
260 0.000615
261 0.000613
262 0.000614
263 0.000618
264 0.000619
265 0.000619
266 0.000627
267 0.000632
268 0.000634
269 0.000632
270 0.000636
271 0.000637
272 0.000633
273 0.000630
274 0.000625
275 0.000625
276 0.000626
277 0.000627
278 0.000625
279 0.000626
280 0.000621
281 0.000618
282 0.000618
283 0.000617
284 0.000614
285 0.000612
286 0.000607
287 0.000600
288 0.000591
289 0.000585
290 0.000586
291 0.000586
292 0.000584
293 0.000579
294 0.000573
295 0.000567
296 0.000563
297 0.000557
298 0.000554
299 0.000552
300 0.000548
301 0.000544
302 0.000542
303 0.000534
304 0.000531
305 0.000531
306 0.000533
307 0.000532
308 0.000528
309 0.000529
310 0.000531
311 0.000534
312 0.000533
313 0.000532
314 0.000530
315 0.000530
316 0.000529
317 0.000529
318 0.000526
319 0.000521
320 0.000517
321 0.000514
322 0.000511
323 0.000510
324 0.000509
325 0.000507
326 0.000504
327 0.000502
328 0.000501
329 0.000495
330 0.000491
331 0.000486
332 0.000484
333 0.000485
334 0.000487
335 0.000487
336 0.000488
337 0.000486
338 0.000487
339 0.000488
340 0.000488
341 0.000490
342 0.000489
343 0.000491
344 0.000492
345 0.000494
346 0.000494
347 0.000490
348 0.000484
349 0.000484
350 0.000488
351 0.000490
352 0.000493
353 0.000494
354 0.000493
355 0.000493
356 0.000493
357 0.000498
358 0.000499
359 0.000504
360 0.000504
361 0.000500
362 0.000496
363 0.000492
364 0.000491
365 0.000491
366 0.000488
367 0.000487
368 0.000483
369 0.000478
370 0.000471
371 0.000464
372 0.000462
373 0.000463
374 0.000462
375 0.000458
376 0.000451
377 0.000446
378 0.000441
379 0.000439
380 0.000436
381 0.000428
382 0.000421
383 0.000420
384 0.000422
385 0.000421
386 0.000419
387 0.000415
388 0.000417
389 0.000417
390 0.000418
391 0.000419
392 0.000418
393 0.000418
394 0.000418
395 0.000417
396 0.000418
397 0.000418
398 0.000420
399 0.000420
400 0.000418
401 0.000413
402 0.000412
403 0.000409
404 0.000406
405 0.000402
406 0.000397
407 0.000390
408 0.000385
409 0.000382
410 0.000382
411 0.000384
412 0.000382
413 0.000377
414 0.000369
415 0.000360
416 0.000353
417 0.000352
418 0.000351
419 0.000351
420 0.000346
421 0.000343
422 0.000342
423 0.000345
424 0.000349
425 0.000352
426 0.000352
427 0.000350
428 0.000349
429 0.000350
430 0.000351
431 0.000353
432 0.000358
433 0.000360
434 0.000363
435 0.000362
436 0.000361
437 0.000360
438 0.000358
439 0.000354
440 0.000347
441 0.000346
442 0.000347
443 0.000347
444 0.000347
445 0.000347
446 0.000346
447 0.000348
448 0.000350
449 0.000349
450 0.000343
451 0.000340
452 0.000336
453 0.000334
454 0.000330
455 0.000326
456 0.000328
457 0.000331
458 0.000331
459 0.000328
460 0.000325
461 0.000319
462 0.000318
463 0.000317
464 0.000312
465 0.000304
466 0.000299
467 0.000298
468 0.000298
469 0.000295
470 0.000293
471 0.000292
472 0.000293
473 0.000293
474 0.000289
475 0.000285
476 0.000285
477 0.000290
478 0.000293
479 0.000293
480 0.000290
481 0.000289
482 0.000288
483 0.000289
484 0.000293
485 0.000295
486 0.000297
487 0.000297
488 0.000296
489 0.000293
490 0.000292
491 0.000294
492 0.000298
493 0.000300
494 0.000300
495 0.000300
496 0.000301
497 0.000300
498 0.000297
499 0.000294
500 0.000294
501 0.000298
502 0.000301
503 0.000303
504 0.000301
505 0.000297
506 0.000296
507 0.000294
508 0.000291
509 0.000288
510 0.000290
511 0.000291
512 0.000288
513 0.000287
514 0.000288
515 0.000291
516 0.000297
517 0.000298
518 0.000300
519 0.000299
520 0.000299
521 0.000299
522 0.000297
523 0.000292
524 0.000288
525 0.000286
526 0.000284
527 0.000284
528 0.000283
529 0.000284
530 0.000287
531 0.000287
532 0.000282
533 0.000280
534 0.000281
535 0.000282
536 0.000282
537 0.000281
538 0.000276
539 0.000274
540 0.000272
541 0.000271
542 0.000271
543 0.000270
544 0.000270
545 0.000272
546 0.000276
547 0.000279
548 0.000279
549 0.000281
550 0.000285
551 0.000289
552 0.000293
553 0.000297
554 0.000299
555 0.000302
556 0.000304
557 0.000307
558 0.000307
559 0.000307
560 0.000309
561 0.000309
562 0.000311
563 0.000310
564 0.000309
565 0.000307
566 0.000307
567 0.000304
568 0.000302
569 0.000299
570 0.000295
571 0.000293
572 0.000290
573 0.000287
574 0.000286
575 0.000285
576 0.000283
577 0.000281
578 0.000279
579 0.000280
580 0.000278
581 0.000275
582 0.000274
583 0.000276
584 0.000278
585 0.000280
586 0.000277
587 0.000273
588 0.000270
589 0.000268
590 0.000267
591 0.000265
592 0.000262
593 0.000260
594 0.000257
595 0.000248
596 0.000243
597 0.000237
598 0.000233
599 0.000228
600 0.000225
601 0.000218
602 0.000211
603 0.000209
604 0.000206
605 0.000201
606 0.000196
607 0.000190
608 0.000188
609 0.000188
610 0.000185
611 0.000183
612 0.000182
613 0.000185
614 0.000182
615 0.000183
616 0.000181
617 0.000180
618 0.000181
619 0.000180
620 0.000183
621 0.000183
622 0.000186
623 0.000189
624 0.000191
625 0.000194
626 0.000197
627 0.000200
628 0.000206
629 0.000213
630 0.000218
631 0.000223
632 0.000227
633 0.000227
634 0.000228
635 0.000232
636 0.000236
637 0.000243
638 0.000247
639 0.000250
640 0.000253
641 0.000255
642 0.000256
643 0.000259
644 0.000263
645 0.000267
646 0.000267
647 0.000267
648 0.000266
649 0.000263
650 0.000260
651 0.000263
652 0.000262
653 0.000259
654 0.000256
655 0.000255
656 0.000257
657 0.000258
658 0.000260
659 0.000261
660 0.000260
661 0.000258
662 0.000255
663 0.000252
664 0.000248
665 0.000246
666 0.000244
667 0.000243
668 0.000244
669 0.000246
670 0.000248
671 0.000248
672 0.000247
673 0.000246
674 0.000243
675 0.000240
676 0.000237
677 0.000232
678 0.000227
679 0.000225
680 0.000221
681 0.000219
682 0.000216
683 0.000214
684 0.000211
685 0.000206
686 0.000200
687 0.000194
688 0.000193
689 0.000192
690 0.000192
691 0.000190
692 0.000187
693 0.000184
694 0.000180
695 0.000178
696 0.000175
697 0.000173
698 0.000170
699 0.000167
700 0.000165
701 0.000167
702 0.000170
703 0.000171
704 0.000169
705 0.000166
706 0.000159
707 0.000156
708 0.000156
709 0.000155
710 0.000154
711 0.000154
712 0.000153
713 0.000153
714 0.000152
715 0.000152
716 0.000154
717 0.000155
718 0.000154
719 0.000155
720 0.000155
721 0.000153
722 0.000155
723 0.000157
724 0.000160
725 0.000162
726 0.000165
727 0.000167
728 0.000166
729 0.000165
730 0.000166
731 0.000165
732 0.000163
733 0.000158
734 0.000157
735 0.000157
736 0.000157
737 0.000158
738 0.000160
739 0.000160
740 0.000159
741 0.000159
742 0.000155
743 0.000151
744 0.000149
745 0.000146
746 0.000140
747 0.000135
748 0.000132
749 0.000127
750 0.000124
751 0.000121
752 0.000117
753 0.000114
754 0.000111
755 0.000109
756 0.000105
757 0.000103
758 0.000101
759 0.000097
760 0.000091
761 0.000085
762 0.000081
763 0.000080
764 0.000079
765 0.000079
766 0.000078
767 0.000080
768 0.000080
769 0.000085
770 0.000090
771 0.000092
772 0.000092
773 0.000090
774 0.000089
775 0.000088
776 0.000088
777 0.000088
778 0.000089
779 0.000087
780 0.000086
781 0.000086
782 0.000089
783 0.000090
784 0.000091
785 0.000090
786 0.000090
787 0.000091
788 0.000092
789 0.000092
790 0.000092
791 0.000092
792 0.000092
793 0.000092
794 0.000093
795 0.000093
796 0.000095
797 0.000097
798 0.000100
799 0.000098
800 0.000096
801 0.000096
802 0.000096
803 0.000095
804 0.000094
805 0.000093
806 0.000092
807 0.000092
808 0.000092
809 0.000092
