# i correlation
1 0.001540
2 0.001501
3 0.001468
4 0.001442
5 0.001421
6 0.001403
7 0.001382
8 0.001369
9 0.001355
10 0.001342
11 0.001328
12 0.001311
13 0.001295
14 0.001279
15 0.001272
16 0.001263
17 0.001258
18 0.001254
19 0.001253
20 0.001247
21 0.001244
22 0.001238
23 0.001236
24 0.001232
25 0.001227
26 0.001219
27 0.001214
28 0.001208
29 0.001203
30 0.001199
31 0.001194
32 0.001189
33 0.001186
34 0.001186
35 0.001181
36 0.001176
37 0.001167
38 0.001159
39 0.001151
40 0.001150
41 0.001144
42 0.001137
43 0.001127
44 0.001123
45 0.001120
46 0.001120
47 0.001114
48 0.001106
49 0.001099
50 0.001097
51 0.001092
52 0.001091
53 0.001088
54 0.001080
55 0.001080
56 0.001076
57 0.001073
58 0.001067
59 0.001062
60 0.001055
61 0.001051
62 0.001045
63 0.001036
64 0.001027
65 0.001019
66 0.001011
67 0.001006
68 0.001001
69 0.000998
70 0.000998
71 0.000999
72 0.001000
73 0.001003
74 0.001005
75 0.001006
76 0.001007
77 0.001008
78 0.001008
79 0.001010
80 0.001014
81 0.001015
82 0.001017
83 0.001014
84 0.001007
85 0.001002
86 0.001000
87 0.000995
88 0.000985
89 0.000974
90 0.000960
91 0.000947
92 0.000940
93 0.000933
94 0.000927
95 0.000918
96 0.000911
97 0.000906
98 0.000903
99 0.000895
100 0.000889
101 0.000880
102 0.000874
103 0.000867
104 0.000862
105 0.000861
106 0.000860
107 0.000856
108 0.000853
109 0.000851
110 0.000852
111 0.000849
112 0.000847
113 0.000845
114 0.000842
115 0.000837
116 0.000835
117 0.000833
118 0.000829
119 0.000826
120 0.000824
121 0.000823
122 0.000820
123 0.000814
124 0.000809
125 0.000807
126 0.000803
127 0.000797
128 0.000794
129 0.000796
130 0.000797
131 0.000799
132 0.000806
133 0.000809
134 0.000811
135 0.000815
136 0.000815
137 0.000815
138 0.000815
139 0.000815
140 0.000812
141 0.000809
142 0.000804
143 0.000798
144 0.000795
145 0.000789
146 0.000783
147 0.000775
148 0.000770
149 0.000761
150 0.000756
151 0.000749
152 0.000746
153 0.000741
154 0.000737
155 0.000732
156 0.000729
157 0.000729
158 0.000730
159 0.000727
160 0.000724
161 0.000723
162 0.000719
163 0.000720
164 0.000718
165 0.000719
166 0.000722
167 0.000724
168 0.000723
169 0.000724
170 0.000722
171 0.000720
172 0.000719
173 0.000722
174 0.000720
175 0.000720
176 0.000718
177 0.000719
178 0.000721
179 0.000722
180 0.000722
181 0.000722
182 0.000720
183 0.000713
184 0.000703
185 0.000696
186 0.000691
187 0.000689
188 0.000688
189 0.000684
190 0.000680
191 0.000675
192 0.000673
193 0.000669
194 0.000665
195 0.000655
196 0.000646
197 0.000640
198 0.000639
199 0.000639
200 0.000637
201 0.000636
202 0.000635
203 0.000636
204 0.000631
205 0.000626
206 0.000619
207 0.000617
208 0.000617
209 0.000620
210 0.000624
211 0.000627
212 0.000626
213 0.000629
214 0.000632
215 0.000634
216 0.000638
217 0.000641
218 0.000645
219 0.000648
220 0.000652
221 0.000654
222 0.000655
223 0.000654
224 0.000653
225 0.000652
226 0.000652
227 0.000648
228 0.000647
229 0.000645
230 0.000642
231 0.000638
232 0.000632
233 0.000625
234 0.000625
235 0.000624
236 0.000615
237 0.000608
238 0.000605
239 0.000603
240 0.000601
241 0.000596
242 0.000591
243 0.000588
244 0.000585
245 0.000581
246 0.000578
247 0.000577
248 0.000576
249 0.000579
250 0.000581
251 0.000582
252 0.000586
253 0.000588
254 0.000588
255 0.000589
256 0.000585
257 0.000584
258 0.000584
259 0.000583
260 0.000583
261 0.000583
262 0.000585
263 0.000584
264 0.000585
265 0.000585
266 0.000587
267 0.000587
268 0.000589
269 0.000589
270 0.000587
271 0.000582
272 0.000577
273 0.000573
274 0.000569
275 0.000567
276 0.000568
277 0.000563
278 0.000557
279 0.000554
280 0.000555
281 0.000551
282 0.000547
283 0.000546
284 0.000538
285 0.000531
286 0.000530
287 0.000532
288 0.000532
289 0.000528
290 0.000525
291 0.000522
292 0.000518
293 0.000514
294 0.000507
295 0.000503
296 0.000504
297 0.000508
298 0.000514
299 0.000523
300 0.000527
301 0.000528
302 0.000529
303 0.000527
304 0.000528
305 0.000532
306 0.000532
307 0.000531
308 0.000536
309 0.000538
310 0.000543
311 0.000549
312 0.000551
313 0.000551
314 0.000555
315 0.000555
316 0.000558
317 0.000558
318 0.000555
319 0.000550
320 0.000547
321 0.000543
322 0.000538
323 0.000536
324 0.000534
325 0.000529
326 0.000526
327 0.000524
328 0.000524
329 0.000526
330 0.000527
331 0.000527
332 0.000527
333 0.000532
334 0.000531
335 0.000530
336 0.000525
337 0.000518
338 0.000513
339 0.000513
340 0.000513
341 0.000518
342 0.000518
343 0.000520
344 0.000518
345 0.000518
346 0.000518
347 0.000517
348 0.000513
349 0.000510
350 0.000511
351 0.000515
352 0.000516
353 0.000515
354 0.000517
355 0.000516
356 0.000515
357 0.000514
358 0.000511
359 0.000501
360 0.000497
361 0.000496
362 0.000496
363 0.000496
364 0.000496
365 0.000493
366 0.000493
367 0.000489
368 0.000484
369 0.000482
370 0.000480
371 0.000474
372 0.000469
373 0.000468
374 0.000467
375 0.000467
376 0.000465
377 0.000463
378 0.000461
379 0.000461
380 0.000458
381 0.000456
382 0.000452
383 0.000448
384 0.000444
385 0.000444
386 0.000445
387 0.000448
388 0.000451
389 0.000453
390 0.000453
391 0.000453
392 0.000455
393 0.000457
394 0.000454
395 0.000451
396 0.000452
397 0.000454
398 0.000458
399 0.000459
400 0.000459
401 0.000462
402 0.000467
403 0.000470
404 0.000471
405 0.000471
406 0.000468
407 0.000466
408 0.000467
409 0.000463
410 0.000460
411 0.000456
412 0.000456
413 0.000458
414 0.000457
415 0.000454
416 0.000450
417 0.000446
418 0.000440
419 0.000435
420 0.000433
421 0.000432
422 0.000432
423 0.000431
424 0.000426
425 0.000421
426 0.000415
427 0.000410
428 0.000407
429 0.000405
430 0.000405
431 0.000403
432 0.000402
433 0.000404
434 0.000404
435 0.000400
436 0.000397
437 0.000399
438 0.000401
439 0.000403
440 0.000406
441 0.000409
442 0.000407
443 0.000405
444 0.000401
445 0.000399
446 0.000397
447 0.000397
448 0.000399
449 0.000403
450 0.000406
451 0.000406
452 0.000404
453 0.000404
454 0.000402
455 0.000401
456 0.000402
457 0.000401
458 0.000401
459 0.000399
460 0.000397
461 0.000395
462 0.000395
463 0.000395
464 0.000392
465 0.000388
466 0.000384
467 0.000380
468 0.000380
469 0.000380
470 0.000377
471 0.000371
472 0.000367
473 0.000363
474 0.000362
475 0.000362
476 0.000362
477 0.000363
478 0.000367
479 0.000371
480 0.000372
481 0.000372
482 0.000373
483 0.000375
484 0.000375
485 0.000376
486 0.000378
487 0.000386
488 0.000386
489 0.000390
490 0.000392
491 0.000395
492 0.000395
493 0.000393
494 0.000386
495 0.000381
496 0.000375
497 0.000372
498 0.000370
499 0.000368
500 0.000367
501 0.000365
502 0.000365
503 0.000364
504 0.000363
505 0.000355
506 0.000350
507 0.000345
508 0.000344
509 0.000341
510 0.000338
511 0.000333
512 0.000331
513 0.000326
514 0.000325
515 0.000320
516 0.000316
517 0.000313
518 0.000313
519 0.000312
520 0.000310
521 0.000311
522 0.000313
523 0.000315
524 0.000318
525 0.000317
526 0.000313
527 0.000313
528 0.000311
529 0.000308
530 0.000308
531 0.000309
532 0.000307
533 0.000307
534 0.000308
535 0.000310
536 0.000310
537 0.000310
538 0.000309
539 0.000308
540 0.000306
541 0.000303
542 0.000304
543 0.000307
544 0.000310
545 0.000313
546 0.000317
547 0.000315
548 0.000317
549 0.000318
550 0.000319
551 0.000320
552 0.000319
553 0.000315
554 0.000315
555 0.000314
556 0.000312
557 0.000308
558 0.000303
559 0.000300
560 0.000296
561 0.000293
562 0.000287
563 0.000286
564 0.000285
565 0.000285
566 0.000288
567 0.000290
568 0.000292
569 0.000299
570 0.000301
571 0.000303
572 0.000304
573 0.000306
574 0.000309
575 0.000311
576 0.000313
577 0.000313
578 0.000313
579 0.000317
580 0.000320
581 0.000321
582 0.000321
583 0.000319
584 0.000317
585 0.000316
586 0.000314
587 0.000312
588 0.000311
589 0.000307
590 0.000304
591 0.000301
592 0.000300
593 0.000295
594 0.000290
595 0.000288
596 0.000284
597 0.000283
598 0.000281
599 0.000279
600 0.000279
601 0.000280
602 0.000278
603 0.000278
604 0.000278
605 0.000277
606 0.000275
607 0.000274
608 0.000269
609 0.000264
610 0.000259
611 0.000255
612 0.000252
613 0.000246
614 0.000242
615 0.000237
616 0.000238
617 0.000237
618 0.000235
619 0.000234
620 0.000230
621 0.000229
622 0.000231
623 0.000235
624 0.000238
625 0.000240
626 0.000242
627 0.000244
628 0.000247
629 0.000250
630 0.000254
631 0.000260
632 0.000264
633 0.000266
634 0.000265
635 0.000263
636 0.000258
637 0.000255
638 0.000251
639 0.000247
640 0.000244
641 0.000241
642 0.000237
643 0.000235
644 0.000232
645 0.000227
646 0.000221
647 0.000215
648 0.000209
649 0.000206
650 0.000206
651 0.000206
652 0.000205
653 0.000204
654 0.000201
655 0.000199
656 0.000201
657 0.000204
658 0.000206
659 0.000206
660 0.000205
661 0.000206
662 0.000209
663 0.000210
664 0.000211
665 0.000213
666 0.000216
667 0.000218
668 0.000219
669 0.000218
670 0.000216
671 0.000215
672 0.000213
673 0.000211
674 0.000209
675 0.000208
676 0.000205
677 0.000201
678 0.000197
679 0.000192
680 0.000189
681 0.000187
682 0.000183
683 0.000180
684 0.000179
685 0.000178
686 0.000179
687 0.000179
688 0.000177
689 0.000176
690 0.000177
691 0.000178
692 0.000177
693 0.000175
694 0.000172
695 0.000168
696 0.000166
697 0.000164
698 0.000165
699 0.000165
700 0.000164
701 0.000164
702 0.000164
703 0.000168
704 0.000173
705 0.000177
706 0.000179
707 0.000180
708 0.000182
709 0.000185
710 0.000189
711 0.000193
712 0.000198
713 0.000204
714 0.000205
715 0.000203
716 0.000202
717 0.000203
718 0.000202
719 0.000200
720 0.000199
721 0.000198
722 0.000198
723 0.000197
724 0.000196
725 0.000193
726 0.000191
727 0.000189
728 0.000188
729 0.000189
730 0.000188
731 0.000189
732 0.000189
733 0.000188
734 0.000184
735 0.000178
736 0.000176
737 0.000174
738 0.000176
739 0.000175
740 0.000172
741 0.000168
742 0.000164
743 0.000162
744 0.000160
745 0.000156
746 0.000153
747 0.000151
748 0.000148
749 0.000149
750 0.000148
751 0.000147
752 0.000145
753 0.000146
754 0.000145
755 0.000143
756 0.000143
757 0.000141
758 0.000139
759 0.000138
760 0.000135
761 0.000132
762 0.000130
763 0.000128
764 0.000126
765 0.000123
766 0.000123
767 0.000123
768 0.000124
769 0.000124
770 0.000125
771 0.000122
772 0.000121
773 0.000119
774 0.000118
775 0.000115
776 0.000111
777 0.000108
778 0.000104
779 0.000099
780 0.000095
781 0.000090
782 0.000085
783 0.000082
784 0.000081
785 0.000081
786 0.000079
787 0.000077
788 0.000074
789 0.000072
790 0.000073
791 0.000074
792 0.000074
793 0.000073
794 0.000072
795 0.000072
796 0.000072
797 0.000070
798 0.000068
799 0.000063
800 0.000060
801 0.000058
802 0.000054
803 0.000053
804 0.000052
805 0.000052
806 0.000053
807 0.000053
808 0.000054
809 0.000054
