# i correlation
1 0.001696
2 0.001655
3 0.001623
4 0.001596
5 0.001567
6 0.001539
7 0.001514
8 0.001489
9 0.001467
10 0.001446
11 0.001427
12 0.001413
13 0.001401
14 0.001392
15 0.001384
16 0.001376
17 0.001369
18 0.001364
19 0.001359
20 0.001352
21 0.001342
22 0.001334
23 0.001330
24 0.001325
25 0.001315
26 0.001307
27 0.001302
28 0.001298
29 0.001287
30 0.001282
31 0.001277
32 0.001273
33 0.001268
34 0.001260
35 0.001253
36 0.001246
37 0.001241
38 0.001238
39 0.001233
40 0.001227
41 0.001219
42 0.001213
43 0.001210
44 0.001204
45 0.001198
46 0.001196
47 0.001196
48 0.001190
49 0.001181
50 0.001176
51 0.001171
52 0.001164
53 0.001152
54 0.001143
55 0.001136
56 0.001133
57 0.001128
58 0.001118
59 0.001111
60 0.001104
61 0.001096
62 0.001087
63 0.001081
64 0.001076
65 0.001070
66 0.001064
67 0.001061
68 0.001060
69 0.001057
70 0.001056
71 0.001054
72 0.001047
73 0.001042
74 0.001043
75 0.001047
76 0.001049
77 0.001050
78 0.001050
79 0.001045
80 0.001038
81 0.001032
82 0.001027
83 0.001023
84 0.001016
85 0.001008
86 0.001001
87 0.000993
88 0.000990
89 0.000985
90 0.000981
91 0.000976
92 0.000973
93 0.000975
94 0.000974
95 0.000978
96 0.000979
97 0.000980
98 0.000978
99 0.000978
100 0.000977
101 0.000980
102 0.000978
103 0.000974
104 0.000965
105 0.000955
106 0.000949
107 0.000943
108 0.000941
109 0.000939
110 0.000943
111 0.000946
112 0.000949
113 0.000949
114 0.000947
115 0.000941
116 0.000940
117 0.000942
118 0.000939
119 0.000937
120 0.000935
121 0.000937
122 0.000935
123 0.000930
124 0.000924
125 0.000923
126 0.000923
127 0.000920
128 0.000916
129 0.000911
130 0.000908
131 0.000907
132 0.000902
133 0.000900
134 0.000897
135 0.000894
136 0.000890
137 0.000884
138 0.000885
139 0.000882
140 0.000883
141 0.000885
142 0.000885
143 0.000885
144 0.000886
145 0.000891
146 0.000894
147 0.000896
148 0.000894
149 0.000894
150 0.000895
151 0.000893
152 0.000891
153 0.000885
154 0.000881
155 0.000873
156 0.000867
157 0.000863
158 0.000859
159 0.000856
160 0.000854
161 0.000852
162 0.000847
163 0.000842
164 0.000840
165 0.000839
166 0.000838
167 0.000832
168 0.000831
169 0.000833
170 0.000830
171 0.000827
172 0.000824
173 0.000821
174 0.000815
175 0.000811
176 0.000804
177 0.000796
178 0.000791
179 0.000786
180 0.000779
181 0.000772
182 0.000768
183 0.000762
184 0.000756
185 0.000751
186 0.000745
187 0.000737
188 0.000733
189 0.000731
190 0.000730
191 0.000731
192 0.000728
193 0.000722
194 0.000719
195 0.000714
196 0.000711
197 0.000712
198 0.000710
199 0.000706
200 0.000698
201 0.000693
202 0.000684
203 0.000680
204 0.000677
205 0.000674
206 0.000675
207 0.000677
208 0.000679
209 0.000682
210 0.000686
211 0.000690
212 0.000694
213 0.000701
214 0.000705
215 0.000711
216 0.000714
217 0.000715
218 0.000715
219 0.000715
220 0.000714
221 0.000711
222 0.000705
223 0.000700
224 0.000696
225 0.000691
226 0.000686
227 0.000682
228 0.000681
229 0.000682
230 0.000683
231 0.000682
232 0.000676
233 0.000673
234 0.000669
235 0.000666
236 0.000661
237 0.000656
238 0.000651
239 0.000651
240 0.000650
241 0.000649
242 0.000647
243 0.000650
244 0.000654
245 0.000655
246 0.000657
247 0.000660
248 0.000662
249 0.000661
250 0.000655
251 0.000653
252 0.000654
253 0.000652
254 0.000647
255 0.000641
256 0.000639
257 0.000636
258 0.000635
259 0.000630
260 0.000629
261 0.000628
262 0.000623
263 0.000623
264 0.000626
265 0.000626
266 0.000624
267 0.000625
268 0.000627
269 0.000630
270 0.000630
271 0.000635
272 0.000633
273 0.000629
274 0.000629
275 0.000629
276 0.000627
277 0.000623
278 0.000618
279 0.000611
280 0.000604
281 0.000596
282 0.000591
283 0.000587
284 0.000584
285 0.000583
286 0.000584
287 0.000585
288 0.000585
289 0.000585
290 0.000589
291 0.000594
292 0.000601
293 0.000602
294 0.000607
295 0.000611
296 0.000614
297 0.000615
298 0.000614
299 0.000614
300 0.000612
301 0.000608
302 0.000601
303 0.000600
304 0.000600
305 0.000597
306 0.000589
307 0.000586
308 0.000587
309 0.000588
310 0.000589
311 0.000591
312 0.000594
313 0.000593
314 0.000595
315 0.000596
316 0.000599
317 0.000602
318 0.000603
319 0.000601
320 0.000603
321 0.000605
322 0.000605
323 0.000607
324 0.000609
325 0.000608
326 0.000605
327 0.000602
328 0.000597
329 0.000594
330 0.000593
331 0.000592
332 0.000592
333 0.000591
334 0.000586
335 0.000582
336 0.000576
337 0.000573
338 0.000571
339 0.000570
340 0.000571
341 0.000571
342 0.000575
343 0.000577
344 0.000581
345 0.000586
346 0.000593
347 0.000600
348 0.000605
349 0.000612
350 0.000615
351 0.000622
352 0.000626
353 0.000630
354 0.000630
355 0.000631
356 0.000630
357 0.000630
358 0.000626
359 0.000627
360 0.000630
361 0.000632
362 0.000628
363 0.000620
364 0.000615
365 0.000606
366 0.000602
367 0.000598
368 0.000593
369 0.000591
370 0.000587
371 0.000582
372 0.000575
373 0.000571
374 0.000566
375 0.000562
376 0.000559
377 0.000556
378 0.000550
379 0.000548
380 0.000548
381 0.000551
382 0.000550
383 0.000546
384 0.000540
385 0.000538
386 0.000536
387 0.000537
388 0.000536
389 0.000536
390 0.000533
391 0.000532
392 0.000531
393 0.000533
394 0.000533
395 0.000531
396 0.000529
397 0.000528
398 0.000528
399 0.000529
400 0.000533
401 0.000534
402 0.000532
403 0.000528
404 0.000527
405 0.000525
406 0.000519
407 0.000514
408 0.000510
409 0.000503
410 0.000496
411 0.000491
412 0.000483
413 0.000477
414 0.000469
415 0.000464
416 0.000458
417 0.000456
418 0.000451
419 0.000443
420 0.000440
421 0.000438
422 0.000438
423 0.000437
424 0.000436
425 0.000438
426 0.000437
427 0.000438
428 0.000440
429 0.000442
430 0.000446
431 0.000447
432 0.000450
433 0.000449
434 0.000448
435 0.000449
436 0.000449
437 0.000452
438 0.000456
439 0.000459
440 0.000460
441 0.000462
442 0.000464
443 0.000469
444 0.000477
445 0.000483
446 0.000488
447 0.000489
448 0.000490
449 0.000488
450 0.000490
451 0.000488
452 0.000483
453 0.000475
454 0.000471
455 0.000466
456 0.000461
457 0.000458
458 0.000456
459 0.000454
460 0.000450
461 0.000446
462 0.000442
463 0.000442
464 0.000442
465 0.000443
466 0.000439
467 0.000434
468 0.000430
469 0.000430
470 0.000431
471 0.000434
472 0.000440
473 0.000444
474 0.000449
475 0.000453
476 0.000456
477 0.000458
478 0.000461
479 0.000459
480 0.000455
481 0.000453
482 0.000452
483 0.000449
484 0.000445
485 0.000442
486 0.000437
487 0.000433
488 0.000425
489 0.000421
490 0.000418
491 0.000416
492 0.000415
493 0.000412
494 0.000408
495 0.000405
496 0.000403
497 0.000401
498 0.000399
499 0.000397
500 0.000396
501 0.000397
502 0.000398
503 0.000397
504 0.000395
505 0.000392
506 0.000391
507 0.000389
508 0.000384
509 0.000379
510 0.000376
511 0.000375
512 0.000371
513 0.000368
514 0.000366
515 0.000365
516 0.000362
517 0.000359
518 0.000357
519 0.000351
520 0.000344
521 0.000340
522 0.000338
523 0.000334
524 0.000329
525 0.000325
526 0.000319
527 0.000313
528 0.000309
529 0.000307
530 0.000303
531 0.000302
532 0.000303
533 0.000306
534 0.000306
535 0.000305
536 0.000304
537 0.000300
538 0.000300
539 0.000303
540 0.000301
541 0.000298
542 0.000297
543 0.000298
544 0.000294
545 0.000288
546 0.000286
547 0.000281
548 0.000277
549 0.000274
550 0.000268
551 0.000267
552 0.000267
553 0.000268
554 0.000264
555 0.000259
556 0.000254
557 0.000249
558 0.000245
559 0.000239
560 0.000235
561 0.000231
562 0.000226
563 0.000220
564 0.000212
565 0.000206
566 0.000201
567 0.000199
568 0.000198
569 0.000196
570 0.000195
571 0.000193
572 0.000192
573 0.000188
574 0.000186
575 0.000186
576 0.000190
577 0.000192
578 0.000190
579 0.000190
580 0.000187
581 0.000181
582 0.000178
583 0.000173
584 0.000170
585 0.000165
586 0.000165
587 0.000162
588 0.000157
589 0.000152
590 0.000152
591 0.000155
592 0.000161
593 0.000166
594 0.000171
595 0.000176
596 0.000184
597 0.000185
598 0.000190
599 0.000195
600 0.000202
601 0.000206
602 0.000208
603 0.000210
604 0.000212
605 0.000210
606 0.000206
607 0.000206
608 0.000207
609 0.000210
610 0.000213
611 0.000216
612 0.000220
613 0.000222
614 0.000225
615 0.000229
616 0.000233
617 0.000237
618 0.000241
619 0.000243
620 0.000245
621 0.000246
622 0.000246
623 0.000246
624 0.000246
625 0.000242
626 0.000239
627 0.000234
628 0.000232
629 0.000228
630 0.000224
631 0.000219
632 0.000213
633 0.000207
634 0.000203
635 0.000202
636 0.000197
637 0.000193
638 0.000190
639 0.000186
640 0.000181
641 0.000179
642 0.000178
643 0.000178
644 0.000177
645 0.000176
646 0.000176
647 0.000175
648 0.000174
649 0.000172
650 0.000169
651 0.000170
652 0.000170
653 0.000172
654 0.000175
655 0.000176
656 0.000180
657 0.000183
658 0.000185
659 0.000184
660 0.000182
661 0.000178
662 0.000174
663 0.000173
664 0.000172
665 0.000171
666 0.000171
667 0.000168
668 0.000165
669 0.000166
670 0.000165
671 0.000164
672 0.000160
673 0.000159
674 0.000158
675 0.000159
676 0.000158
677 0.000156
678 0.000154
679 0.000153
680 0.000152
681 0.000149
682 0.000147
683 0.000141
684 0.000138
685 0.000135
686 0.000132
687 0.000130
688 0.000129
689 0.000130
690 0.000132
691 0.000133
692 0.000134
693 0.000135
694 0.000138
695 0.000139
696 0.000142
697 0.000142
698 0.000142
699 0.000143
700 0.000142
701 0.000141
702 0.000142
703 0.000145
704 0.000146
705 0.000147
706 0.000146
707 0.000141
708 0.000142
709 0.000140
710 0.000134
711 0.000131
712 0.000131
713 0.000132
714 0.000132
715 0.000134
716 0.000131
717 0.000132
718 0.000131
719 0.000131
720 0.000130
721 0.000133
722 0.000137
723 0.000140
724 0.000141
725 0.000140
726 0.000139
727 0.000137
728 0.000135
729 0.000133
730 0.000130
731 0.000128
732 0.000125
733 0.000124
734 0.000124
735 0.000122
736 0.000123
737 0.000122
738 0.000121
739 0.000118
740 0.000118
741 0.000118
742 0.000119
743 0.000121
744 0.000121
745 0.000121
746 0.000120
747 0.000119
748 0.000118
749 0.000117
750 0.000119
751 0.000118
752 0.000119
753 0.000120
754 0.000121
755 0.000125
756 0.000126
757 0.000127
758 0.000127
759 0.000129
760 0.000131
761 0.000134
762 0.000140
763 0.000143
764 0.000145
765 0.000144
766 0.000146
767 0.000150
768 0.000153
769 0.000155
770 0.000158
771 0.000161
772 0.000162
773 0.000163
774 0.000162
775 0.000162
776 0.000162
777 0.000161
778 0.000158
779 0.000154
780 0.000149
781 0.000147
782 0.000143
783 0.000141
784 0.000137
785 0.000135
786 0.000135
787 0.000135
788 0.000133
789 0.000133
790 0.000137
791 0.000141
792 0.000144
793 0.000145
794 0.000146
795 0.000144
796 0.000143
797 0.000142
798 0.000140
799 0.000140
800 0.000137
801 0.000137
802 0.000135
803 0.000132
804 0.000132
805 0.000132
806 0.000130
807 0.000129
808 0.000126
809 0.000125
