# i correlation
1 0.001388
2 0.001349
3 0.001314
4 0.001283
5 0.001253
6 0.001227
7 0.001202
8 0.001184
9 0.001167
10 0.001152
11 0.001140
12 0.001124
13 0.001109
14 0.001094
15 0.001089
16 0.001083
17 0.001072
18 0.001064
19 0.001062
20 0.001059
21 0.001057
22 0.001058
23 0.001057
24 0.001055
25 0.001052
26 0.001047
27 0.001040
28 0.001030
29 0.001022
30 0.001014
31 0.001010
32 0.001008
33 0.001006
34 0.001000
35 0.000994
36 0.000990
37 0.000976
38 0.000965
39 0.000952
40 0.000942
41 0.000934
42 0.000927
43 0.000920
44 0.000914
45 0.000910
46 0.000906
47 0.000902
48 0.000899
49 0.000901
50 0.000899
51 0.000897
52 0.000896
53 0.000898
54 0.000899
55 0.000901
56 0.000904
57 0.000904
58 0.000903
59 0.000898
60 0.000895
61 0.000895
62 0.000892
63 0.000889
64 0.000885
65 0.000881
66 0.000880
67 0.000875
68 0.000876
69 0.000871
70 0.000862
71 0.000855
72 0.000854
73 0.000854
74 0.000856
75 0.000855
76 0.000856
77 0.000852
78 0.000850
79 0.000849
80 0.000850
81 0.000852
82 0.000854
83 0.000855
84 0.000857
85 0.000856
86 0.000850
87 0.000846
88 0.000844
89 0.000839
90 0.000837
91 0.000838
92 0.000838
93 0.000838
94 0.000835
95 0.000834
96 0.000832
97 0.000828
98 0.000822
99 0.000819
100 0.000814
101 0.000807
102 0.000800
103 0.000792
104 0.000786
105 0.000777
106 0.000772
107 0.000771
108 0.000769
109 0.000765
110 0.000760
111 0.000753
112 0.000745
113 0.000737
114 0.000726
115 0.000720
116 0.000714
117 0.000710
118 0.000704
119 0.000702
120 0.000702
121 0.000702
122 0.000700
123 0.000696
124 0.000694
125 0.000685
126 0.000677
127 0.000666
128 0.000660
129 0.000656
130 0.000652
131 0.000651
132 0.000650
133 0.000645
134 0.000643
135 0.000641
136 0.000640
137 0.000639
138 0.000637
139 0.000635
140 0.000636
141 0.000635
142 0.000635
143 0.000634
144 0.000636
145 0.000638
146 0.000642
147 0.000644
148 0.000645
149 0.000643
150 0.000640
151 0.000638
152 0.000633
153 0.000627
154 0.000621
155 0.000618
156 0.000613
157 0.000614
158 0.000609
159 0.000606
160 0.000601
161 0.000598
162 0.000596
163 0.000594
164 0.000593
165 0.000590
166 0.000585
167 0.000581
168 0.000580
169 0.000574
170 0.000570
171 0.000571
172 0.000573
173 0.000573
174 0.000571
175 0.000570
176 0.000572
177 0.000573
178 0.000574
179 0.000572
180 0.000570
181 0.000567
182 0.000565
183 0.000566
184 0.000568
185 0.000569
186 0.000571
187 0.000572
188 0.000572
189 0.000571
190 0.000569
191 0.000564
192 0.000557
193 0.000553
194 0.000545
195 0.000539
196 0.000534
197 0.000531
198 0.000527
199 0.000525
200 0.000526
201 0.000522
202 0.000519
203 0.000518
204 0.000516
205 0.000510
206 0.000507
207 0.000501
208 0.000496
209 0.000492
210 0.000486
211 0.000477
212 0.000473
213 0.000470
214 0.000467
215 0.000465
216 0.000460
217 0.000457
218 0.000455
219 0.000454
220 0.000456
221 0.000456
222 0.000457
223 0.000457
224 0.000455
225 0.000456
226 0.000457
227 0.000457
228 0.000455
229 0.000453
230 0.000452
231 0.000454
232 0.000456
233 0.000453
234 0.000452
235 0.000444
236 0.000442
237 0.000439
238 0.000437
239 0.000437
240 0.000434
241 0.000435
242 0.000438
243 0.000439
244 0.000443
245 0.000442
246 0.000444
247 0.000447
248 0.000450
249 0.000450
250 0.000451
251 0.000452
252 0.000454
253 0.000457
254 0.000459
255 0.000458
256 0.000457
257 0.000455
258 0.000456
259 0.000459
260 0.000457
261 0.000457
262 0.000455
263 0.000456
264 0.000455
265 0.000452
266 0.000446
267 0.000447
268 0.000447
269 0.000446
270 0.000447
271 0.000446
272 0.000446
273 0.000440
274 0.000433
275 0.000423
276 0.000413
277 0.000406
278 0.000401
279 0.000396
280 0.000393
281 0.000392
282 0.000391
283 0.000391
284 0.000392
285 0.000393
286 0.000395
287 0.000397
288 0.000401
289 0.000399
290 0.000394
291 0.000392
292 0.000390
293 0.000389
294 0.000387
295 0.000387
296 0.000387
297 0.000388
298 0.000383
299 0.000379
300 0.000376
301 0.000372
302 0.000367
303 0.000365
304 0.000364
305 0.000364
306 0.000365
307 0.000363
308 0.000361
309 0.000358
310 0.000358
311 0.000355
312 0.000358
313 0.000360
314 0.000364
315 0.000367
316 0.000369
317 0.000372
318 0.000371
319 0.000372
320 0.000376
321 0.000382
322 0.000385
323 0.000382
324 0.000383
325 0.000384
326 0.000384
327 0.000386
328 0.000387
329 0.000389
330 0.000391
331 0.000390
332 0.000391
333 0.000394
334 0.000396
335 0.000401
336 0.000406
337 0.000413
338 0.000420
339 0.000427
340 0.000435
341 0.000438
342 0.000437
343 0.000436
344 0.000436
345 0.000434
346 0.000434
347 0.000429
348 0.000427
349 0.000427
350 0.000428
351 0.000426
352 0.000422
353 0.000415
354 0.000410
355 0.000409
356 0.000405
357 0.000401
358 0.000396
359 0.000391
360 0.000388
361 0.000386
362 0.000383
363 0.000384
364 0.000380
365 0.000377
366 0.000373
367 0.000371
368 0.000368
369 0.000364
370 0.000364
371 0.000368
372 0.000370
373 0.000370
374 0.000369
375 0.000367
376 0.000364
377 0.000360
378 0.000360
379 0.000360
380 0.000363
381 0.000363
382 0.000364
383 0.000368
384 0.000369
385 0.000373
386 0.000375
387 0.000378
388 0.000379
389 0.000380
390 0.000383
391 0.000386
392 0.000382
393 0.000383
394 0.000386
395 0.000391
396 0.000393
397 0.000389
398 0.000384
399 0.000382
400 0.000378
401 0.000376
402 0.000370
403 0.000367
404 0.000366
405 0.000368
406 0.000373
407 0.000375
408 0.000377
409 0.000378
410 0.000377
411 0.000376
412 0.000377
413 0.000373
414 0.000370
415 0.000368
416 0.000366
417 0.000367
418 0.000367
419 0.000366
420 0.000368
421 0.000371
422 0.000374
423 0.000376
424 0.000376
425 0.000376
426 0.000376
427 0.000375
428 0.000374
429 0.000374
430 0.000373
431 0.000371
432 0.000372
433 0.000372
434 0.000370
435 0.000368
436 0.000368
437 0.000368
438 0.000367
439 0.000365
440 0.000361
441 0.000361
442 0.000358
443 0.000359
444 0.000358
445 0.000356
446 0.000353
447 0.000352
448 0.000352
449 0.000352
450 0.000352
451 0.000351
452 0.000352
453 0.000352
454 0.000351
455 0.000345
456 0.000344
457 0.000342
458 0.000341
459 0.000344
460 0.000344
461 0.000346
462 0.000345
463 0.000345
464 0.000346
465 0.000344
466 0.000341
467 0.000341
468 0.000343
469 0.000343
470 0.000345
471 0.000347
472 0.000350
473 0.000349
474 0.000349
475 0.000350
476 0.000349
477 0.000348
478 0.000348
479 0.000351
480 0.000352
481 0.000353
482 0.000354
483 0.000357
484 0.000358
485 0.000359
486 0.000361
487 0.000365
488 0.000368
489 0.000366
490 0.000364
491 0.000361
492 0.000361
493 0.000359
494 0.000359
495 0.000359
496 0.000357
497 0.000356
498 0.000354
499 0.000352
500 0.000350
501 0.000347
502 0.000344
503 0.000345
504 0.000345
505 0.000344
506 0.000343
507 0.000344
508 0.000342
509 0.000340
510 0.000337
511 0.000337
512 0.000337
513 0.000335
514 0.000334
515 0.000333
516 0.000331
517 0.000332
518 0.000331
519 0.000332
520 0.000331
521 0.000330
522 0.000329
523 0.000330
524 0.000330
525 0.000333
526 0.000334
527 0.000337
528 0.000340
529 0.000341
530 0.000343
531 0.000346
532 0.000349
533 0.000354
534 0.000355
535 0.000358
536 0.000359
537 0.000357
538 0.000352
539 0.000347
540 0.000343
541 0.000338
542 0.000332
543 0.000331
544 0.000331
545 0.000332
546 0.000331
547 0.000327
548 0.000323
549 0.000318
550 0.000309
551 0.000304
552 0.000301
553 0.000297
554 0.000296
555 0.000293
556 0.000294
557 0.000293
558 0.000294
559 0.000293
560 0.000294
561 0.000293
562 0.000290
563 0.000289
564 0.000287
565 0.000285
566 0.000280
567 0.000278
568 0.000279
569 0.000280
570 0.000281
571 0.000285
572 0.000285
573 0.000285
574 0.000283
575 0.000279
576 0.000276
577 0.000272
578 0.000268
579 0.000264
580 0.000265
581 0.000266
582 0.000266
583 0.000266
584 0.000267
585 0.000267
586 0.000264
587 0.000264
588 0.000265
589 0.000267
590 0.000265
591 0.000266
592 0.000267
593 0.000268
594 0.000270
595 0.000270
596 0.000266
597 0.000262
598 0.000255
599 0.000252
600 0.000247
601 0.000242
602 0.000235
603 0.000232
604 0.000227
605 0.000224
606 0.000221
607 0.000222
608 0.000226
609 0.000233
610 0.000237
611 0.000241
612 0.000244
613 0.000248
614 0.000250
615 0.000250
616 0.000251
617 0.000253
618 0.000253
619 0.000253
620 0.000254
621 0.000255
622 0.000253
623 0.000251
624 0.000249
625 0.000245
626 0.000242
627 0.000240
628 0.000238
629 0.000234
630 0.000230
631 0.000225
632 0.000223
633 0.000221
634 0.000218
635 0.000216
636 0.000213
637 0.000215
638 0.000217
639 0.000218
640 0.000219
641 0.000218
642 0.000218
643 0.000220
644 0.000220
645 0.000221
646 0.000221
647 0.000220
648 0.000219
649 0.000217
650 0.000216
651 0.000212
652 0.000212
653 0.000212
654 0.000214
655 0.000215
656 0.000219
657 0.000219
658 0.000218
659 0.000217
660 0.000212
661 0.000205
662 0.000196
663 0.000187
664 0.000181
665 0.000177
666 0.000171
667 0.000167
668 0.000162
669 0.000161
670 0.000158
671 0.000156
672 0.000155
673 0.000153
674 0.000150
675 0.000150
676 0.000153
677 0.000157
678 0.000161
679 0.000166
680 0.000171
681 0.000176
682 0.000180
683 0.000180
684 0.000180
685 0.000181
686 0.000179
687 0.000178
688 0.000178
689 0.000173
690 0.000170
691 0.000168
692 0.000166
693 0.000163
694 0.000160
695 0.000155
696 0.000149
697 0.000142
698 0.000133
699 0.000124
700 0.000116
701 0.000112
702 0.000108
703 0.000105
704 0.000103
705 0.000102
706 0.000102
707 0.000102
708 0.000101
709 0.000102
710 0.000103
711 0.000106
712 0.000111
713 0.000118
714 0.000123
715 0.000128
716 0.000131
717 0.000135
718 0.000137
719 0.000135
720 0.000135
721 0.000137
722 0.000138
723 0.000141
724 0.000141
725 0.000141
726 0.000142
727 0.000141
728 0.000142
729 0.000143
730 0.000142
731 0.000142
732 0.000142
733 0.000145
734 0.000145
735 0.000146
736 0.000146
737 0.000148
738 0.000148
739 0.000149
740 0.000149
741 0.000150
742 0.000150
743 0.000150
744 0.000148
745 0.000149
746 0.000151
747 0.000151
748 0.000153
749 0.000155
750 0.000156
751 0.000155
752 0.000151
753 0.000146
754 0.000140
755 0.000135
756 0.000132
757 0.000128
758 0.000126
759 0.000124
760 0.000124
761 0.000123
762 0.000121
763 0.000121
764 0.000120
765 0.000118
766 0.000116
767 0.000118
768 0.000117
769 0.000115
770 0.000113
771 0.000114
772 0.000114
773 0.000113
774 0.000112
775 0.000110
776 0.000108
777 0.000105
778 0.000105
779 0.000104
780 0.000105
781 0.000106
782 0.000109
783 0.000108
784 0.000109
785 0.000111
786 0.000113
787 0.000113
788 0.000113
789 0.000112
790 0.000111
791 0.000108
792 0.000106
793 0.000102
794 0.000100
795 0.000098
796 0.000098
797 0.000100
798 0.000100
799 0.000099
800 0.000098
801 0.000098
802 0.000098
803 0.000098
804 0.000098
805 0.000098
806 0.000094
807 0.000093
808 0.000090
809 0.000087
