# i correlation
1 0.001899
2 0.001857
3 0.001821
4 0.001789
5 0.001764
6 0.001743
7 0.001724
8 0.001712
9 0.001696
10 0.001684
11 0.001675
12 0.001668
13 0.001663
14 0.001660
15 0.001650
16 0.001640
17 0.001631
18 0.001618
19 0.001607
20 0.001595
21 0.001585
22 0.001577
23 0.001565
24 0.001555
25 0.001546
26 0.001534
27 0.001525
28 0.001517
29 0.001510
30 0.001503
31 0.001491
32 0.001486
33 0.001477
34 0.001471
35 0.001461
36 0.001450
37 0.001442
38 0.001432
39 0.001421
40 0.001413
41 0.001406
42 0.001404
43 0.001394
44 0.001381
45 0.001372
46 0.001364
47 0.001356
48 0.001352
49 0.001352
50 0.001352
51 0.001350
52 0.001348
53 0.001344
54 0.001338
55 0.001332
56 0.001325
57 0.001322
58 0.001317
59 0.001311
60 0.001302
61 0.001292
62 0.001281
63 0.001273
64 0.001259
65 0.001250
66 0.001244
67 0.001235
68 0.001222
69 0.001213
70 0.001205
71 0.001199
72 0.001194
73 0.001184
74 0.001174
75 0.001162
76 0.001150
77 0.001138
78 0.001123
79 0.001114
80 0.001107
81 0.001100
82 0.001094
83 0.001090
84 0.001087
85 0.001085
86 0.001081
87 0.001074
88 0.001065
89 0.001055
90 0.001046
91 0.001040
92 0.001033
93 0.001024
94 0.001013
95 0.001010
96 0.001005
97 0.001002
98 0.000998
99 0.000994
100 0.000990
101 0.000985
102 0.000979
103 0.000977
104 0.000970
105 0.000963
106 0.000958
107 0.000949
108 0.000942
109 0.000940
110 0.000935
111 0.000935
112 0.000935
113 0.000934
114 0.000932
115 0.000929
116 0.000927
117 0.000929
118 0.000928
119 0.000929
120 0.000929
121 0.000928
122 0.000927
123 0.000923
124 0.000919
125 0.000917
126 0.000910
127 0.000904
128 0.000899
129 0.000892
130 0.000887
131 0.000880
132 0.000874
133 0.000871
134 0.000868
135 0.000864
136 0.000859
137 0.000853
138 0.000850
139 0.000850
140 0.000847
141 0.000840
142 0.000834
143 0.000826
144 0.000822
145 0.000820
146 0.000814
147 0.000814
148 0.000815
149 0.000815
150 0.000811
151 0.000804
152 0.000799
153 0.000794
154 0.000791
155 0.000789
156 0.000789
157 0.000793
158 0.000794
159 0.000793
160 0.000788
161 0.000787
162 0.000791
163 0.000794
164 0.000791
165 0.000787
166 0.000787
167 0.000786
168 0.000785
169 0.000789
170 0.000793
171 0.000798
172 0.000802
173 0.000803
174 0.000804
175 0.000802
176 0.000801
177 0.000797
178 0.000791
179 0.000790
180 0.000786
181 0.000786
182 0.000792
183 0.000795
184 0.000800
185 0.000806
186 0.000805
187 0.000807
188 0.000807
189 0.000806
190 0.000803
191 0.000804
192 0.000801
193 0.000797
194 0.000790
195 0.000786
196 0.000783
197 0.000782
198 0.000784
199 0.000788
200 0.000790
201 0.000792
202 0.000787
203 0.000786
204 0.000783
205 0.000779
206 0.000772
207 0.000767
208 0.000759
209 0.000749
210 0.000743
211 0.000737
212 0.000737
213 0.000735
214 0.000734
215 0.000730
216 0.000727
217 0.000724
218 0.000725
219 0.000725
220 0.000726
221 0.000725
222 0.000725
223 0.000728
224 0.000735
225 0.000739
226 0.000744
227 0.000747
228 0.000748
229 0.000751
230 0.000754
231 0.000761
232 0.000764
233 0.000766
234 0.000768
235 0.000768
236 0.000766
237 0.000765
238 0.000764
239 0.000760
240 0.000757
241 0.000759
242 0.000760
243 0.000757
244 0.000754
245 0.000756
246 0.000757
247 0.000753
248 0.000756
249 0.000757
250 0.000752
251 0.000748
252 0.000741
253 0.000736
254 0.000730
255 0.000725
256 0.000722
257 0.000717
258 0.000714
259 0.000712
260 0.000713
261 0.000709
262 0.000705
263 0.000701
264 0.000695
265 0.000687
266 0.000682
267 0.000680
268 0.000676
269 0.000669
270 0.000667
271 0.000666
272 0.000662
273 0.000659
274 0.000659
275 0.000660
276 0.000658
277 0.000657
278 0.000656
279 0.000656
280 0.000655
281 0.000652
282 0.000650
283 0.000651
284 0.000650
285 0.000647
286 0.000643
287 0.000644
288 0.000647
289 0.000645
290 0.000644
291 0.000641
292 0.000638
293 0.000637
294 0.000636
295 0.000632
296 0.000629
297 0.000629
298 0.000631
299 0.000633
300 0.000638
301 0.000642
302 0.000645
303 0.000644
304 0.000641
305 0.000639
306 0.000635
307 0.000631
308 0.000622
309 0.000616
310 0.000609
311 0.000605
312 0.000604
313 0.000604
314 0.000603
315 0.000603
316 0.000600
317 0.000600
318 0.000601
319 0.000600
320 0.000598
321 0.000602
322 0.000601
323 0.000598
324 0.000595
325 0.000591
326 0.000586
327 0.000582
328 0.000573
329 0.000567
330 0.000562
331 0.000559
332 0.000557
333 0.000555
334 0.000556
335 0.000554
336 0.000552
337 0.000551
338 0.000544
339 0.000539
340 0.000535
341 0.000532
342 0.000530
343 0.000529
344 0.000528
345 0.000527
346 0.000526
347 0.000526
348 0.000527
349 0.000525
350 0.000521
351 0.000520
352 0.000517
353 0.000517
354 0.000519
355 0.000518
356 0.000518
357 0.000518
358 0.000518
359 0.000520
360 0.000519
361 0.000519
362 0.000518
363 0.000521
364 0.000523
365 0.000521
366 0.000518
367 0.000516
368 0.000508
369 0.000503
370 0.000499
371 0.000499
372 0.000500
373 0.000503
374 0.000507
375 0.000508
376 0.000510
377 0.000511
378 0.000508
379 0.000504
380 0.000499
381 0.000494
382 0.000486
383 0.000478
384 0.000473
385 0.000471
386 0.000472
387 0.000470
388 0.000470
389 0.000469
390 0.000469
391 0.000465
392 0.000463
393 0.000462
394 0.000463
395 0.000461
396 0.000458
397 0.000453
398 0.000450
399 0.000444
400 0.000440
401 0.000435
402 0.000430
403 0.000428
404 0.000426
405 0.000425
406 0.000424
407 0.000423
408 0.000423
409 0.000421
410 0.000417
411 0.000417
412 0.000417
413 0.000415
414 0.000413
415 0.000414
416 0.000415
417 0.000416
418 0.000416
419 0.000416
420 0.000416
421 0.000418
422 0.000423
423 0.000427
424 0.000430
425 0.000433
426 0.000434
427 0.000435
428 0.000432
429 0.000431
430 0.000435
431 0.000434
432 0.000435
433 0.000436
434 0.000437
435 0.000436
436 0.000435
437 0.000435
438 0.000435
439 0.000436
440 0.000440
441 0.000440
442 0.000439
443 0.000439
444 0.000437
445 0.000436
446 0.000440
447 0.000439
448 0.000437
449 0.000433
450 0.000428
451 0.000426
452 0.000421
453 0.000414
454 0.000407
455 0.000401
456 0.000398
457 0.000394
458 0.000390
459 0.000388
460 0.000386
461 0.000385
462 0.000384
463 0.000382
464 0.000381
465 0.000380
466 0.000380
467 0.000377
468 0.000372
469 0.000369
470 0.000365
471 0.000363
472 0.000360
473 0.000357
474 0.000354
475 0.000353
476 0.000355
477 0.000355
478 0.000354
479 0.000355
480 0.000355
481 0.000350
482 0.000347
483 0.000348
484 0.000350
485 0.000349
486 0.000348
487 0.000346
488 0.000346
489 0.000345
490 0.000344
491 0.000345
492 0.000344
493 0.000346
494 0.000346
495 0.000344
496 0.000343
497 0.000341
498 0.000342
499 0.000341
500 0.000338
501 0.000338
502 0.000336
503 0.000336
504 0.000332
505 0.000328
506 0.000330
507 0.000330
508 0.000330
509 0.000329
510 0.000325
511 0.000317
512 0.000313
513 0.000310
514 0.000304
515 0.000297
516 0.000294
517 0.000289
518 0.000287
519 0.000282
520 0.000278
521 0.000276
522 0.000273
523 0.000266
524 0.000262
525 0.000261
526 0.000261
527 0.000260
528 0.000261
529 0.000257
530 0.000257
531 0.000253
532 0.000249
533 0.000247
534 0.000243
535 0.000242
536 0.000241
537 0.000240
538 0.000244
539 0.000245
540 0.000240
541 0.000238
542 0.000236
543 0.000239
544 0.000240
545 0.000241
546 0.000243
547 0.000244
548 0.000244
549 0.000244
550 0.000246
551 0.000248
552 0.000251
553 0.000251
554 0.000250
555 0.000250
556 0.000248
557 0.000244
558 0.000240
559 0.000237
560 0.000238
561 0.000238
562 0.000239
563 0.000244
564 0.000247
565 0.000248
566 0.000248
567 0.000248
568 0.000249
569 0.000250
570 0.000251
571 0.000250
572 0.000248
573 0.000245
574 0.000241
575 0.000241
576 0.000240
577 0.000242
578 0.000242
579 0.000243
580 0.000245
581 0.000247
582 0.000246
583 0.000246
584 0.000245
585 0.000245
586 0.000238
587 0.000230
588 0.000223
589 0.000218
590 0.000216
591 0.000216
592 0.000215
593 0.000219
594 0.000221
595 0.000224
596 0.000228
597 0.000233
598 0.000235
599 0.000235
600 0.000235
601 0.000234
602 0.000233
603 0.000229
604 0.000227
605 0.000230
606 0.000230
607 0.000230
608 0.000229
609 0.000233
610 0.000234
611 0.000234
612 0.000234
613 0.000234
614 0.000234
615 0.000236
616 0.000234
617 0.000234
618 0.000237
619 0.000242
620 0.000243
621 0.000243
622 0.000244
623 0.000247
624 0.000248
625 0.000253
626 0.000256
627 0.000259
628 0.000262
629 0.000263
630 0.000265
631 0.000266
632 0.000267
633 0.000267
634 0.000267
635 0.000269
636 0.000270
637 0.000268
638 0.000264
639 0.000260
640 0.000254
641 0.000250
642 0.000248
643 0.000245
644 0.000241
645 0.000234
646 0.000230
647 0.000230
648 0.000230
649 0.000233
650 0.000233
651 0.000233
652 0.000230
653 0.000227
654 0.000225
655 0.000225
656 0.000228
657 0.000230
658 0.000234
659 0.000234
660 0.000237
661 0.000240
662 0.000240
663 0.000242
664 0.000248
665 0.000252
666 0.000257
667 0.000258
668 0.000261
669 0.000262
670 0.000261
671 0.000260
672 0.000262
673 0.000263
674 0.000264
675 0.000266
676 0.000269
677 0.000275
678 0.000281
679 0.000285
680 0.000289
681 0.000290
682 0.000289
683 0.000291
684 0.000292
685 0.000293
686 0.000293
687 0.000291
688 0.000291
689 0.000291
690 0.000292
691 0.000293
692 0.000298
693 0.000299
694 0.000300
695 0.000299
696 0.000298
697 0.000296
698 0.000294
699 0.000292
700 0.000291
701 0.000291
702 0.000292
703 0.000290
704 0.000286
705 0.000279
706 0.000270
707 0.000262
708 0.000256
709 0.000252
710 0.000251
711 0.000250
712 0.000248
713 0.000245
714 0.000243
715 0.000241
716 0.000239
717 0.000239
718 0.000241
719 0.000240
720 0.000243
721 0.000244
722 0.000244
723 0.000242
724 0.000240
725 0.000239
726 0.000238
727 0.000237
728 0.000235
729 0.000234
730 0.000235
731 0.000234
732 0.000234
733 0.000235
734 0.000237
735 0.000238
736 0.000238
737 0.000237
738 0.000234
739 0.000235
740 0.000236
741 0.000235
742 0.000234
743 0.000233
744 0.000235
745 0.000236
746 0.000237
747 0.000236
748 0.000236
749 0.000236
750 0.000236
751 0.000236
752 0.000237
753 0.000237
754 0.000237
755 0.000236
756 0.000232
757 0.000228
758 0.000223
759 0.000222
760 0.000218
761 0.000214
762 0.000212
763 0.000207
764 0.000205
765 0.000202
766 0.000200
767 0.000202
768 0.000203
769 0.000202
770 0.000200
771 0.000196
772 0.000192
773 0.000188
774 0.000184
775 0.000180
776 0.000179
777 0.000178
778 0.000176
779 0.000173
780 0.000172
781 0.000174
782 0.000176
783 0.000177
784 0.000178
785 0.000176
786 0.000172
787 0.000167
788 0.000165
789 0.000163
790 0.000160
791 0.000158
792 0.000154
793 0.000150
794 0.000149
795 0.000146
796 0.000144
797 0.000145
798 0.000144
799 0.000144
800 0.000142
801 0.000141
802 0.000141
803 0.000137
804 0.000134
805 0.000133
806 0.000132
807 0.000130
808 0.000126
809 0.000123
