# i correlation
1 0.001541
2 0.001503
3 0.001474
4 0.001450
5 0.001433
6 0.001421
7 0.001412
8 0.001401
9 0.001388
10 0.001370
11 0.001349
12 0.001332
13 0.001321
14 0.001310
15 0.001298
16 0.001285
17 0.001271
18 0.001261
19 0.001251
20 0.001240
21 0.001231
22 0.001225
23 0.001215
24 0.001205
25 0.001194
26 0.001184
27 0.001174
28 0.001167
29 0.001159
30 0.001149
31 0.001135
32 0.001121
33 0.001110
34 0.001095
35 0.001089
36 0.001082
37 0.001077
38 0.001072
39 0.001064
40 0.001057
41 0.001049
42 0.001042
43 0.001032
44 0.001027
45 0.001027
46 0.001025
47 0.001020
48 0.001015
49 0.001013
50 0.001007
51 0.001001
52 0.000997
53 0.000990
54 0.000981
55 0.000974
56 0.000963
57 0.000956
58 0.000954
59 0.000950
60 0.000943
61 0.000938
62 0.000933
63 0.000930
64 0.000928
65 0.000927
66 0.000929
67 0.000929
68 0.000929
69 0.000924
70 0.000919
71 0.000919
72 0.000920
73 0.000918
74 0.000921
75 0.000924
76 0.000926
77 0.000927
78 0.000923
79 0.000920
80 0.000920
81 0.000921
82 0.000926
83 0.000928
84 0.000930
85 0.000932
86 0.000932
87 0.000929
88 0.000927
89 0.000927
90 0.000927
91 0.000925
92 0.000922
93 0.000922
94 0.000924
95 0.000922
96 0.000918
97 0.000914
98 0.000905
99 0.000898
100 0.000892
101 0.000887
102 0.000878
103 0.000872
104 0.000865
105 0.000861
106 0.000860
107 0.000855
108 0.000854
109 0.000851
110 0.000850
111 0.000845
112 0.000843
113 0.000843
114 0.000841
115 0.000840
116 0.000835
117 0.000831
118 0.000828
119 0.000827
120 0.000828
121 0.000828
122 0.000826
123 0.000822
124 0.000819
125 0.000814
126 0.000810
127 0.000802
128 0.000795
129 0.000789
130 0.000783
131 0.000780
132 0.000776
133 0.000770
134 0.000767
135 0.000762
136 0.000755
137 0.000747
138 0.000744
139 0.000743
140 0.000743
141 0.000744
142 0.000743
143 0.000741
144 0.000732
145 0.000725
146 0.000719
147 0.000713
148 0.000706
149 0.000702
150 0.000699
151 0.000695
152 0.000690
153 0.000683
154 0.000676
155 0.000670
156 0.000664
157 0.000658
158 0.000659
159 0.000662
160 0.000666
161 0.000672
162 0.000672
163 0.000673
164 0.000679
165 0.000683
166 0.000686
167 0.000694
168 0.000698
169 0.000700
170 0.000700
171 0.000699
172 0.000699
173 0.000699
174 0.000700
175 0.000701
176 0.000704
177 0.000701
178 0.000700
179 0.000702
180 0.000705
181 0.000706
182 0.000704
183 0.000704
184 0.000704
185 0.000701
186 0.000698
187 0.000697
188 0.000701
189 0.000706
190 0.000710
191 0.000711
192 0.000714
193 0.000712
194 0.000711
195 0.000708
196 0.000707
197 0.000708
198 0.000712
199 0.000713
200 0.000714
201 0.000712
202 0.000708
203 0.000705
204 0.000704
205 0.000704
206 0.000704
207 0.000703
208 0.000702
209 0.000701
210 0.000701
211 0.000699
212 0.000698
213 0.000699
214 0.000702
215 0.000705
216 0.000708
217 0.000707
218 0.000705
219 0.000703
220 0.000701
221 0.000699
222 0.000698
223 0.000694
224 0.000687
225 0.000687
226 0.000684
227 0.000679
228 0.000678
229 0.000679
230 0.000674
231 0.000670
232 0.000663
233 0.000651
234 0.000645
235 0.000641
236 0.000640
237 0.000638
238 0.000636
239 0.000633
240 0.000627
241 0.000619
242 0.000613
243 0.000608
244 0.000607
245 0.000603
246 0.000600
247 0.000596
248 0.000594
249 0.000594
250 0.000593
251 0.000590
252 0.000587
253 0.000584
254 0.000581
255 0.000582
256 0.000582
257 0.000583
258 0.000585
259 0.000585
260 0.000588
261 0.000588
262 0.000588
263 0.000586
264 0.000584
265 0.000588
266 0.000592
267 0.000594
268 0.000595
269 0.000596
270 0.000594
271 0.000590
272 0.000585
273 0.000582
274 0.000584
275 0.000584
276 0.000582
277 0.000582
278 0.000579
279 0.000580
280 0.000583
281 0.000586
282 0.000590
283 0.000591
284 0.000594
285 0.000593
286 0.000592
287 0.000590
288 0.000590
289 0.000593
290 0.000595
291 0.000590
292 0.000588
293 0.000585
294 0.000582
295 0.000581
296 0.000579
297 0.000578
298 0.000576
299 0.000575
300 0.000575
301 0.000574
302 0.000570
303 0.000568
304 0.000567
305 0.000563
306 0.000559
307 0.000557
308 0.000558
309 0.000555
310 0.000551
311 0.000549
312 0.000542
313 0.000533
314 0.000527
315 0.000519
316 0.000514
317 0.000508
318 0.000502
319 0.000498
320 0.000494
321 0.000491
322 0.000488
323 0.000484
324 0.000481
325 0.000477
326 0.000476
327 0.000471
328 0.000465
329 0.000460
330 0.000456
331 0.000455
332 0.000456
333 0.000460
334 0.000460
335 0.000462
336 0.000460
337 0.000456
338 0.000452
339 0.000449
340 0.000445
341 0.000442
342 0.000440
343 0.000436
344 0.000431
345 0.000430
346 0.000431
347 0.000431
348 0.000433
349 0.000436
350 0.000437
351 0.000438
352 0.000440
353 0.000441
354 0.000443
355 0.000444
356 0.000449
357 0.000450
358 0.000451
359 0.000454
360 0.000454
361 0.000454
362 0.000452
363 0.000455
364 0.000458
365 0.000460
366 0.000460
367 0.000456
368 0.000458
369 0.000460
370 0.000460
371 0.000461
372 0.000463
373 0.000463
374 0.000465
375 0.000469
376 0.000469
377 0.000470
378 0.000476
379 0.000477
380 0.000479
381 0.000482
382 0.000482
383 0.000484
384 0.000484
385 0.000485
386 0.000486
387 0.000487
388 0.000485
389 0.000485
390 0.000486
391 0.000487
392 0.000488
393 0.000490
394 0.000492
395 0.000494
396 0.000498
397 0.000498
398 0.000497
399 0.000495
400 0.000493
401 0.000496
402 0.000496
403 0.000497
404 0.000498
405 0.000499
406 0.000498
407 0.000495
408 0.000495
409 0.000493
410 0.000492
411 0.000489
412 0.000485
413 0.000482
414 0.000482
415 0.000482
416 0.000481
417 0.000480
418 0.000479
419 0.000476
420 0.000475
421 0.000472
422 0.000472
423 0.000470
424 0.000469
425 0.000463
426 0.000457
427 0.000455
428 0.000452
429 0.000450
430 0.000451
431 0.000450
432 0.000449
433 0.000447
434 0.000447
435 0.000447
436 0.000445
437 0.000442
438 0.000436
439 0.000430
440 0.000426
441 0.000423
442 0.000423
443 0.000424
444 0.000424
445 0.000427
446 0.000432
447 0.000435
448 0.000435
449 0.000440
450 0.000443
451 0.000444
452 0.000443
453 0.000443
454 0.000446
455 0.000449
456 0.000447
457 0.000448
458 0.000448
459 0.000450
460 0.000456
461 0.000456
462 0.000456
463 0.000455
464 0.000453
465 0.000453
466 0.000456
467 0.000460
468 0.000463
469 0.000467
470 0.000464
471 0.000464
472 0.000463
473 0.000466
474 0.000468
475 0.000471
476 0.000471
477 0.000470
478 0.000468
479 0.000465
480 0.000464
481 0.000461
482 0.000461
483 0.000461
484 0.000461
485 0.000460
486 0.000457
487 0.000456
488 0.000457
489 0.000456
490 0.000455
491 0.000454
492 0.000453
493 0.000449
494 0.000446
495 0.000447
496 0.000450
497 0.000453
498 0.000453
499 0.000457
500 0.000457
501 0.000457
502 0.000456
503 0.000455
504 0.000451
505 0.000448
506 0.000446
507 0.000443
508 0.000438
509 0.000436
510 0.000434
511 0.000429
512 0.000419
513 0.000413
514 0.000405
515 0.000399
516 0.000394
517 0.000393
518 0.000393
519 0.000389
520 0.000388
521 0.000389
522 0.000385
523 0.000381
524 0.000376
525 0.000372
526 0.000371
527 0.000369
528 0.000366
529 0.000360
530 0.000356
531 0.000350
532 0.000343
533 0.000334
534 0.000324
535 0.000320
536 0.000318
537 0.000318
538 0.000314
539 0.000313
540 0.000312
541 0.000308
542 0.000307
543 0.000307
544 0.000306
545 0.000305
546 0.000306
547 0.000304
548 0.000305
549 0.000305
550 0.000306
551 0.000306
552 0.000302
553 0.000298
554 0.000295
555 0.000293
556 0.000291
557 0.000290
558 0.000287
559 0.000285
560 0.000282
561 0.000281
562 0.000280
563 0.000280
564 0.000283
565 0.000282
566 0.000281
567 0.000276
568 0.000277
569 0.000278
570 0.000280
571 0.000282
572 0.000283
573 0.000284
574 0.000286
575 0.000287
576 0.000286
577 0.000286
578 0.000285
579 0.000285
580 0.000283
581 0.000285
582 0.000283
583 0.000282
584 0.000282
585 0.000286
586 0.000289
587 0.000291
588 0.000294
589 0.000296
590 0.000296
591 0.000295
592 0.000294
593 0.000295
594 0.000300
595 0.000304
596 0.000307
597 0.000309
598 0.000310
599 0.000307
600 0.000303
601 0.000301
602 0.000297
603 0.000296
604 0.000294
605 0.000291
606 0.000287
607 0.000284
608 0.000279
609 0.000277
610 0.000275
611 0.000274
612 0.000270
613 0.000264
614 0.000262
615 0.000260
616 0.000260
617 0.000262
618 0.000261
619 0.000261
620 0.000257
621 0.000254
622 0.000252
623 0.000252
624 0.000249
625 0.000248
626 0.000248
627 0.000250
628 0.000248
629 0.000244
630 0.000243
631 0.000242
632 0.000241
633 0.000239
634 0.000239
635 0.000240
636 0.000239
637 0.000238
638 0.000238
639 0.000237
640 0.000235
641 0.000233
642 0.000229
643 0.000226
644 0.000223
645 0.000221
646 0.000220
647 0.000220
648 0.000219
649 0.000217
650 0.000214
651 0.000209
652 0.000207
653 0.000206
654 0.000203
655 0.000200
656 0.000198
657 0.000195
658 0.000192
659 0.000190
660 0.000188
661 0.000188
662 0.000187
663 0.000187
664 0.000189
665 0.000191
666 0.000193
667 0.000195
668 0.000199
669 0.000203
670 0.000208
671 0.000214
672 0.000219
673 0.000222
674 0.000225
675 0.000227
676 0.000228
677 0.000229
678 0.000230
679 0.000232
680 0.000235
681 0.000237
682 0.000238
683 0.000238
684 0.000240
685 0.000243
686 0.000245
687 0.000245
688 0.000244
689 0.000246
690 0.000248
691 0.000249
692 0.000249
693 0.000249
694 0.000251
695 0.000252
696 0.000251
697 0.000250
698 0.000249
699 0.000248
700 0.000246
701 0.000244
702 0.000241
703 0.000237
704 0.000237
705 0.000237
706 0.000237
707 0.000236
708 0.000232
709 0.000229
710 0.000227
711 0.000226
712 0.000223
713 0.000220
714 0.000217
715 0.000216
716 0.000218
717 0.000220
718 0.000219
719 0.000220
720 0.000223
721 0.000221
722 0.000220
723 0.000217
724 0.000217
725 0.000216
726 0.000214
727 0.000212
728 0.000209
729 0.000208
730 0.000207
731 0.000205
732 0.000202
733 0.000199
734 0.000196
735 0.000192
736 0.000191
737 0.000188
738 0.000185
739 0.000185
740 0.000186
741 0.000184
742 0.000181
743 0.000179
744 0.000176
745 0.000173
746 0.000171
747 0.000170
748 0.000170
749 0.000170
750 0.000169
751 0.000167
752 0.000166
753 0.000165
754 0.000163
755 0.000163
756 0.000162
757 0.000165
758 0.000167
759 0.000166
760 0.000162
761 0.000160
762 0.000158
763 0.000155
764 0.000153
765 0.000153
766 0.000154
767 0.000155
768 0.000157
769 0.000157
770 0.000159
771 0.000162
772 0.000161
773 0.000159
774 0.000156
775 0.000153
776 0.000153
777 0.000151
778 0.000150
779 0.000148
780 0.000145
781 0.000140
782 0.000136
783 0.000134
784 0.000131
785 0.000130
786 0.000131
787 0.000131
788 0.000129
789 0.000127
790 0.000123
791 0.000121
792 0.000120
793 0.000120
794 0.000118
795 0.000118
796 0.000115
797 0.000112
798 0.000108
799 0.000107
800 0.000109
801 0.000110
802 0.000110
803 0.000109
804 0.000107
805 0.000104
806 0.000104
807 0.000105
808 0.000104
809 0.000104
