# i correlation
1 0.001592
2 0.001549
3 0.001516
4 0.001483
5 0.001453
6 0.001431
7 0.001412
8 0.001394
9 0.001379
10 0.001370
11 0.001356
12 0.001341
13 0.001326
14 0.001306
15 0.001283
16 0.001262
17 0.001248
18 0.001236
19 0.001223
20 0.001211
21 0.001200
22 0.001189
23 0.001179
24 0.001170
25 0.001161
26 0.001145
27 0.001129
28 0.001114
29 0.001102
30 0.001088
31 0.001078
32 0.001071
33 0.001063
34 0.001057
35 0.001052
36 0.001047
37 0.001041
38 0.001033
39 0.001022
40 0.001016
41 0.001004
42 0.000994
43 0.000983
44 0.000973
45 0.000962
46 0.000959
47 0.000958
48 0.000954
49 0.000953
50 0.000951
51 0.000945
52 0.000936
53 0.000928
54 0.000922
55 0.000917
56 0.000910
57 0.000909
58 0.000908
59 0.000908
60 0.000915
61 0.000920
62 0.000919
63 0.000915
64 0.000910
65 0.000910
66 0.000912
67 0.000915
68 0.000914
69 0.000910
70 0.000910
71 0.000911
72 0.000912
73 0.000912
74 0.000911
75 0.000909
76 0.000903
77 0.000896
78 0.000891
79 0.000889
80 0.000883
81 0.000881
82 0.000881
83 0.000884
84 0.000891
85 0.000900
86 0.000905
87 0.000909
88 0.000907
89 0.000902
90 0.000899
91 0.000900
92 0.000896
93 0.000892
94 0.000882
95 0.000876
96 0.000867
97 0.000861
98 0.000858
99 0.000852
100 0.000843
101 0.000834
102 0.000825
103 0.000816
104 0.000805
105 0.000798
106 0.000789
107 0.000782
108 0.000772
109 0.000768
110 0.000765
111 0.000762
112 0.000759
113 0.000753
114 0.000745
115 0.000741
116 0.000738
117 0.000737
118 0.000729
119 0.000722
120 0.000715
121 0.000708
122 0.000706
123 0.000707
124 0.000712
125 0.000719
126 0.000719
127 0.000721
128 0.000721
129 0.000717
130 0.000709
131 0.000704
132 0.000700
133 0.000697
134 0.000694
135 0.000692
136 0.000690
137 0.000686
138 0.000682
139 0.000678
140 0.000675
141 0.000668
142 0.000663
143 0.000658
144 0.000646
145 0.000640
146 0.000635
147 0.000629
148 0.000622
149 0.000617
150 0.000612
151 0.000604
152 0.000598
153 0.000595
154 0.000586
155 0.000578
156 0.000571
157 0.000566
158 0.000562
159 0.000562
160 0.000563
161 0.000563
162 0.000561
163 0.000561
164 0.000556
165 0.000544
166 0.000535
167 0.000532
168 0.000526
169 0.000525
170 0.000526
171 0.000530
172 0.000534
173 0.000535
174 0.000538
175 0.000537
176 0.000536
177 0.000539
178 0.000537
179 0.000531
180 0.000529
181 0.000523
182 0.000520
183 0.000521
184 0.000527
185 0.000530
186 0.000527
187 0.000522
188 0.000518
189 0.000515
190 0.000510
191 0.000502
192 0.000499
193 0.000496
194 0.000493
195 0.000492
196 0.000492
197 0.000494
198 0.000497
199 0.000499
200 0.000505
201 0.000505
202 0.000505
203 0.000505
204 0.000504
205 0.000498
206 0.000493
207 0.000490
208 0.000488
209 0.000487
210 0.000492
211 0.000495
212 0.000496
213 0.000499
214 0.000497
215 0.000494
216 0.000488
217 0.000485
218 0.000486
219 0.000483
220 0.000485
221 0.000489
222 0.000495
223 0.000502
224 0.000512
225 0.000517
226 0.000518
227 0.000515
228 0.000508
229 0.000503
230 0.000501
231 0.000498
232 0.000499
233 0.000497
234 0.000498
235 0.000500
236 0.000501
237 0.000497
238 0.000494
239 0.000487
240 0.000484
241 0.000482
242 0.000478
243 0.000472
244 0.000468
245 0.000462
246 0.000457
247 0.000458
248 0.000459
249 0.000458
250 0.000462
251 0.000460
252 0.000453
253 0.000448
254 0.000446
255 0.000443
256 0.000433
257 0.000429
258 0.000426
259 0.000424
260 0.000426
261 0.000432
262 0.000434
263 0.000433
264 0.000433
265 0.000431
266 0.000426
267 0.000425
268 0.000427
269 0.000428
270 0.000434
271 0.000439
272 0.000443
273 0.000447
274 0.000453
275 0.000457
276 0.000457
277 0.000452
278 0.000446
279 0.000439
280 0.000434
281 0.000426
282 0.000420
283 0.000416
284 0.000414
285 0.000414
286 0.000415
287 0.000419
288 0.000420
289 0.000422
290 0.000419
291 0.000414
292 0.000406
293 0.000397
294 0.000392
295 0.000390
296 0.000391
297 0.000397
298 0.000398
299 0.000399
300 0.000396
301 0.000395
302 0.000393
303 0.000391
304 0.000387
305 0.000381
306 0.000374
307 0.000371
308 0.000373
309 0.000377
310 0.000379
311 0.000381
312 0.000381
313 0.000378
314 0.000373
315 0.000371
316 0.000369
317 0.000368
318 0.000366
319 0.000361
320 0.000359
321 0.000359
322 0.000361
323 0.000363
324 0.000362
325 0.000361
326 0.000357
327 0.000353
328 0.000345
329 0.000338
330 0.000329
331 0.000322
332 0.000318
333 0.000318
334 0.000317
335 0.000320
336 0.000323
337 0.000324
338 0.000322
339 0.000319
340 0.000314
341 0.000314
342 0.000313
343 0.000311
344 0.000307
345 0.000305
346 0.000303
347 0.000304
348 0.000306
349 0.000306
350 0.000307
351 0.000308
352 0.000310
353 0.000308
354 0.000306
355 0.000304
356 0.000306
357 0.000309
358 0.000314
359 0.000320
360 0.000328
361 0.000335
362 0.000339
363 0.000338
364 0.000341
365 0.000343
366 0.000344
367 0.000345
368 0.000347
369 0.000349
370 0.000350
371 0.000349
372 0.000350
373 0.000354
374 0.000358
375 0.000362
376 0.000363
377 0.000361
378 0.000360
379 0.000358
380 0.000351
381 0.000345
382 0.000346
383 0.000347
384 0.000347
385 0.000346
386 0.000344
387 0.000342
388 0.000339
389 0.000334
390 0.000329
391 0.000322
392 0.000317
393 0.000314
394 0.000309
395 0.000305
396 0.000302
397 0.000300
398 0.000294
399 0.000287
400 0.000284
401 0.000278
402 0.000275
403 0.000271
404 0.000269
405 0.000260
406 0.000251
407 0.000246
408 0.000242
409 0.000240
410 0.000239
411 0.000237
412 0.000234
413 0.000234
414 0.000236
415 0.000234
416 0.000231
417 0.000225
418 0.000222
419 0.000214
420 0.000207
421 0.000205
422 0.000202
423 0.000197
424 0.000199
425 0.000202
426 0.000203
427 0.000209
428 0.000216
429 0.000217
430 0.000216
431 0.000214
432 0.000214
433 0.000213
434 0.000215
435 0.000220
436 0.000223
437 0.000226
438 0.000228
439 0.000230
440 0.000231
441 0.000230
442 0.000228
443 0.000227
444 0.000228
445 0.000230
446 0.000230
447 0.000234
448 0.000242
449 0.000248
450 0.000256
451 0.000262
452 0.000269
453 0.000276
454 0.000282
455 0.000282
456 0.000284
457 0.000286
458 0.000291
459 0.000298
460 0.000309
461 0.000319
462 0.000327
463 0.000333
464 0.000339
465 0.000340
466 0.000337
467 0.000334
468 0.000335
469 0.000333
470 0.000331
471 0.000328
472 0.000327
473 0.000324
474 0.000323
475 0.000323
476 0.000323
477 0.000322
478 0.000318
479 0.000314
480 0.000307
481 0.000306
482 0.000302
483 0.000296
484 0.000289
485 0.000288
486 0.000285
487 0.000283
488 0.000282
489 0.000280
490 0.000275
491 0.000270
492 0.000261
493 0.000256
494 0.000251
495 0.000249
496 0.000248
497 0.000248
498 0.000247
499 0.000248
500 0.000252
501 0.000258
502 0.000264
503 0.000268
504 0.000268
505 0.000271
506 0.000269
507 0.000265
508 0.000263
509 0.000265
510 0.000266
511 0.000269
512 0.000272
513 0.000275
514 0.000276
515 0.000281
516 0.000282
517 0.000279
518 0.000276
519 0.000279
520 0.000282
521 0.000287
522 0.000293
523 0.000299
524 0.000303
525 0.000306
526 0.000307
527 0.000309
528 0.000312
529 0.000316
530 0.000319
531 0.000322
532 0.000324
533 0.000325
534 0.000324
535 0.000326
536 0.000325
537 0.000328
538 0.000332
539 0.000332
540 0.000334
541 0.000334
542 0.000334
543 0.000332
544 0.000331
545 0.000334
546 0.000337
547 0.000338
548 0.000339
549 0.000342
550 0.000344
551 0.000344
552 0.000347
553 0.000349
554 0.000348
555 0.000346
556 0.000345
557 0.000343
558 0.000340
559 0.000343
560 0.000346
561 0.000347
562 0.000347
563 0.000346
564 0.000343
565 0.000337
566 0.000333
567 0.000328
568 0.000325
569 0.000323
570 0.000322
571 0.000323
572 0.000323
573 0.000322
574 0.000320
575 0.000316
576 0.000311
577 0.000310
578 0.000308
579 0.000303
580 0.000298
581 0.000293
582 0.000289
583 0.000285
584 0.000283
585 0.000283
586 0.000283
587 0.000284
588 0.000289
589 0.000292
590 0.000294
591 0.000295
592 0.000297
593 0.000298
594 0.000299
595 0.000302
596 0.000303
597 0.000302
598 0.000307
599 0.000309
600 0.000315
601 0.000316
602 0.000318
603 0.000318
604 0.000317
605 0.000314
606 0.000312
607 0.000311
608 0.000309
609 0.000308
610 0.000307
611 0.000308
612 0.000308
613 0.000306
614 0.000306
615 0.000307
616 0.000303
617 0.000299
618 0.000291
619 0.000285
620 0.000282
621 0.000280
622 0.000278
623 0.000275
624 0.000273
625 0.000269
626 0.000264
627 0.000259
628 0.000257
629 0.000256
630 0.000254
631 0.000255
632 0.000257
633 0.000259
634 0.000264
635 0.000268
636 0.000270
637 0.000271
638 0.000271
639 0.000270
640 0.000269
641 0.000266
642 0.000263
643 0.000257
644 0.000255
645 0.000254
646 0.000254
647 0.000255
648 0.000257
649 0.000259
650 0.000260
651 0.000260
652 0.000261
653 0.000262
654 0.000262
655 0.000262
656 0.000261
657 0.000261
658 0.000263
659 0.000265
660 0.000264
661 0.000261
662 0.000261
663 0.000260
664 0.000261
665 0.000261
666 0.000259
667 0.000254
668 0.000249
669 0.000246
670 0.000242
671 0.000240
672 0.000241
673 0.000242
674 0.000241
675 0.000241
676 0.000240
677 0.000241
678 0.000241
679 0.000237
680 0.000231
681 0.000225
682 0.000221
683 0.000221
684 0.000219
685 0.000221
686 0.000221
687 0.000222
688 0.000225
689 0.000228
690 0.000231
691 0.000232
692 0.000228
693 0.000226
694 0.000223
695 0.000221
696 0.000219
697 0.000215
698 0.000213
699 0.000212
700 0.000213
701 0.000215
702 0.000218
703 0.000219
704 0.000218
705 0.000216
706 0.000214
707 0.000214
708 0.000212
709 0.000210
710 0.000208
711 0.000205
712 0.000202
713 0.000203
714 0.000201
715 0.000201
716 0.000200
717 0.000200
718 0.000199
719 0.000200
720 0.000201
721 0.000200
722 0.000199
723 0.000200
724 0.000201
725 0.000204
726 0.000209
727 0.000211
728 0.000212
729 0.000212
730 0.000213
731 0.000216
732 0.000219
733 0.000222
734 0.000224
735 0.000226
736 0.000227
737 0.000229
738 0.000233
739 0.000236
740 0.000239
741 0.000241
742 0.000240
743 0.000239
744 0.000240
745 0.000243
746 0.000246
747 0.000247
748 0.000249
749 0.000249
750 0.000252
751 0.000255
752 0.000258
753 0.000258
754 0.000255
755 0.000252
756 0.000249
757 0.000249
758 0.000247
759 0.000242
760 0.000238
761 0.000234
762 0.000232
763 0.000229
764 0.000226
765 0.000223
766 0.000219
767 0.000213
768 0.000206
769 0.000203
770 0.000200
771 0.000198
772 0.000197
773 0.000198
774 0.000197
775 0.000196
776 0.000199
777 0.000201
778 0.000201
779 0.000198
780 0.000196
781 0.000194
782 0.000190
783 0.000188
784 0.000187
785 0.000187
786 0.000186
787 0.000184
788 0.000181
789 0.000179
790 0.000177
791 0.000173
792 0.000170
793 0.000167
794 0.000164
795 0.000163
796 0.000157
797 0.000152
798 0.000147
799 0.000143
800 0.000142
801 0.000142
802 0.000141
803 0.000139
804 0.000139
805 0.000141
806 0.000143
807 0.000144
808 0.000144
809 0.000144
