# i correlation
1 0.001415
2 0.001377
3 0.001345
4 0.001318
5 0.001294
6 0.001270
7 0.001252
8 0.001234
9 0.001220
10 0.001209
11 0.001200
12 0.001190
13 0.001180
14 0.001170
15 0.001161
16 0.001155
17 0.001151
18 0.001145
19 0.001140
20 0.001136
21 0.001130
22 0.001124
23 0.001120
24 0.001117
25 0.001113
26 0.001104
27 0.001097
28 0.001090
29 0.001078
30 0.001067
31 0.001059
32 0.001046
33 0.001034
34 0.001028
35 0.001017
36 0.001007
37 0.000996
38 0.000985
39 0.000973
40 0.000970
41 0.000966
42 0.000959
43 0.000954
44 0.000948
45 0.000941
46 0.000935
47 0.000929
48 0.000922
49 0.000915
50 0.000912
51 0.000912
52 0.000911
53 0.000904
54 0.000897
55 0.000889
56 0.000884
57 0.000882
58 0.000877
59 0.000870
60 0.000862
61 0.000855
62 0.000852
63 0.000845
64 0.000842
65 0.000839
66 0.000836
67 0.000833
68 0.000830
69 0.000827
70 0.000817
71 0.000810
72 0.000802
73 0.000798
74 0.000799
75 0.000798
76 0.000799
77 0.000795
78 0.000788
79 0.000778
80 0.000770
81 0.000765
82 0.000763
83 0.000762
84 0.000762
85 0.000765
86 0.000768
87 0.000771
88 0.000770
89 0.000768
90 0.000768
91 0.000768
92 0.000767
93 0.000765
94 0.000761
95 0.000756
96 0.000753
97 0.000749
98 0.000747
99 0.000748
100 0.000749
101 0.000749
102 0.000749
103 0.000747
104 0.000743
105 0.000740
106 0.000734
107 0.000727
108 0.000723
109 0.000720
110 0.000715
111 0.000711
112 0.000705
113 0.000700
114 0.000696
115 0.000694
116 0.000694
117 0.000691
118 0.000686
119 0.000685
120 0.000682
121 0.000678
122 0.000675
123 0.000676
124 0.000674
125 0.000675
126 0.000678
127 0.000685
128 0.000681
129 0.000673
130 0.000667
131 0.000657
132 0.000649
133 0.000641
134 0.000640
135 0.000633
136 0.000629
137 0.000624
138 0.000622
139 0.000620
140 0.000615
141 0.000608
142 0.000605
143 0.000605
144 0.000611
145 0.000612
146 0.000616
147 0.000618
148 0.000615
149 0.000613
150 0.000611
151 0.000613
152 0.000610
153 0.000605
154 0.000603
155 0.000602
156 0.000598
157 0.000595
158 0.000591
159 0.000587
160 0.000584
161 0.000583
162 0.000577
163 0.000569
164 0.000560
165 0.000548
166 0.000540
167 0.000536
168 0.000533
169 0.000533
170 0.000541
171 0.000542
172 0.000539
173 0.000538
174 0.000541
175 0.000541
176 0.000537
177 0.000532
178 0.000527
179 0.000524
180 0.000518
181 0.000517
182 0.000513
183 0.000509
184 0.000507
185 0.000505
186 0.000503
187 0.000500
188 0.000499
189 0.000499
190 0.000500
191 0.000502
192 0.000504
193 0.000500
194 0.000502
195 0.000506
196 0.000507
197 0.000503
198 0.000501
199 0.000497
200 0.000494
201 0.000493
202 0.000488
203 0.000489
204 0.000489
205 0.000486
206 0.000481
207 0.000478
208 0.000477
209 0.000473
210 0.000467
211 0.000463
212 0.000461
213 0.000463
214 0.000461
215 0.000461
216 0.000464
217 0.000467
218 0.000466
219 0.000465
220 0.000466
221 0.000469
222 0.000472
223 0.000475
224 0.000475
225 0.000472
226 0.000471
227 0.000466
228 0.000460
229 0.000452
230 0.000443
231 0.000435
232 0.000431
233 0.000425
234 0.000417
235 0.000415
236 0.000417
237 0.000420
238 0.000420
239 0.000417
240 0.000413
241 0.000415
242 0.000417
243 0.000421
244 0.000426
245 0.000428
246 0.000432
247 0.000438
248 0.000443
249 0.000444
250 0.000443
251 0.000442
252 0.000443
253 0.000444
254 0.000445
255 0.000446
256 0.000443
257 0.000445
258 0.000443
259 0.000440
260 0.000436
261 0.000437
262 0.000435
263 0.000433
264 0.000431
265 0.000429
266 0.000428
267 0.000429
268 0.000427
269 0.000423
270 0.000417
271 0.000415
272 0.000415
273 0.000418
274 0.000419
275 0.000421
276 0.000423
277 0.000421
278 0.000420
279 0.000419
280 0.000417
281 0.000421
282 0.000421
283 0.000421
284 0.000421
285 0.000421
286 0.000422
287 0.000421
288 0.000420
289 0.000420
290 0.000417
291 0.000416
292 0.000412
293 0.000412
294 0.000413
295 0.000413
296 0.000409
297 0.000403
298 0.000400
299 0.000399
300 0.000399
301 0.000401
302 0.000400
303 0.000397
304 0.000395
305 0.000395
306 0.000398
307 0.000398
308 0.000399
309 0.000405
310 0.000410
311 0.000414
312 0.000415
313 0.000416
314 0.000416
315 0.000414
316 0.000409
317 0.000405
318 0.000402
319 0.000400
320 0.000396
321 0.000394
322 0.000391
323 0.000389
324 0.000387
325 0.000387
326 0.000384
327 0.000378
328 0.000376
329 0.000376
330 0.000378
331 0.000380
332 0.000383
333 0.000389
334 0.000390
335 0.000393
336 0.000393
337 0.000393
338 0.000393
339 0.000389
340 0.000386
341 0.000385
342 0.000384
343 0.000384
344 0.000386
345 0.000390
346 0.000393
347 0.000398
348 0.000399
349 0.000402
350 0.000404
351 0.000408
352 0.000411
353 0.000411
354 0.000410
355 0.000407
356 0.000403
357 0.000400
358 0.000398
359 0.000394
360 0.000391
361 0.000387
362 0.000386
363 0.000384
364 0.000380
365 0.000379
366 0.000377
367 0.000377
368 0.000378
369 0.000378
370 0.000380
371 0.000381
372 0.000382
373 0.000382
374 0.000380
375 0.000380
376 0.000379
377 0.000378
378 0.000379
379 0.000381
380 0.000378
381 0.000373
382 0.000371
383 0.000370
384 0.000368
385 0.000361
386 0.000354
387 0.000352
388 0.000350
389 0.000345
390 0.000343
391 0.000342
392 0.000341
393 0.000340
394 0.000339
395 0.000340
396 0.000342
397 0.000344
398 0.000346
399 0.000350
400 0.000353
401 0.000354
402 0.000357
403 0.000358
404 0.000360
405 0.000362
406 0.000363
407 0.000364
408 0.000366
409 0.000367
410 0.000364
411 0.000362
412 0.000357
413 0.000352
414 0.000345
415 0.000339
416 0.000335
417 0.000330
418 0.000328
419 0.000330
420 0.000334
421 0.000335
422 0.000336
423 0.000331
424 0.000327
425 0.000325
426 0.000320
427 0.000320
428 0.000321
429 0.000318
430 0.000311
431 0.000307
432 0.000306
433 0.000309
434 0.000309
435 0.000308
436 0.000309
437 0.000309
438 0.000314
439 0.000317
440 0.000319
441 0.000318
442 0.000317
443 0.000314
444 0.000313
445 0.000314
446 0.000314
447 0.000314
448 0.000312
449 0.000312
450 0.000311
451 0.000307
452 0.000308
453 0.000310
454 0.000308
455 0.000306
456 0.000307
457 0.000308
458 0.000308
459 0.000308
460 0.000311
461 0.000314
462 0.000318
463 0.000322
464 0.000326
465 0.000329
466 0.000327
467 0.000329
468 0.000328
469 0.000329
470 0.000330
471 0.000330
472 0.000333
473 0.000334
474 0.000338
475 0.000340
476 0.000343
477 0.000344
478 0.000342
479 0.000338
480 0.000336
481 0.000335
482 0.000332
483 0.000332
484 0.000334
485 0.000335
486 0.000333
487 0.000328
488 0.000322
489 0.000315
490 0.000312
491 0.000305
492 0.000299
493 0.000297
494 0.000293
495 0.000294
496 0.000294
497 0.000294
498 0.000293
499 0.000291
500 0.000288
501 0.000283
502 0.000281
503 0.000281
504 0.000283
505 0.000285
506 0.000288
507 0.000291
508 0.000294
509 0.000299
510 0.000302
511 0.000303
512 0.000302
513 0.000299
514 0.000296
515 0.000291
516 0.000286
517 0.000279
518 0.000275
519 0.000271
520 0.000267
521 0.000266
522 0.000265
523 0.000262
524 0.000262
525 0.000259
526 0.000258
527 0.000259
528 0.000265
529 0.000268
530 0.000269
531 0.000271
532 0.000273
533 0.000272
534 0.000271
535 0.000268
536 0.000267
537 0.000264
538 0.000263
539 0.000261
540 0.000256
541 0.000251
542 0.000245
543 0.000243
544 0.000241
545 0.000235
546 0.000231
547 0.000228
548 0.000229
549 0.000230
550 0.000230
551 0.000229
552 0.000229
553 0.000229
554 0.000229
555 0.000230
556 0.000227
557 0.000223
558 0.000218
559 0.000215
560 0.000212
561 0.000211
562 0.000214
563 0.000216
564 0.000217
565 0.000218
566 0.000220
567 0.000220
568 0.000221
569 0.000221
570 0.000220
571 0.000216
572 0.000215
573 0.000214
574 0.000213
575 0.000211
576 0.000210
577 0.000208
578 0.000207
579 0.000208
580 0.000211
581 0.000209
582 0.000209
583 0.000209
584 0.000209
585 0.000206
586 0.000202
587 0.000198
588 0.000193
589 0.000190
590 0.000191
591 0.000190
592 0.000190
593 0.000187
594 0.000186
595 0.000190
596 0.000194
597 0.000196
598 0.000195
599 0.000194
600 0.000195
601 0.000198
602 0.000199
603 0.000200
604 0.000201
605 0.000199
606 0.000200
607 0.000200
608 0.000203
609 0.000202
610 0.000203
611 0.000202
612 0.000202
613 0.000201
614 0.000202
615 0.000203
616 0.000203
617 0.000203
618 0.000201
619 0.000201
620 0.000202
621 0.000201
622 0.000202
623 0.000206
624 0.000210
625 0.000212
626 0.000213
627 0.000213
628 0.000214
629 0.000214
630 0.000215
631 0.000219
632 0.000219
633 0.000218
634 0.000216
635 0.000216
636 0.000213
637 0.000213
638 0.000211
639 0.000207
640 0.000202
641 0.000200
642 0.000198
643 0.000195
644 0.000195
645 0.000195
646 0.000197
647 0.000199
648 0.000201
649 0.000198
650 0.000193
651 0.000188
652 0.000183
653 0.000179
654 0.000178
655 0.000179
656 0.000180
657 0.000181
658 0.000183
659 0.000185
660 0.000188
661 0.000187
662 0.000184
663 0.000182
664 0.000178
665 0.000178
666 0.000180
667 0.000179
668 0.000180
669 0.000179
670 0.000180
671 0.000182
672 0.000183
673 0.000181
674 0.000178
675 0.000177
676 0.000174
677 0.000172
678 0.000171
679 0.000168
680 0.000165
681 0.000161
682 0.000161
683 0.000160
684 0.000160
685 0.000158
686 0.000155
687 0.000150
688 0.000148
689 0.000145
690 0.000142
691 0.000140
692 0.000135
693 0.000133
694 0.000131
695 0.000130
696 0.000128
697 0.000125
698 0.000123
699 0.000123
700 0.000126
701 0.000129
702 0.000130
703 0.000130
704 0.000128
705 0.000126
706 0.000126
707 0.000127
708 0.000126
709 0.000124
710 0.000120
711 0.000116
712 0.000113
713 0.000112
714 0.000112
715 0.000111
716 0.000112
717 0.000112
718 0.000112
719 0.000114
720 0.000117
721 0.000118
722 0.000123
723 0.000125
724 0.000127
725 0.000128
726 0.000127
727 0.000125
728 0.000123
729 0.000124
730 0.000124
731 0.000125
732 0.000124
733 0.000125
734 0.000124
735 0.000125
736 0.000125
737 0.000123
738 0.000121
739 0.000118
740 0.000115
741 0.000112
742 0.000112
743 0.000110
744 0.000108
745 0.000105
746 0.000104
747 0.000104
748 0.000104
749 0.000103
750 0.000105
751 0.000107
752 0.000109
753 0.000112
754 0.000113
755 0.000112
756 0.000111
757 0.000113
758 0.000114
759 0.000116
760 0.000118
761 0.000119
762 0.000117
763 0.000115
764 0.000111
765 0.000107
766 0.000104
767 0.000100
768 0.000095
769 0.000093
770 0.000092
771 0.000097
772 0.000098
773 0.000100
774 0.000103
775 0.000107
776 0.000110
777 0.000112
778 0.000113
779 0.000113
780 0.000112
781 0.000110
782 0.000109
783 0.000108
784 0.000106
785 0.000105
786 0.000106
787 0.000105
788 0.000103
789 0.000101
790 0.000099
791 0.000097
792 0.000096
793 0.000094
794 0.000094
795 0.000092
796 0.000091
797 0.000090
798 0.000089
799 0.000089
800 0.000088
801 0.000085
802 0.000083
803 0.000080
804 0.000079
805 0.000081
806 0.000083
807 0.000086
808 0.000087
809 0.000089
