# i correlation
1 0.001473
2 0.001438
3 0.001407
4 0.001379
5 0.001357
6 0.001335
7 0.001313
8 0.001295
9 0.001278
10 0.001262
11 0.001248
12 0.001233
13 0.001215
14 0.001204
15 0.001193
16 0.001183
17 0.001170
18 0.001160
19 0.001153
20 0.001145
21 0.001136
22 0.001128
23 0.001116
24 0.001105
25 0.001098
26 0.001091
27 0.001086
28 0.001081
29 0.001073
30 0.001070
31 0.001063
32 0.001059
33 0.001052
34 0.001049
35 0.001053
36 0.001056
37 0.001059
38 0.001058
39 0.001055
40 0.001054
41 0.001053
42 0.001051
43 0.001050
44 0.001047
45 0.001043
46 0.001043
47 0.001037
48 0.001031
49 0.001026
50 0.001023
51 0.001021
52 0.001021
53 0.001020
54 0.001019
55 0.001019
56 0.001020
57 0.001019
58 0.001017
59 0.001016
60 0.001017
61 0.001009
62 0.001004
63 0.001000
64 0.000995
65 0.000992
66 0.000986
67 0.000981
68 0.000974
69 0.000970
70 0.000964
71 0.000963
72 0.000961
73 0.000961
74 0.000962
75 0.000967
76 0.000971
77 0.000968
78 0.000963
79 0.000960
80 0.000959
81 0.000963
82 0.000966
83 0.000966
84 0.000964
85 0.000962
86 0.000957
87 0.000951
88 0.000947
89 0.000941
90 0.000938
91 0.000935
92 0.000934
93 0.000928
94 0.000923
95 0.000920
96 0.000915
97 0.000908
98 0.000902
99 0.000896
100 0.000893
101 0.000889
102 0.000883
103 0.000878
104 0.000873
105 0.000863
106 0.000857
107 0.000849
108 0.000840
109 0.000832
110 0.000827
111 0.000824
112 0.000821
113 0.000817
114 0.000809
115 0.000805
116 0.000803
117 0.000797
118 0.000792
119 0.000787
120 0.000784
121 0.000784
122 0.000784
123 0.000783
124 0.000781
125 0.000781
126 0.000777
127 0.000780
128 0.000782
129 0.000781
130 0.000782
131 0.000784
132 0.000789
133 0.000793
134 0.000792
135 0.000788
136 0.000787
137 0.000785
138 0.000785
139 0.000784
140 0.000784
141 0.000792
142 0.000796
143 0.000800
144 0.000801
145 0.000798
146 0.000796
147 0.000792
148 0.000790
149 0.000788
150 0.000787
151 0.000787
152 0.000786
153 0.000785
154 0.000780
155 0.000779
156 0.000773
157 0.000770
158 0.000769
159 0.000766
160 0.000764
161 0.000760
162 0.000756
163 0.000756
164 0.000755
165 0.000749
166 0.000745
167 0.000738
168 0.000735
169 0.000730
170 0.000727
171 0.000727
172 0.000724
173 0.000722
174 0.000719
175 0.000717
176 0.000716
177 0.000714
178 0.000714
179 0.000711
180 0.000705
181 0.000698
182 0.000693
183 0.000685
184 0.000680
185 0.000678
186 0.000675
187 0.000675
188 0.000679
189 0.000678
190 0.000677
191 0.000677
192 0.000677
193 0.000674
194 0.000670
195 0.000665
196 0.000662
197 0.000656
198 0.000655
199 0.000653
200 0.000650
201 0.000651
202 0.000651
203 0.000655
204 0.000659
205 0.000663
206 0.000670
207 0.000676
208 0.000681
209 0.000686
210 0.000688
211 0.000689
212 0.000688
213 0.000684
214 0.000691
215 0.000691
216 0.000691
217 0.000689
218 0.000686
219 0.000685
220 0.000682
221 0.000677
222 0.000672
223 0.000669
224 0.000665
225 0.000666
226 0.000664
227 0.000661
228 0.000659
229 0.000655
230 0.000652
231 0.000650
232 0.000647
233 0.000646
234 0.000646
235 0.000642
236 0.000635
237 0.000632
238 0.000625
239 0.000621
240 0.000618
241 0.000612
242 0.000610
243 0.000606
244 0.000608
245 0.000607
246 0.000606
247 0.000607
248 0.000608
249 0.000610
250 0.000611
251 0.000612
252 0.000615
253 0.000619
254 0.000622
255 0.000626
256 0.000631
257 0.000635
258 0.000640
259 0.000641
260 0.000643
261 0.000642
262 0.000640
263 0.000640
264 0.000640
265 0.000639
266 0.000636
267 0.000634
268 0.000632
269 0.000631
270 0.000631
271 0.000630
272 0.000629
273 0.000624
274 0.000622
275 0.000618
276 0.000614
277 0.000606
278 0.000597
279 0.000588
280 0.000583
281 0.000576
282 0.000572
283 0.000573
284 0.000572
285 0.000571
286 0.000569
287 0.000566
288 0.000563
289 0.000558
290 0.000557
291 0.000556
292 0.000556
293 0.000555
294 0.000556
295 0.000557
296 0.000558
297 0.000558
298 0.000554
299 0.000551
300 0.000550
301 0.000546
302 0.000541
303 0.000538
304 0.000537
305 0.000536
306 0.000536
307 0.000535
308 0.000534
309 0.000537
310 0.000542
311 0.000545
312 0.000549
313 0.000547
314 0.000543
315 0.000543
316 0.000541
317 0.000540
318 0.000537
319 0.000532
320 0.000532
321 0.000531
322 0.000527
323 0.000526
324 0.000523
325 0.000520
326 0.000519
327 0.000513
328 0.000505
329 0.000498
330 0.000489
331 0.000484
332 0.000480
333 0.000476
334 0.000472
335 0.000470
336 0.000472
337 0.000473
338 0.000472
339 0.000469
340 0.000468
341 0.000468
342 0.000469
343 0.000468
344 0.000469
345 0.000465
346 0.000464
347 0.000468
348 0.000473
349 0.000475
350 0.000480
351 0.000483
352 0.000486
353 0.000490
354 0.000487
355 0.000489
356 0.000490
357 0.000489
358 0.000492
359 0.000494
360 0.000493
361 0.000492
362 0.000490
363 0.000487
364 0.000486
365 0.000484
366 0.000484
367 0.000487
368 0.000485
369 0.000486
370 0.000487
371 0.000486
372 0.000486
373 0.000484
374 0.000482
375 0.000481
376 0.000477
377 0.000472
378 0.000468
379 0.000464
380 0.000462
381 0.000461
382 0.000458
383 0.000456
384 0.000454
385 0.000454
386 0.000456
387 0.000455
388 0.000455
389 0.000452
390 0.000450
391 0.000448
392 0.000452
393 0.000454
394 0.000454
395 0.000455
396 0.000461
397 0.000467
398 0.000468
399 0.000469
400 0.000470
401 0.000470
402 0.000472
403 0.000473
404 0.000471
405 0.000468
406 0.000464
407 0.000463
408 0.000462
409 0.000459
410 0.000456
411 0.000454
412 0.000453
413 0.000455
414 0.000451
415 0.000449
416 0.000449
417 0.000449
418 0.000453
419 0.000456
420 0.000458
421 0.000461
422 0.000463
423 0.000464
424 0.000466
425 0.000465
426 0.000460
427 0.000451
428 0.000447
429 0.000443
430 0.000438
431 0.000430
432 0.000422
433 0.000416
434 0.000412
435 0.000408
436 0.000405
437 0.000401
438 0.000401
439 0.000399
440 0.000396
441 0.000390
442 0.000385
443 0.000382
444 0.000379
445 0.000377
446 0.000371
447 0.000365
448 0.000364
449 0.000363
450 0.000361
451 0.000361
452 0.000362
453 0.000364
454 0.000365
455 0.000365
456 0.000371
457 0.000371
458 0.000375
459 0.000382
460 0.000386
461 0.000392
462 0.000396
463 0.000398
464 0.000401
465 0.000403
466 0.000403
467 0.000402
468 0.000405
469 0.000406
470 0.000407
471 0.000406
472 0.000405
473 0.000402
474 0.000401
475 0.000401
476 0.000403
477 0.000401
478 0.000404
479 0.000404
480 0.000408
481 0.000411
482 0.000413
483 0.000414
484 0.000416
485 0.000415
486 0.000412
487 0.000411
488 0.000410
489 0.000410
490 0.000411
491 0.000410
492 0.000407
493 0.000401
494 0.000393
495 0.000384
496 0.000380
497 0.000377
498 0.000373
499 0.000374
500 0.000374
501 0.000373
502 0.000372
503 0.000369
504 0.000364
505 0.000361
506 0.000358
507 0.000354
508 0.000350
509 0.000344
510 0.000338
511 0.000337
512 0.000333
513 0.000332
514 0.000331
515 0.000332
516 0.000332
517 0.000329
518 0.000328
519 0.000328
520 0.000326
521 0.000323
522 0.000321
523 0.000315
524 0.000310
525 0.000307
526 0.000305
527 0.000304
528 0.000306
529 0.000306
530 0.000308
531 0.000306
532 0.000304
533 0.000300
534 0.000300
535 0.000301
536 0.000301
537 0.000302
538 0.000299
539 0.000294
540 0.000293
541 0.000295
542 0.000294
543 0.000294
544 0.000296
545 0.000301
546 0.000303
547 0.000304
548 0.000302
549 0.000300
550 0.000296
551 0.000293
552 0.000291
553 0.000288
554 0.000285
555 0.000283
556 0.000285
557 0.000287
558 0.000288
559 0.000286
560 0.000284
561 0.000283
562 0.000286
563 0.000290
564 0.000290
565 0.000294
566 0.000297
567 0.000300
568 0.000300
569 0.000299
570 0.000297
571 0.000293
572 0.000292
573 0.000292
574 0.000292
575 0.000293
576 0.000295
577 0.000294
578 0.000292
579 0.000287
580 0.000284
581 0.000284
582 0.000283
583 0.000282
584 0.000283
585 0.000283
586 0.000282
587 0.000283
588 0.000282
589 0.000278
590 0.000273
591 0.000267
592 0.000263
593 0.000258
594 0.000252
595 0.000248
596 0.000244
597 0.000242
598 0.000238
599 0.000235
600 0.000235
601 0.000235
602 0.000237
603 0.000239
604 0.000241
605 0.000240
606 0.000239
607 0.000238
608 0.000237
609 0.000238
610 0.000235
611 0.000237
612 0.000237
613 0.000236
614 0.000235
615 0.000233
616 0.000231
617 0.000230
618 0.000230
619 0.000229
620 0.000228
621 0.000228
622 0.000227
623 0.000230
624 0.000231
625 0.000231
626 0.000233
627 0.000235
628 0.000234
629 0.000236
630 0.000238
631 0.000239
632 0.000242
633 0.000245
634 0.000247
635 0.000247
636 0.000245
637 0.000242
638 0.000239
639 0.000237
640 0.000234
641 0.000228
642 0.000222
643 0.000219
644 0.000218
645 0.000215
646 0.000212
647 0.000211
648 0.000208
649 0.000203
650 0.000199
651 0.000195
652 0.000192
653 0.000188
654 0.000182
655 0.000176
656 0.000170
657 0.000167
658 0.000162
659 0.000160
660 0.000160
661 0.000157
662 0.000155
663 0.000151
664 0.000149
665 0.000145
666 0.000141
667 0.000139
668 0.000139
669 0.000137
670 0.000136
671 0.000135
672 0.000135
673 0.000135
674 0.000133
675 0.000133
676 0.000134
677 0.000132
678 0.000134
679 0.000138
680 0.000141
681 0.000142
682 0.000143
683 0.000143
684 0.000140
685 0.000139
686 0.000140
687 0.000140
688 0.000141
689 0.000143
690 0.000144
691 0.000145
692 0.000146
693 0.000146
694 0.000145
695 0.000143
696 0.000141
697 0.000141
698 0.000137
699 0.000134
700 0.000128
701 0.000122
702 0.000114
703 0.000110
704 0.000105
705 0.000098
706 0.000093
707 0.000090
708 0.000092
709 0.000094
710 0.000094
711 0.000092
712 0.000087
713 0.000085
714 0.000081
715 0.000079
716 0.000078
717 0.000078
718 0.000080
719 0.000081
720 0.000083
721 0.000084
722 0.000088
723 0.000090
724 0.000092
725 0.000093
726 0.000092
727 0.000092
728 0.000094
729 0.000096
730 0.000096
731 0.000096
732 0.000095
733 0.000096
734 0.000098
735 0.000098
736 0.000102
737 0.000101
738 0.000100
739 0.000100
740 0.000101
741 0.000099
742 0.000096
743 0.000093
744 0.000091
745 0.000092
746 0.000093
747 0.000092
748 0.000091
749 0.000087
750 0.000085
751 0.000084
752 0.000084
753 0.000084
754 0.000086
755 0.000090
756 0.000093
757 0.000095
758 0.000094
759 0.000093
760 0.000093
761 0.000091
762 0.000090
763 0.000090
764 0.000092
765 0.000089
766 0.000089
767 0.000088
768 0.000089
769 0.000087
770 0.000084
771 0.000082
772 0.000082
773 0.000082
774 0.000085
775 0.000088
776 0.000092
777 0.000096
778 0.000097
779 0.000097
780 0.000098
781 0.000098
782 0.000099
783 0.000099
784 0.000098
785 0.000096
786 0.000093
787 0.000090
788 0.000088
789 0.000085
790 0.000081
791 0.000079
792 0.000076
793 0.000075
794 0.000072
795 0.000068
796 0.000065
797 0.000059
798 0.000054
799 0.000050
800 0.000045
801 0.000041
802 0.000035
803 0.000034
804 0.000032
805 0.000029
806 0.000025
807 0.000021
808 0.000016
809 0.000013
