# i correlation
1 0.001587
2 0.001548
3 0.001513
4 0.001483
5 0.001462
6 0.001442
7 0.001425
8 0.001414
9 0.001406
10 0.001402
11 0.001396
12 0.001393
13 0.001384
14 0.001378
15 0.001378
16 0.001374
17 0.001368
18 0.001358
19 0.001349
20 0.001338
21 0.001330
22 0.001317
23 0.001305
24 0.001297
25 0.001289
26 0.001283
27 0.001281
28 0.001275
29 0.001267
30 0.001259
31 0.001254
32 0.001245
33 0.001235
34 0.001227
35 0.001226
36 0.001224
37 0.001221
38 0.001222
39 0.001223
40 0.001222
41 0.001218
42 0.001208
43 0.001199
44 0.001189
45 0.001176
46 0.001167
47 0.001158
48 0.001153
49 0.001144
50 0.001142
51 0.001143
52 0.001145
53 0.001146
54 0.001146
55 0.001146
56 0.001144
57 0.001147
58 0.001146
59 0.001142
60 0.001136
61 0.001127
62 0.001123
63 0.001119
64 0.001114
65 0.001109
66 0.001104
67 0.001100
68 0.001098
69 0.001099
70 0.001096
71 0.001092
72 0.001088
73 0.001085
74 0.001079
75 0.001074
76 0.001065
77 0.001060
78 0.001055
79 0.001053
80 0.001050
81 0.001049
82 0.001043
83 0.001036
84 0.001033
85 0.001032
86 0.001027
87 0.001019
88 0.001009
89 0.001001
90 0.000997
91 0.000994
92 0.000993
93 0.000992
94 0.000991
95 0.000994
96 0.000997
97 0.001001
98 0.001006
99 0.001010
100 0.001014
101 0.001016
102 0.001010
103 0.001004
104 0.000997
105 0.000986
106 0.000980
107 0.000976
108 0.000976
109 0.000980
110 0.000985
111 0.000991
112 0.000996
113 0.001000
114 0.001005
115 0.001003
116 0.001004
117 0.001003
118 0.000996
119 0.000993
120 0.000985
121 0.000975
122 0.000967
123 0.000959
124 0.000954
125 0.000958
126 0.000957
127 0.000954
128 0.000956
129 0.000952
130 0.000948
131 0.000945
132 0.000942
133 0.000938
134 0.000935
135 0.000937
136 0.000940
137 0.000943
138 0.000948
139 0.000948
140 0.000949
141 0.000947
142 0.000941
143 0.000935
144 0.000930
145 0.000925
146 0.000920
147 0.000914
148 0.000905
149 0.000897
150 0.000892
151 0.000889
152 0.000890
153 0.000888
154 0.000888
155 0.000890
156 0.000885
157 0.000880
158 0.000871
159 0.000860
160 0.000850
161 0.000843
162 0.000835
163 0.000832
164 0.000824
165 0.000821
166 0.000817
167 0.000816
168 0.000820
169 0.000820
170 0.000820
171 0.000824
172 0.000826
173 0.000828
174 0.000826
175 0.000822
176 0.000818
177 0.000814
178 0.000812
179 0.000812
180 0.000810
181 0.000806
182 0.000802
183 0.000802
184 0.000795
185 0.000792
186 0.000785
187 0.000776
188 0.000770
189 0.000766
190 0.000764
191 0.000764
192 0.000762
193 0.000759
194 0.000757
195 0.000758
196 0.000756
197 0.000753
198 0.000752
199 0.000752
200 0.000751
201 0.000750
202 0.000749
203 0.000746
204 0.000740
205 0.000735
206 0.000733
207 0.000731
208 0.000729
209 0.000735
210 0.000739
211 0.000743
212 0.000743
213 0.000739
214 0.000737
215 0.000734
216 0.000730
217 0.000729
218 0.000730
219 0.000730
220 0.000733
221 0.000731
222 0.000728
223 0.000726
224 0.000725
225 0.000721
226 0.000720
227 0.000717
228 0.000711
229 0.000704
230 0.000695
231 0.000690
232 0.000685
233 0.000679
234 0.000674
235 0.000668
236 0.000672
237 0.000678
238 0.000682
239 0.000685
240 0.000685
241 0.000686
242 0.000685
243 0.000683
244 0.000681
245 0.000683
246 0.000680
247 0.000677
248 0.000676
249 0.000677
250 0.000678
251 0.000674
252 0.000670
253 0.000671
254 0.000669
255 0.000669
256 0.000665
257 0.000661
258 0.000661
259 0.000660
260 0.000659
261 0.000659
262 0.000659
263 0.000658
264 0.000656
265 0.000655
266 0.000655
267 0.000652
268 0.000650
269 0.000649
270 0.000642
271 0.000641
272 0.000644
273 0.000642
274 0.000641
275 0.000639
276 0.000636
277 0.000635
278 0.000632
279 0.000628
280 0.000629
281 0.000634
282 0.000636
283 0.000637
284 0.000639
285 0.000637
286 0.000635
287 0.000635
288 0.000636
289 0.000635
290 0.000635
291 0.000637
292 0.000638
293 0.000640
294 0.000638
295 0.000636
296 0.000638
297 0.000638
298 0.000638
299 0.000637
300 0.000640
301 0.000643
302 0.000644
303 0.000643
304 0.000642
305 0.000642
306 0.000637
307 0.000634
308 0.000632
309 0.000633
310 0.000634
311 0.000635
312 0.000639
313 0.000643
314 0.000640
315 0.000642
316 0.000642
317 0.000642
318 0.000644
319 0.000645
320 0.000645
321 0.000643
322 0.000642
323 0.000645
324 0.000647
325 0.000644
326 0.000642
327 0.000636
328 0.000634
329 0.000630
330 0.000628
331 0.000626
332 0.000624
333 0.000618
334 0.000614
335 0.000615
336 0.000617
337 0.000616
338 0.000618
339 0.000617
340 0.000619
341 0.000618
342 0.000610
343 0.000602
344 0.000597
345 0.000595
346 0.000594
347 0.000590
348 0.000585
349 0.000577
350 0.000571
351 0.000567
352 0.000561
353 0.000559
354 0.000558
355 0.000552
356 0.000552
357 0.000549
358 0.000546
359 0.000544
360 0.000542
361 0.000540
362 0.000542
363 0.000541
364 0.000541
365 0.000534
366 0.000532
367 0.000528
368 0.000523
369 0.000515
370 0.000504
371 0.000495
372 0.000489
373 0.000488
374 0.000485
375 0.000486
376 0.000487
377 0.000487
378 0.000487
379 0.000485
380 0.000481
381 0.000479
382 0.000477
383 0.000480
384 0.000479
385 0.000478
386 0.000476
387 0.000474
388 0.000477
389 0.000476
390 0.000473
391 0.000473
392 0.000472
393 0.000475
394 0.000477
395 0.000477
396 0.000473
397 0.000473
398 0.000473
399 0.000474
400 0.000478
401 0.000480
402 0.000481
403 0.000482
404 0.000483
405 0.000484
406 0.000476
407 0.000467
408 0.000460
409 0.000456
410 0.000453
411 0.000446
412 0.000442
413 0.000440
414 0.000438
415 0.000441
416 0.000447
417 0.000453
418 0.000459
419 0.000465
420 0.000471
421 0.000475
422 0.000474
423 0.000470
424 0.000468
425 0.000459
426 0.000455
427 0.000452
428 0.000448
429 0.000448
430 0.000449
431 0.000450
432 0.000452
433 0.000454
434 0.000455
435 0.000455
436 0.000456
437 0.000458
438 0.000459
439 0.000462
440 0.000467
441 0.000472
442 0.000471
443 0.000471
444 0.000469
445 0.000468
446 0.000466
447 0.000464
448 0.000464
449 0.000463
450 0.000459
451 0.000455
452 0.000452
453 0.000448
454 0.000445
455 0.000445
456 0.000449
457 0.000455
458 0.000460
459 0.000460
460 0.000463
461 0.000463
462 0.000460
463 0.000456
464 0.000451
465 0.000446
466 0.000440
467 0.000434
468 0.000429
469 0.000424
470 0.000422
471 0.000417
472 0.000415
473 0.000414
474 0.000411
475 0.000407
476 0.000410
477 0.000410
478 0.000412
479 0.000413
480 0.000409
481 0.000407
482 0.000403
483 0.000400
484 0.000395
485 0.000389
486 0.000385
487 0.000383
488 0.000380
489 0.000378
490 0.000375
491 0.000373
492 0.000371
493 0.000369
494 0.000366
495 0.000363
496 0.000357
497 0.000351
498 0.000347
499 0.000344
500 0.000343
501 0.000344
502 0.000343
503 0.000343
504 0.000341
505 0.000338
506 0.000332
507 0.000329
508 0.000327
509 0.000325
510 0.000321
511 0.000321
512 0.000317
513 0.000316
514 0.000320
515 0.000321
516 0.000321
517 0.000321
518 0.000322
519 0.000325
520 0.000326
521 0.000327
522 0.000325
523 0.000321
524 0.000314
525 0.000308
526 0.000301
527 0.000295
528 0.000290
529 0.000289
530 0.000289
531 0.000291
532 0.000291
533 0.000292
534 0.000296
535 0.000298
536 0.000298
537 0.000297
538 0.000293
539 0.000289
540 0.000286
541 0.000288
542 0.000289
543 0.000288
544 0.000288
545 0.000286
546 0.000286
547 0.000287
548 0.000283
549 0.000283
550 0.000281
551 0.000277
552 0.000274
553 0.000271
554 0.000267
555 0.000265
556 0.000266
557 0.000268
558 0.000274
559 0.000277
560 0.000278
561 0.000277
562 0.000279
563 0.000277
564 0.000273
565 0.000270
566 0.000264
567 0.000257
568 0.000253
569 0.000250
570 0.000248
571 0.000245
572 0.000246
573 0.000251
574 0.000258
575 0.000259
576 0.000259
577 0.000259
578 0.000259
579 0.000258
580 0.000254
581 0.000248
582 0.000244
583 0.000238
584 0.000234
585 0.000233
586 0.000232
587 0.000231
588 0.000231
589 0.000231
590 0.000233
591 0.000232
592 0.000231
593 0.000228
594 0.000227
595 0.000226
596 0.000226
597 0.000226
598 0.000224
599 0.000222
600 0.000221
601 0.000221
602 0.000217
603 0.000214
604 0.000216
605 0.000213
606 0.000209
607 0.000204
608 0.000198
609 0.000194
610 0.000190
611 0.000190
612 0.000191
613 0.000195
614 0.000198
615 0.000201
616 0.000203
617 0.000205
618 0.000204
619 0.000205
620 0.000206
621 0.000208
622 0.000211
623 0.000210
624 0.000208
625 0.000208
626 0.000207
627 0.000206
628 0.000207
629 0.000209
630 0.000209
631 0.000213
632 0.000218
633 0.000224
634 0.000228
635 0.000231
636 0.000232
637 0.000230
638 0.000227
639 0.000224
640 0.000223
641 0.000223
642 0.000225
643 0.000227
644 0.000230
645 0.000232
646 0.000233
647 0.000232
648 0.000235
649 0.000236
650 0.000235
651 0.000234
652 0.000233
653 0.000232
654 0.000231
655 0.000231
656 0.000231
657 0.000230
658 0.000231
659 0.000233
660 0.000236
661 0.000240
662 0.000241
663 0.000241
664 0.000240
665 0.000237
666 0.000237
667 0.000234
668 0.000228
669 0.000226
670 0.000223
671 0.000220
672 0.000218
673 0.000215
674 0.000215
675 0.000214
676 0.000216
677 0.000216
678 0.000214
679 0.000215
680 0.000211
681 0.000210
682 0.000210
683 0.000207
684 0.000207
685 0.000207
686 0.000210
687 0.000210
688 0.000210
689 0.000211
690 0.000212
691 0.000211
692 0.000211
693 0.000212
694 0.000213
695 0.000210
696 0.000207
697 0.000203
698 0.000200
699 0.000197
700 0.000199
701 0.000203
702 0.000208
703 0.000210
704 0.000210
705 0.000208
706 0.000209
707 0.000208
708 0.000203
709 0.000200
710 0.000199
711 0.000196
712 0.000194
713 0.000191
714 0.000189
715 0.000187
716 0.000183
717 0.000182
718 0.000180
719 0.000179
720 0.000177
721 0.000176
722 0.000173
723 0.000168
724 0.000161
725 0.000156
726 0.000152
727 0.000150
728 0.000147
729 0.000149
730 0.000149
731 0.000149
732 0.000153
733 0.000155
734 0.000157
735 0.000158
736 0.000159
737 0.000158
738 0.000155
739 0.000153
740 0.000150
741 0.000151
742 0.000153
743 0.000151
744 0.000151
745 0.000152
746 0.000152
747 0.000150
748 0.000148
749 0.000144
750 0.000144
751 0.000144
752 0.000143
753 0.000142
754 0.000139
755 0.000135
756 0.000133
757 0.000131
758 0.000130
759 0.000131
760 0.000135
761 0.000138
762 0.000141
763 0.000142
764 0.000141
765 0.000137
766 0.000132
767 0.000130
768 0.000128
769 0.000127
770 0.000125
771 0.000126
772 0.000124
773 0.000125
774 0.000124
775 0.000123
776 0.000124
777 0.000125
778 0.000124
779 0.000124
780 0.000125
781 0.000126
782 0.000126
783 0.000128
784 0.000129
785 0.000130
786 0.000132
787 0.000132
788 0.000132
789 0.000132
790 0.000129
791 0.000127
792 0.000124
793 0.000122
794 0.000122
795 0.000123
796 0.000125
797 0.000126
798 0.000128
799 0.000129
800 0.000128
801 0.000128
802 0.000129
803 0.000132
804 0.000134
805 0.000134
806 0.000132
807 0.000133
808 0.000131
809 0.000126
