# i correlation
1 0.001733
2 0.001691
3 0.001650
4 0.001616
5 0.001585
6 0.001560
7 0.001537
8 0.001520
9 0.001501
10 0.001480
11 0.001460
12 0.001438
13 0.001421
14 0.001404
15 0.001391
16 0.001382
17 0.001371
18 0.001360
19 0.001349
20 0.001334
21 0.001320
22 0.001309
23 0.001304
24 0.001297
25 0.001290
26 0.001285
27 0.001286
28 0.001287
29 0.001289
30 0.001290
31 0.001290
32 0.001290
33 0.001289
34 0.001284
35 0.001278
36 0.001267
37 0.001257
38 0.001247
39 0.001240
40 0.001234
41 0.001222
42 0.001211
43 0.001202
44 0.001189
45 0.001178
46 0.001165
47 0.001154
48 0.001142
49 0.001130
50 0.001120
51 0.001116
52 0.001110
53 0.001105
54 0.001100
55 0.001098
56 0.001101
57 0.001100
58 0.001101
59 0.001103
60 0.001101
61 0.001099
62 0.001094
63 0.001084
64 0.001077
65 0.001069
66 0.001060
67 0.001053
68 0.001046
69 0.001042
70 0.001038
71 0.001033
72 0.001028
73 0.001029
74 0.001030
75 0.001036
76 0.001039
77 0.001039
78 0.001037
79 0.001033
80 0.001031
81 0.001022
82 0.001015
83 0.001009
84 0.001008
85 0.001007
86 0.001003
87 0.000999
88 0.000992
89 0.000986
90 0.000979
91 0.000973
92 0.000969
93 0.000970
94 0.000973
95 0.000974
96 0.000971
97 0.000969
98 0.000963
99 0.000958
100 0.000955
101 0.000954
102 0.000954
103 0.000957
104 0.000959
105 0.000962
106 0.000963
107 0.000961
108 0.000956
109 0.000950
110 0.000940
111 0.000930
112 0.000926
113 0.000926
114 0.000924
115 0.000924
116 0.000922
117 0.000922
118 0.000922
119 0.000916
120 0.000909
121 0.000904
122 0.000893
123 0.000883
124 0.000872
125 0.000857
126 0.000845
127 0.000835
128 0.000824
129 0.000813
130 0.000805
131 0.000804
132 0.000810
133 0.000818
134 0.000829
135 0.000839
136 0.000853
137 0.000858
138 0.000860
139 0.000857
140 0.000853
141 0.000850
142 0.000848
143 0.000846
144 0.000848
145 0.000850
146 0.000851
147 0.000848
148 0.000844
149 0.000838
150 0.000830
151 0.000827
152 0.000823
153 0.000819
154 0.000817
155 0.000818
156 0.000813
157 0.000802
158 0.000789
159 0.000775
160 0.000762
161 0.000751
162 0.000746
163 0.000746
164 0.000746
165 0.000747
166 0.000746
167 0.000746
168 0.000740
169 0.000735
170 0.000728
171 0.000731
172 0.000734
173 0.000733
174 0.000733
175 0.000730
176 0.000725
177 0.000721
178 0.000721
179 0.000725
180 0.000726
181 0.000727
182 0.000730
183 0.000730
184 0.000728
185 0.000727
186 0.000721
187 0.000716
188 0.000709
189 0.000704
190 0.000703
191 0.000701
192 0.000696
193 0.000691
194 0.000687
195 0.000683
196 0.000678
197 0.000676
198 0.000680
199 0.000682
200 0.000681
201 0.000679
202 0.000675
203 0.000668
204 0.000663
205 0.000655
206 0.000652
207 0.000652
208 0.000651
209 0.000647
210 0.000645
211 0.000645
212 0.000646
213 0.000648
214 0.000650
215 0.000653
216 0.000653
217 0.000651
218 0.000654
219 0.000652
220 0.000646
221 0.000641
222 0.000639
223 0.000637
224 0.000633
225 0.000627
226 0.000620
227 0.000615
228 0.000607
229 0.000601
230 0.000597
231 0.000595
232 0.000591
233 0.000587
234 0.000581
235 0.000576
236 0.000571
237 0.000565
238 0.000564
239 0.000564
240 0.000564
241 0.000567
242 0.000569
243 0.000570
244 0.000565
245 0.000558
246 0.000555
247 0.000556
248 0.000559
249 0.000565
250 0.000571
251 0.000577
252 0.000585
253 0.000592
254 0.000598
255 0.000603
256 0.000605
257 0.000609
258 0.000616
259 0.000620
260 0.000624
261 0.000624
262 0.000620
263 0.000617
264 0.000612
265 0.000606
266 0.000600
267 0.000596
268 0.000591
269 0.000590
270 0.000589
271 0.000588
272 0.000587
273 0.000588
274 0.000594
275 0.000591
276 0.000586
277 0.000580
278 0.000575
279 0.000571
280 0.000571
281 0.000568
282 0.000569
283 0.000568
284 0.000571
285 0.000571
286 0.000572
287 0.000573
288 0.000577
289 0.000578
290 0.000581
291 0.000581
292 0.000586
293 0.000588
294 0.000591
295 0.000592
296 0.000588
297 0.000583
298 0.000579
299 0.000574
300 0.000573
301 0.000570
302 0.000564
303 0.000564
304 0.000558
305 0.000552
306 0.000541
307 0.000539
308 0.000539
309 0.000536
310 0.000532
311 0.000528
312 0.000525
313 0.000522
314 0.000519
315 0.000511
316 0.000508
317 0.000504
318 0.000505
319 0.000509
320 0.000513
321 0.000512
322 0.000512
323 0.000509
324 0.000503
325 0.000499
326 0.000498
327 0.000501
328 0.000503
329 0.000502
330 0.000503
331 0.000502
332 0.000501
333 0.000500
334 0.000493
335 0.000491
336 0.000491
337 0.000491
338 0.000489
339 0.000486
340 0.000480
341 0.000476
342 0.000472
343 0.000472
344 0.000469
345 0.000467
346 0.000466
347 0.000464
348 0.000463
349 0.000463
350 0.000464
351 0.000468
352 0.000468
353 0.000471
354 0.000478
355 0.000483
356 0.000489
357 0.000489
358 0.000489
359 0.000491
360 0.000493
361 0.000496
362 0.000500
363 0.000503
364 0.000505
365 0.000506
366 0.000505
367 0.000506
368 0.000505
369 0.000506
370 0.000509
371 0.000513
372 0.000513
373 0.000515
374 0.000516
375 0.000517
376 0.000515
377 0.000510
378 0.000507
379 0.000502
380 0.000494
381 0.000485
382 0.000477
383 0.000467
384 0.000458
385 0.000451
386 0.000443
387 0.000438
388 0.000430
389 0.000428
390 0.000427
391 0.000427
392 0.000425
393 0.000423
394 0.000421
395 0.000419
396 0.000419
397 0.000420
398 0.000424
399 0.000427
400 0.000427
401 0.000429
402 0.000430
403 0.000431
404 0.000431
405 0.000431
406 0.000437
407 0.000442
408 0.000446
409 0.000447
410 0.000447
411 0.000442
412 0.000435
413 0.000429
414 0.000426
415 0.000422
416 0.000418
417 0.000412
418 0.000403
419 0.000389
420 0.000376
421 0.000364
422 0.000352
423 0.000337
424 0.000324
425 0.000315
426 0.000314
427 0.000313
428 0.000310
429 0.000311
430 0.000312
431 0.000317
432 0.000319
433 0.000321
434 0.000323
435 0.000324
436 0.000325
437 0.000328
438 0.000331
439 0.000335
440 0.000341
441 0.000347
442 0.000347
443 0.000349
444 0.000348
445 0.000347
446 0.000348
447 0.000349
448 0.000351
449 0.000355
450 0.000357
451 0.000358
452 0.000354
453 0.000349
454 0.000346
455 0.000344
456 0.000345
457 0.000346
458 0.000349
459 0.000351
460 0.000353
461 0.000351
462 0.000350
463 0.000348
464 0.000346
465 0.000349
466 0.000353
467 0.000357
468 0.000362
469 0.000366
470 0.000366
471 0.000369
472 0.000370
473 0.000372
474 0.000376
475 0.000380
476 0.000384
477 0.000388
478 0.000388
479 0.000387
480 0.000382
481 0.000377
482 0.000373
483 0.000370
484 0.000366
485 0.000362
486 0.000359
487 0.000359
488 0.000360
489 0.000359
490 0.000360
491 0.000365
492 0.000370
493 0.000372
494 0.000376
495 0.000380
496 0.000385
497 0.000387
498 0.000389
499 0.000393
500 0.000393
501 0.000395
502 0.000396
503 0.000394
504 0.000391
505 0.000391
506 0.000390
507 0.000391
508 0.000393
509 0.000397
510 0.000402
511 0.000412
512 0.000416
513 0.000418
514 0.000421
515 0.000423
516 0.000425
517 0.000424
518 0.000422
519 0.000419
520 0.000417
521 0.000415
522 0.000414
523 0.000415
524 0.000416
525 0.000416
526 0.000417
527 0.000420
528 0.000421
529 0.000420
530 0.000419
531 0.000417
532 0.000414
533 0.000411
534 0.000412
535 0.000414
536 0.000415
537 0.000413
538 0.000412
539 0.000411
540 0.000408
541 0.000405
542 0.000405
543 0.000408
544 0.000412
545 0.000416
546 0.000417
547 0.000417
548 0.000419
549 0.000419
550 0.000422
551 0.000424
552 0.000428
553 0.000430
554 0.000434
555 0.000436
556 0.000438
557 0.000436
558 0.000431
559 0.000423
560 0.000413
561 0.000408
562 0.000405
563 0.000403
564 0.000401
565 0.000398
566 0.000394
567 0.000390
568 0.000385
569 0.000382
570 0.000380
571 0.000380
572 0.000381
573 0.000383
574 0.000385
575 0.000387
576 0.000386
577 0.000387
578 0.000385
579 0.000382
580 0.000378
581 0.000374
582 0.000376
583 0.000378
584 0.000381
585 0.000385
586 0.000388
587 0.000389
588 0.000385
589 0.000382
590 0.000378
591 0.000372
592 0.000367
593 0.000362
594 0.000357
595 0.000353
596 0.000347
597 0.000341
598 0.000334
599 0.000327
600 0.000320
601 0.000316
602 0.000312
603 0.000308
604 0.000304
605 0.000302
606 0.000300
607 0.000298
608 0.000298
609 0.000296
610 0.000293
611 0.000290
612 0.000292
613 0.000294
614 0.000300
615 0.000308
616 0.000314
617 0.000319
618 0.000321
619 0.000321
620 0.000321
621 0.000320
622 0.000322
623 0.000323
624 0.000323
625 0.000323
626 0.000323
627 0.000323
628 0.000326
629 0.000330
630 0.000335
631 0.000340
632 0.000345
633 0.000349
634 0.000350
635 0.000351
636 0.000349
637 0.000346
638 0.000345
639 0.000344
640 0.000344
641 0.000344
642 0.000342
643 0.000341
644 0.000341
645 0.000343
646 0.000345
647 0.000349
648 0.000352
649 0.000358
650 0.000364
651 0.000368
652 0.000369
653 0.000367
654 0.000365
655 0.000361
656 0.000359
657 0.000359
658 0.000360
659 0.000365
660 0.000368
661 0.000369
662 0.000370
663 0.000371
664 0.000371
665 0.000370
666 0.000368
667 0.000365
668 0.000360
669 0.000357
670 0.000355
671 0.000352
672 0.000348
673 0.000342
674 0.000338
675 0.000334
676 0.000330
677 0.000325
678 0.000321
679 0.000316
680 0.000313
681 0.000312
682 0.000310
683 0.000307
684 0.000302
685 0.000294
686 0.000286
687 0.000277
688 0.000269
689 0.000266
690 0.000266
691 0.000267
692 0.000269
693 0.000269
694 0.000267
695 0.000267
696 0.000265
697 0.000263
698 0.000263
699 0.000263
700 0.000264
701 0.000267
702 0.000267
703 0.000264
704 0.000261
705 0.000260
706 0.000261
707 0.000262
708 0.000265
709 0.000270
710 0.000274
711 0.000275
712 0.000275
713 0.000274
714 0.000275
715 0.000273
716 0.000271
717 0.000269
718 0.000268
719 0.000265
720 0.000262
721 0.000261
722 0.000261
723 0.000261
724 0.000260
725 0.000257
726 0.000254
727 0.000248
728 0.000244
729 0.000243
730 0.000242
731 0.000240
732 0.000237
733 0.000234
734 0.000232
735 0.000230
736 0.000229
737 0.000228
738 0.000226
739 0.000226
740 0.000225
741 0.000225
742 0.000225
743 0.000221
744 0.000216
745 0.000212
746 0.000209
747 0.000205
748 0.000201
749 0.000197
750 0.000196
751 0.000195
752 0.000195
753 0.000194
754 0.000193
755 0.000191
756 0.000188
757 0.000186
758 0.000184
759 0.000182
760 0.000178
761 0.000175
762 0.000171
763 0.000169
764 0.000168
765 0.000168
766 0.000169
767 0.000167
768 0.000166
769 0.000167
770 0.000169
771 0.000170
772 0.000169
773 0.000166
774 0.000164
775 0.000161
776 0.000162
777 0.000162
778 0.000161
779 0.000158
780 0.000156
781 0.000153
782 0.000151
783 0.000148
784 0.000145
785 0.000144
786 0.000142
787 0.000142
788 0.000142
789 0.000138
790 0.000135
791 0.000129
792 0.000123
793 0.000119
794 0.000116
795 0.000115
796 0.000114
797 0.000113
798 0.000114
799 0.000115
800 0.000114
801 0.000116
802 0.000114
803 0.000113
804 0.000114
805 0.000116
806 0.000117
807 0.000116
808 0.000116
809 0.000116
