# i correlation
1 0.001690
2 0.001645
3 0.001611
4 0.001580
5 0.001554
6 0.001530
7 0.001509
8 0.001491
9 0.001476
10 0.001462
11 0.001448
12 0.001435
13 0.001427
14 0.001421
15 0.001413
16 0.001404
17 0.001397
18 0.001386
19 0.001376
20 0.001368
21 0.001365
22 0.001360
23 0.001356
24 0.001348
25 0.001339
26 0.001329
27 0.001323
28 0.001312
29 0.001300
30 0.001290
31 0.001282
32 0.001274
33 0.001268
34 0.001258
35 0.001246
36 0.001239
37 0.001228
38 0.001218
39 0.001207
40 0.001194
41 0.001184
42 0.001179
43 0.001174
44 0.001174
45 0.001174
46 0.001173
47 0.001176
48 0.001179
49 0.001179
50 0.001175
51 0.001172
52 0.001167
53 0.001161
54 0.001152
55 0.001143
56 0.001133
57 0.001123
58 0.001114
59 0.001107
60 0.001104
61 0.001100
62 0.001097
63 0.001095
64 0.001091
65 0.001087
66 0.001085
67 0.001083
68 0.001077
69 0.001069
70 0.001062
71 0.001057
72 0.001056
73 0.001056
74 0.001048
75 0.001041
76 0.001033
77 0.001028
78 0.001021
79 0.001015
80 0.001011
81 0.001011
82 0.001003
83 0.000997
84 0.000994
85 0.000994
86 0.000990
87 0.000989
88 0.000987
89 0.000983
90 0.000979
91 0.000976
92 0.000972
93 0.000967
94 0.000964
95 0.000961
96 0.000962
97 0.000961
98 0.000964
99 0.000962
100 0.000960
101 0.000953
102 0.000944
103 0.000931
104 0.000919
105 0.000909
106 0.000901
107 0.000888
108 0.000878
109 0.000873
110 0.000868
111 0.000860
112 0.000859
113 0.000855
114 0.000853
115 0.000852
116 0.000849
117 0.000845
118 0.000840
119 0.000841
120 0.000842
121 0.000840
122 0.000834
123 0.000832
124 0.000829
125 0.000827
126 0.000820
127 0.000814
128 0.000808
129 0.000806
130 0.000803
131 0.000794
132 0.000786
133 0.000782
134 0.000777
135 0.000774
136 0.000772
137 0.000769
138 0.000763
139 0.000756
140 0.000753
141 0.000748
142 0.000745
143 0.000739
144 0.000734
145 0.000732
146 0.000737
147 0.000735
148 0.000735
149 0.000730
150 0.000726
151 0.000724
152 0.000718
153 0.000714
154 0.000711
155 0.000701
156 0.000696
157 0.000693
158 0.000692
159 0.000691
160 0.000688
161 0.000689
162 0.000690
163 0.000690
164 0.000689
165 0.000690
166 0.000692
167 0.000694
168 0.000697
169 0.000698
170 0.000700
171 0.000701
172 0.000698
173 0.000696
174 0.000695
175 0.000689
176 0.000683
177 0.000680
178 0.000676
179 0.000675
180 0.000674
181 0.000672
182 0.000670
183 0.000669
184 0.000666
185 0.000663
186 0.000661
187 0.000658
188 0.000651
189 0.000646
190 0.000646
191 0.000644
192 0.000641
193 0.000640
194 0.000637
195 0.000634
196 0.000631
197 0.000631
198 0.000629
199 0.000628
200 0.000631
201 0.000633
202 0.000635
203 0.000634
204 0.000631
205 0.000630
206 0.000631
207 0.000627
208 0.000626
209 0.000623
210 0.000620
211 0.000618
212 0.000613
213 0.000611
214 0.000609
215 0.000607
216 0.000606
217 0.000606
218 0.000603
219 0.000599
220 0.000598
221 0.000596
222 0.000593
223 0.000590
224 0.000588
225 0.000590
226 0.000591
227 0.000593
228 0.000593
229 0.000596
230 0.000599
231 0.000597
232 0.000596
233 0.000593
234 0.000596
235 0.000596
236 0.000597
237 0.000595
238 0.000592
239 0.000590
240 0.000584
241 0.000578
242 0.000573
243 0.000567
244 0.000562
245 0.000556
246 0.000553
247 0.000552
248 0.000548
249 0.000543
250 0.000539
251 0.000534
252 0.000529
253 0.000526
254 0.000524
255 0.000521
256 0.000519
257 0.000518
258 0.000519
259 0.000522
260 0.000526
261 0.000527
262 0.000527
263 0.000528
264 0.000529
265 0.000526
266 0.000526
267 0.000523
268 0.000519
269 0.000512
270 0.000507
271 0.000503
272 0.000501
273 0.000497
274 0.000499
275 0.000499
276 0.000498
277 0.000496
278 0.000493
279 0.000485
280 0.000483
281 0.000483
282 0.000486
283 0.000489
284 0.000491
285 0.000489
286 0.000489
287 0.000492
288 0.000493
289 0.000495
290 0.000493
291 0.000491
292 0.000491
293 0.000493
294 0.000495
295 0.000496
296 0.000497
297 0.000499
298 0.000503
299 0.000506
300 0.000507
301 0.000506
302 0.000508
303 0.000507
304 0.000507
305 0.000507
306 0.000506
307 0.000511
308 0.000516
309 0.000521
310 0.000525
311 0.000529
312 0.000532
313 0.000532
314 0.000534
315 0.000536
316 0.000535
317 0.000530
318 0.000523
319 0.000523
320 0.000524
321 0.000522
322 0.000519
323 0.000517
324 0.000516
325 0.000513
326 0.000511
327 0.000509
328 0.000509
329 0.000509
330 0.000509
331 0.000506
332 0.000502
333 0.000497
334 0.000489
335 0.000485
336 0.000484
337 0.000481
338 0.000480
339 0.000477
340 0.000473
341 0.000472
342 0.000470
343 0.000468
344 0.000463
345 0.000459
346 0.000455
347 0.000454
348 0.000452
349 0.000446
350 0.000440
351 0.000437
352 0.000431
353 0.000427
354 0.000425
355 0.000423
356 0.000421
357 0.000420
358 0.000418
359 0.000422
360 0.000420
361 0.000414
362 0.000415
363 0.000414
364 0.000412
365 0.000413
366 0.000412
367 0.000416
368 0.000417
369 0.000415
370 0.000415
371 0.000415
372 0.000413
373 0.000409
374 0.000407
375 0.000406
376 0.000405
377 0.000403
378 0.000399
379 0.000393
380 0.000391
381 0.000388
382 0.000381
383 0.000378
384 0.000379
385 0.000380
386 0.000380
387 0.000382
388 0.000379
389 0.000379
390 0.000377
391 0.000377
392 0.000377
393 0.000376
394 0.000376
395 0.000377
396 0.000381
397 0.000387
398 0.000394
399 0.000397
400 0.000402
401 0.000408
402 0.000408
403 0.000406
404 0.000406
405 0.000402
406 0.000396
407 0.000394
408 0.000392
409 0.000388
410 0.000387
411 0.000386
412 0.000384
413 0.000385
414 0.000387
415 0.000386
416 0.000386
417 0.000390
418 0.000392
419 0.000394
420 0.000399
421 0.000401
422 0.000403
423 0.000405
424 0.000407
425 0.000408
426 0.000409
427 0.000408
428 0.000407
429 0.000404
430 0.000400
431 0.000398
432 0.000395
433 0.000390
434 0.000390
435 0.000390
436 0.000390
437 0.000390
438 0.000391
439 0.000391
440 0.000391
441 0.000389
442 0.000387
443 0.000384
444 0.000382
445 0.000380
446 0.000377
447 0.000379
448 0.000382
449 0.000381
450 0.000380
451 0.000378
452 0.000376
453 0.000375
454 0.000373
455 0.000372
456 0.000374
457 0.000376
458 0.000378
459 0.000378
460 0.000376
461 0.000375
462 0.000375
463 0.000374
464 0.000373
465 0.000376
466 0.000381
467 0.000386
468 0.000390
469 0.000391
470 0.000392
471 0.000394
472 0.000399
473 0.000400
474 0.000401
475 0.000402
476 0.000404
477 0.000405
478 0.000404
479 0.000402
480 0.000397
481 0.000393
482 0.000392
483 0.000396
484 0.000400
485 0.000402
486 0.000402
487 0.000403
488 0.000405
489 0.000411
490 0.000418
491 0.000421
492 0.000424
493 0.000426
494 0.000425
495 0.000428
496 0.000430
497 0.000430
498 0.000433
499 0.000439
500 0.000443
501 0.000445
502 0.000449
503 0.000450
504 0.000452
505 0.000452
506 0.000453
507 0.000455
508 0.000455
509 0.000454
510 0.000460
511 0.000463
512 0.000464
513 0.000469
514 0.000471
515 0.000470
516 0.000469
517 0.000469
518 0.000469
519 0.000467
520 0.000468
521 0.000469
522 0.000469
523 0.000470
524 0.000467
525 0.000466
526 0.000462
527 0.000457
528 0.000456
529 0.000455
530 0.000453
531 0.000451
532 0.000451
533 0.000453
534 0.000453
535 0.000453
536 0.000455
537 0.000457
538 0.000460
539 0.000463
540 0.000465
541 0.000464
542 0.000461
543 0.000459
544 0.000459
545 0.000460
546 0.000464
547 0.000467
548 0.000469
549 0.000468
550 0.000467
551 0.000464
552 0.000458
553 0.000453
554 0.000450
555 0.000446
556 0.000444
557 0.000444
558 0.000444
559 0.000443
560 0.000442
561 0.000440
562 0.000441
563 0.000442
564 0.000441
565 0.000440
566 0.000440
567 0.000439
568 0.000439
569 0.000437
570 0.000437
571 0.000439
572 0.000442
573 0.000444
574 0.000442
575 0.000441
576 0.000441
577 0.000444
578 0.000444
579 0.000440
580 0.000437
581 0.000434
582 0.000432
583 0.000432
584 0.000431
585 0.000432
586 0.000430
587 0.000430
588 0.000428
589 0.000428
590 0.000427
591 0.000428
592 0.000427
593 0.000425
594 0.000426
595 0.000425
596 0.000426
597 0.000427
598 0.000430
599 0.000428
600 0.000427
601 0.000425
602 0.000425
603 0.000422
604 0.000420
605 0.000417
606 0.000416
607 0.000412
608 0.000413
609 0.000414
610 0.000413
611 0.000410
612 0.000409
613 0.000409
614 0.000407
615 0.000402
616 0.000397
617 0.000392
618 0.000388
619 0.000388
620 0.000385
621 0.000384
622 0.000379
623 0.000376
624 0.000372
625 0.000371
626 0.000369
627 0.000368
628 0.000368
629 0.000370
630 0.000372
631 0.000376
632 0.000378
633 0.000380
634 0.000386
635 0.000392
636 0.000398
637 0.000402
638 0.000404
639 0.000405
640 0.000406
641 0.000405
642 0.000403
643 0.000403
644 0.000401
645 0.000399
646 0.000394
647 0.000386
648 0.000378
649 0.000369
650 0.000362
651 0.000357
652 0.000356
653 0.000354
654 0.000352
655 0.000348
656 0.000349
657 0.000353
658 0.000357
659 0.000359
660 0.000360
661 0.000360
662 0.000361
663 0.000360
664 0.000357
665 0.000353
666 0.000349
667 0.000350
668 0.000350
669 0.000350
670 0.000350
671 0.000349
672 0.000349
673 0.000347
674 0.000347
675 0.000347
676 0.000347
677 0.000345
678 0.000343
679 0.000343
680 0.000339
681 0.000339
682 0.000341
683 0.000341
684 0.000344
685 0.000346
686 0.000346
687 0.000349
688 0.000347
689 0.000347
690 0.000346
691 0.000345
692 0.000348
693 0.000347
694 0.000348
695 0.000347
696 0.000346
697 0.000341
698 0.000337
699 0.000331
700 0.000326
701 0.000319
702 0.000313
703 0.000307
704 0.000304
705 0.000302
706 0.000303
707 0.000303
708 0.000304
709 0.000304
710 0.000305
711 0.000303
712 0.000303
713 0.000301
714 0.000299
715 0.000297
716 0.000295
717 0.000291
718 0.000287
719 0.000285
720 0.000284
721 0.000283
722 0.000280
723 0.000277
724 0.000274
725 0.000273
726 0.000271
727 0.000268
728 0.000264
729 0.000264
730 0.000265
731 0.000265
732 0.000264
733 0.000266
734 0.000270
735 0.000272
736 0.000273
737 0.000274
738 0.000275
739 0.000278
740 0.000281
741 0.000283
742 0.000283
743 0.000285
744 0.000286
745 0.000286
746 0.000286
747 0.000282
748 0.000280
749 0.000279
750 0.000279
751 0.000277
752 0.000277
753 0.000272
754 0.000270
755 0.000269
756 0.000268
757 0.000270
758 0.000272
759 0.000276
760 0.000281
761 0.000285
762 0.000287
763 0.000287
764 0.000285
765 0.000281
766 0.000279
767 0.000281
768 0.000281
769 0.000281
770 0.000279
771 0.000278
772 0.000277
773 0.000276
774 0.000275
775 0.000274
776 0.000273
777 0.000274
778 0.000274
779 0.000271
780 0.000266
781 0.000261
782 0.000263
783 0.000266
784 0.000266
785 0.000266
786 0.000265
787 0.000263
788 0.000262
789 0.000257
790 0.000252
791 0.000246
792 0.000243
793 0.000240
794 0.000236
795 0.000233
796 0.000229
797 0.000227
798 0.000224
799 0.000224
800 0.000224
801 0.000222
802 0.000221
803 0.000218
804 0.000217
805 0.000217
806 0.000219
807 0.000223
808 0.000226
809 0.000226
