# i correlation
1 0.001521
2 0.001477
3 0.001435
4 0.001402
5 0.001369
6 0.001338
7 0.001311
8 0.001289
9 0.001275
10 0.001264
11 0.001253
12 0.001239
13 0.001227
14 0.001216
15 0.001200
16 0.001189
17 0.001178
18 0.001172
19 0.001165
20 0.001158
21 0.001148
22 0.001139
23 0.001128
24 0.001119
25 0.001110
26 0.001101
27 0.001096
28 0.001094
29 0.001090
30 0.001084
31 0.001077
32 0.001072
33 0.001064
34 0.001057
35 0.001048
36 0.001041
37 0.001031
38 0.001026
39 0.001021
40 0.001016
41 0.001009
42 0.001000
43 0.000990
44 0.000977
45 0.000966
46 0.000961
47 0.000955
48 0.000953
49 0.000952
50 0.000952
51 0.000949
52 0.000947
53 0.000938
54 0.000927
55 0.000916
56 0.000903
57 0.000889
58 0.000874
59 0.000860
60 0.000850
61 0.000842
62 0.000833
63 0.000829
64 0.000823
65 0.000818
66 0.000815
67 0.000813
68 0.000813
69 0.000813
70 0.000812
71 0.000813
72 0.000814
73 0.000810
74 0.000811
75 0.000815
76 0.000820
77 0.000825
78 0.000826
79 0.000828
80 0.000831
81 0.000833
82 0.000832
83 0.000824
84 0.000818
85 0.000816
86 0.000814
87 0.000809
88 0.000803
89 0.000795
90 0.000789
91 0.000782
92 0.000771
93 0.000764
94 0.000751
95 0.000746
96 0.000741
97 0.000739
98 0.000737
99 0.000740
100 0.000745
101 0.000747
102 0.000748
103 0.000753
104 0.000756
105 0.000755
106 0.000753
107 0.000756
108 0.000752
109 0.000750
110 0.000751
111 0.000754
112 0.000753
113 0.000751
114 0.000747
115 0.000744
116 0.000739
117 0.000738
118 0.000740
119 0.000737
120 0.000734
121 0.000731
122 0.000726
123 0.000724
124 0.000726
125 0.000729
126 0.000728
127 0.000724
128 0.000716
129 0.000712
130 0.000699
131 0.000694
132 0.000691
133 0.000683
134 0.000675
135 0.000669
136 0.000665
137 0.000658
138 0.000651
139 0.000645
140 0.000639
141 0.000635
142 0.000633
143 0.000632
144 0.000628
145 0.000628
146 0.000627
147 0.000626
148 0.000624
149 0.000621
150 0.000620
151 0.000622
152 0.000621
153 0.000622
154 0.000621
155 0.000623
156 0.000625
157 0.000627
158 0.000629
159 0.000632
160 0.000630
161 0.000630
162 0.000625
163 0.000620
164 0.000616
165 0.000610
166 0.000602
167 0.000597
168 0.000590
169 0.000584
170 0.000573
171 0.000564
172 0.000555
173 0.000548
174 0.000541
175 0.000540
176 0.000540
177 0.000540
178 0.000539
179 0.000538
180 0.000533
181 0.000528
182 0.000526
183 0.000522
184 0.000515
185 0.000511
186 0.000508
187 0.000511
188 0.000515
189 0.000522
190 0.000524
191 0.000524
192 0.000523
193 0.000525
194 0.000523
195 0.000520
196 0.000517
197 0.000514
198 0.000514
199 0.000513
200 0.000512
201 0.000510
202 0.000509
203 0.000513
204 0.000514
205 0.000517
206 0.000518
207 0.000520
208 0.000516
209 0.000516
210 0.000514
211 0.000518
212 0.000516
213 0.000514
214 0.000508
215 0.000505
216 0.000507
217 0.000510
218 0.000511
219 0.000508
220 0.000505
221 0.000502
222 0.000503
223 0.000498
224 0.000491
225 0.000486
226 0.000479
227 0.000476
228 0.000477
229 0.000480
230 0.000482
231 0.000485
232 0.000489
233 0.000491
234 0.000489
235 0.000488
236 0.000489
237 0.000487
238 0.000487
239 0.000486
240 0.000488
241 0.000484
242 0.000475
243 0.000470
244 0.000470
245 0.000470
246 0.000472
247 0.000470
248 0.000467
249 0.000466
250 0.000465
251 0.000460
252 0.000452
253 0.000445
254 0.000442
255 0.000440
256 0.000439
257 0.000440
258 0.000438
259 0.000439
260 0.000439
261 0.000438
262 0.000437
263 0.000437
264 0.000441
265 0.000442
266 0.000441
267 0.000440
268 0.000441
269 0.000439
270 0.000439
271 0.000434
272 0.000428
273 0.000422
274 0.000416
275 0.000411
276 0.000406
277 0.000403
278 0.000400
279 0.000398
280 0.000393
281 0.000387
282 0.000380
283 0.000371
284 0.000362
285 0.000351
286 0.000342
287 0.000338
288 0.000338
289 0.000336
290 0.000334
291 0.000333
292 0.000333
293 0.000335
294 0.000334
295 0.000329
296 0.000327
297 0.000327
298 0.000328
299 0.000325
300 0.000322
301 0.000317
302 0.000315
303 0.000311
304 0.000307
305 0.000303
306 0.000303
307 0.000305
308 0.000306
309 0.000307
310 0.000308
311 0.000309
312 0.000311
313 0.000309
314 0.000311
315 0.000311
316 0.000313
317 0.000316
318 0.000318
319 0.000317
320 0.000320
321 0.000321
322 0.000325
323 0.000324
324 0.000325
325 0.000326
326 0.000327
327 0.000327
328 0.000326
329 0.000327
330 0.000324
331 0.000320
332 0.000316
333 0.000311
334 0.000306
335 0.000300
336 0.000300
337 0.000297
338 0.000298
339 0.000297
340 0.000297
341 0.000299
342 0.000302
343 0.000304
344 0.000308
345 0.000313
346 0.000315
347 0.000320
348 0.000325
349 0.000331
350 0.000339
351 0.000344
352 0.000349
353 0.000352
354 0.000354
355 0.000355
356 0.000353
357 0.000350
358 0.000348
359 0.000345
360 0.000343
361 0.000343
362 0.000341
363 0.000344
364 0.000350
365 0.000355
366 0.000355
367 0.000356
368 0.000355
369 0.000354
370 0.000353
371 0.000349
372 0.000347
373 0.000345
374 0.000346
375 0.000346
376 0.000350
377 0.000352
378 0.000356
379 0.000356
380 0.000357
381 0.000358
382 0.000357
383 0.000357
384 0.000355
385 0.000349
386 0.000344
387 0.000341
388 0.000342
389 0.000341
390 0.000338
391 0.000339
392 0.000343
393 0.000348
394 0.000355
395 0.000359
396 0.000360
397 0.000360
398 0.000359
399 0.000358
400 0.000355
401 0.000350
402 0.000346
403 0.000340
404 0.000337
405 0.000338
406 0.000338
407 0.000339
408 0.000336
409 0.000332
410 0.000327
411 0.000323
412 0.000317
413 0.000312
414 0.000307
415 0.000303
416 0.000302
417 0.000302
418 0.000301
419 0.000301
420 0.000302
421 0.000300
422 0.000300
423 0.000301
424 0.000300
425 0.000297
426 0.000297
427 0.000298
428 0.000296
429 0.000299
430 0.000298
431 0.000300
432 0.000303
433 0.000308
434 0.000311
435 0.000313
436 0.000314
437 0.000314
438 0.000311
439 0.000310
440 0.000308
441 0.000308
442 0.000308
443 0.000308
444 0.000307
445 0.000310
446 0.000311
447 0.000311
448 0.000308
449 0.000307
450 0.000301
451 0.000296
452 0.000294
453 0.000293
454 0.000293
455 0.000291
456 0.000292
457 0.000297
458 0.000300
459 0.000300
460 0.000297
461 0.000298
462 0.000298
463 0.000296
464 0.000292
465 0.000289
466 0.000289
467 0.000288
468 0.000287
469 0.000287
470 0.000286
471 0.000288
472 0.000287
473 0.000286
474 0.000285
475 0.000288
476 0.000294
477 0.000297
478 0.000296
479 0.000297
480 0.000297
481 0.000301
482 0.000304
483 0.000305
484 0.000307
485 0.000311
486 0.000315
487 0.000319
488 0.000319
489 0.000318
490 0.000316
491 0.000310
492 0.000304
493 0.000297
494 0.000291
495 0.000289
496 0.000287
497 0.000285
498 0.000284
499 0.000283
500 0.000281
501 0.000280
502 0.000276
503 0.000274
504 0.000274
505 0.000274
506 0.000273
507 0.000273
508 0.000271
509 0.000272
510 0.000270
511 0.000270
512 0.000270
513 0.000273
514 0.000273
515 0.000271
516 0.000266
517 0.000261
518 0.000256
519 0.000253
520 0.000253
521 0.000251
522 0.000247
523 0.000245
524 0.000243
525 0.000240
526 0.000236
527 0.000234
528 0.000235
529 0.000237
530 0.000239
531 0.000238
532 0.000237
533 0.000233
534 0.000233
535 0.000230
536 0.000226
537 0.000223
538 0.000221
539 0.000219
540 0.000219
541 0.000220
542 0.000222
543 0.000227
544 0.000232
545 0.000237
546 0.000238
547 0.000241
548 0.000246
549 0.000248
550 0.000246
551 0.000239
552 0.000237
553 0.000233
554 0.000231
555 0.000229
556 0.000231
557 0.000229
558 0.000228
559 0.000230
560 0.000229
561 0.000231
562 0.000233
563 0.000234
564 0.000237
565 0.000236
566 0.000238
567 0.000237
568 0.000235
569 0.000233
570 0.000231
571 0.000233
572 0.000232
573 0.000230
574 0.000230
575 0.000228
576 0.000227
577 0.000227
578 0.000226
579 0.000222
580 0.000221
581 0.000223
582 0.000228
583 0.000233
584 0.000238
585 0.000244
586 0.000251
587 0.000255
588 0.000257
589 0.000257
590 0.000256
591 0.000254
592 0.000252
593 0.000251
594 0.000253
595 0.000257
596 0.000259
597 0.000258
598 0.000259
599 0.000265
600 0.000272
601 0.000275
602 0.000275
603 0.000273
604 0.000273
605 0.000275
606 0.000274
607 0.000267
608 0.000261
609 0.000255
610 0.000252
611 0.000252
612 0.000252
613 0.000253
614 0.000251
615 0.000250
616 0.000250
617 0.000249
618 0.000245
619 0.000240
620 0.000239
621 0.000235
622 0.000234
623 0.000233
624 0.000236
625 0.000237
626 0.000236
627 0.000238
628 0.000235
629 0.000230
630 0.000225
631 0.000221
632 0.000217
633 0.000214
634 0.000210
635 0.000204
636 0.000198
637 0.000191
638 0.000186
639 0.000180
640 0.000177
641 0.000172
642 0.000166
643 0.000161
644 0.000157
645 0.000155
646 0.000156
647 0.000158
648 0.000161
649 0.000163
650 0.000163
651 0.000163
652 0.000166
653 0.000167
654 0.000167
655 0.000168
656 0.000172
657 0.000175
658 0.000178
659 0.000182
660 0.000182
661 0.000184
662 0.000186
663 0.000189
664 0.000191
665 0.000192
666 0.000196
667 0.000198
668 0.000198
669 0.000196
670 0.000196
671 0.000198
672 0.000200
673 0.000202
674 0.000204
675 0.000207
676 0.000207
677 0.000210
678 0.000209
679 0.000207
680 0.000206
681 0.000207
682 0.000208
683 0.000207
684 0.000204
685 0.000201
686 0.000197
687 0.000196
688 0.000195
689 0.000193
690 0.000193
691 0.000190
692 0.000188
693 0.000186
694 0.000185
695 0.000185
696 0.000183
697 0.000179
698 0.000180
699 0.000182
700 0.000183
701 0.000185
702 0.000187
703 0.000192
704 0.000194
705 0.000195
706 0.000196
707 0.000199
708 0.000199
709 0.000200
710 0.000200
711 0.000198
712 0.000198
713 0.000199
714 0.000196
715 0.000193
716 0.000189
717 0.000185
718 0.000181
719 0.000177
720 0.000175
721 0.000170
722 0.000165
723 0.000160
724 0.000156
725 0.000152
726 0.000150
727 0.000148
728 0.000144
729 0.000137
730 0.000131
731 0.000130
732 0.000127
733 0.000126
734 0.000124
735 0.000124
736 0.000125
737 0.000127
738 0.000131
739 0.000133
740 0.000133
741 0.000134
742 0.000132
743 0.000132
744 0.000134
745 0.000137
746 0.000138
747 0.000140
748 0.000138
749 0.000137
750 0.000137
751 0.000141
752 0.000147
753 0.000153
754 0.000157
755 0.000160
756 0.000163
757 0.000162
758 0.000162
759 0.000164
760 0.000163
761 0.000161
762 0.000157
763 0.000155
764 0.000152
765 0.000151
766 0.000147
767 0.000142
768 0.000137
769 0.000133
770 0.000131
771 0.000129
772 0.000126
773 0.000126
774 0.000128
775 0.000132
776 0.000137
777 0.000139
778 0.000142
779 0.000142
780 0.000143
781 0.000143
782 0.000143
783 0.000143
784 0.000147
785 0.000150
786 0.000150
787 0.000151
788 0.000153
789 0.000155
790 0.000155
791 0.000155
792 0.000156
793 0.000160
794 0.000161
795 0.000163
796 0.000164
797 0.000161
798 0.000158
799 0.000157
800 0.000155
801 0.000151
802 0.000146
803 0.000144
804 0.000144
805 0.000146
806 0.000148
807 0.000150
808 0.000149
809 0.000150
