# i correlation
1 0.001568
2 0.001529
3 0.001492
4 0.001461
5 0.001437
6 0.001417
7 0.001403
8 0.001387
9 0.001369
10 0.001347
11 0.001330
12 0.001318
13 0.001307
14 0.001299
15 0.001293
16 0.001286
17 0.001278
18 0.001270
19 0.001263
20 0.001255
21 0.001247
22 0.001239
23 0.001228
24 0.001216
25 0.001207
26 0.001194
27 0.001187
28 0.001182
29 0.001175
30 0.001170
31 0.001167
32 0.001158
33 0.001152
34 0.001146
35 0.001138
36 0.001134
37 0.001127
38 0.001112
39 0.001100
40 0.001084
41 0.001069
42 0.001058
43 0.001046
44 0.001040
45 0.001029
46 0.001020
47 0.001010
48 0.001005
49 0.001002
50 0.001002
51 0.001002
52 0.001003
53 0.000997
54 0.000994
55 0.000988
56 0.000982
57 0.000977
58 0.000978
59 0.000977
60 0.000971
61 0.000967
62 0.000963
63 0.000959
64 0.000952
65 0.000947
66 0.000942
67 0.000936
68 0.000932
69 0.000927
70 0.000928
71 0.000933
72 0.000939
73 0.000940
74 0.000937
75 0.000932
76 0.000926
77 0.000922
78 0.000914
79 0.000913
80 0.000909
81 0.000907
82 0.000903
83 0.000898
84 0.000890
85 0.000880
86 0.000878
87 0.000876
88 0.000874
89 0.000873
90 0.000865
91 0.000857
92 0.000847
93 0.000837
94 0.000830
95 0.000823
96 0.000815
97 0.000805
98 0.000798
99 0.000788
100 0.000777
101 0.000774
102 0.000772
103 0.000769
104 0.000770
105 0.000769
106 0.000770
107 0.000771
108 0.000774
109 0.000777
110 0.000779
111 0.000780
112 0.000778
113 0.000769
114 0.000764
115 0.000758
116 0.000753
117 0.000746
118 0.000741
119 0.000735
120 0.000730
121 0.000726
122 0.000716
123 0.000711
124 0.000700
125 0.000693
126 0.000688
127 0.000685
128 0.000683
129 0.000677
130 0.000672
131 0.000668
132 0.000661
133 0.000649
134 0.000640
135 0.000631
136 0.000620
137 0.000614
138 0.000610
139 0.000610
140 0.000615
141 0.000617
142 0.000617
143 0.000618
144 0.000618
145 0.000623
146 0.000628
147 0.000635
148 0.000643
149 0.000644
150 0.000643
151 0.000637
152 0.000635
153 0.000634
154 0.000628
155 0.000621
156 0.000613
157 0.000608
158 0.000601
159 0.000597
160 0.000597
161 0.000592
162 0.000589
163 0.000585
164 0.000579
165 0.000574
166 0.000567
167 0.000562
168 0.000557
169 0.000552
170 0.000554
171 0.000551
172 0.000547
173 0.000542
174 0.000536
175 0.000531
176 0.000527
177 0.000526
178 0.000526
179 0.000526
180 0.000526
181 0.000527
182 0.000527
183 0.000532
184 0.000538
185 0.000543
186 0.000545
187 0.000545
188 0.000541
189 0.000537
190 0.000535
191 0.000535
192 0.000535
193 0.000537
194 0.000536
195 0.000533
196 0.000531
197 0.000531
198 0.000530
199 0.000531
200 0.000531
201 0.000530
202 0.000525
203 0.000522
204 0.000520
205 0.000517
206 0.000515
207 0.000511
208 0.000503
209 0.000499
210 0.000494
211 0.000495
212 0.000498
213 0.000503
214 0.000509
215 0.000508
216 0.000506
217 0.000502
218 0.000499
219 0.000499
220 0.000502
221 0.000507
222 0.000513
223 0.000517
224 0.000519
225 0.000522
226 0.000521
227 0.000523
228 0.000522
229 0.000525
230 0.000527
231 0.000529
232 0.000531
233 0.000532
234 0.000532
235 0.000533
236 0.000533
237 0.000532
238 0.000529
239 0.000528
240 0.000524
241 0.000521
242 0.000519
243 0.000519
244 0.000519
245 0.000515
246 0.000511
247 0.000505
248 0.000501
249 0.000499
250 0.000501
251 0.000504
252 0.000507
253 0.000507
254 0.000505
255 0.000506
256 0.000505
257 0.000508
258 0.000513
259 0.000517
260 0.000518
261 0.000518
262 0.000518
263 0.000517
264 0.000519
265 0.000520
266 0.000523
267 0.000522
268 0.000524
269 0.000526
270 0.000527
271 0.000531
272 0.000538
273 0.000543
274 0.000547
275 0.000552
276 0.000555
277 0.000557
278 0.000555
279 0.000555
280 0.000553
281 0.000551
282 0.000546
283 0.000540
284 0.000532
285 0.000529
286 0.000524
287 0.000519
288 0.000517
289 0.000514
290 0.000510
291 0.000505
292 0.000499
293 0.000499
294 0.000504
295 0.000512
296 0.000517
297 0.000519
298 0.000517
299 0.000512
300 0.000508
301 0.000508
302 0.000512
303 0.000517
304 0.000523
305 0.000526
306 0.000527
307 0.000526
308 0.000524
309 0.000519
310 0.000517
311 0.000515
312 0.000515
313 0.000516
314 0.000513
315 0.000509
316 0.000504
317 0.000494
318 0.000489
319 0.000481
320 0.000476
321 0.000471
322 0.000468
323 0.000465
324 0.000463
325 0.000464
326 0.000463
327 0.000463
328 0.000463
329 0.000463
330 0.000466
331 0.000468
332 0.000473
333 0.000480
334 0.000484
335 0.000487
336 0.000487
337 0.000486
338 0.000484
339 0.000482
340 0.000484
341 0.000487
342 0.000482
343 0.000482
344 0.000482
345 0.000483
346 0.000481
347 0.000479
348 0.000477
349 0.000477
350 0.000472
351 0.000462
352 0.000456
353 0.000454
354 0.000453
355 0.000452
356 0.000452
357 0.000449
358 0.000449
359 0.000445
360 0.000442
361 0.000439
362 0.000434
363 0.000431
364 0.000430
365 0.000426
366 0.000428
367 0.000431
368 0.000431
369 0.000429
370 0.000427
371 0.000421
372 0.000417
373 0.000413
374 0.000412
375 0.000410
376 0.000409
377 0.000413
378 0.000414
379 0.000413
380 0.000413
381 0.000411
382 0.000411
383 0.000411
384 0.000416
385 0.000420
386 0.000423
387 0.000425
388 0.000424
389 0.000422
390 0.000419
391 0.000417
392 0.000418
393 0.000415
394 0.000410
395 0.000407
396 0.000405
397 0.000405
398 0.000404
399 0.000402
400 0.000401
401 0.000397
402 0.000391
403 0.000386
404 0.000382
405 0.000380
406 0.000378
407 0.000376
408 0.000375
409 0.000372
410 0.000369
411 0.000365
412 0.000366
413 0.000366
414 0.000367
415 0.000364
416 0.000365
417 0.000364
418 0.000362
419 0.000362
420 0.000365
421 0.000367
422 0.000368
423 0.000368
424 0.000368
425 0.000366
426 0.000364
427 0.000361
428 0.000360
429 0.000360
430 0.000356
431 0.000352
432 0.000344
433 0.000338
434 0.000331
435 0.000324
436 0.000322
437 0.000316
438 0.000313
439 0.000306
440 0.000296
441 0.000290
442 0.000283
443 0.000278
444 0.000278
445 0.000281
446 0.000279
447 0.000279
448 0.000275
449 0.000275
450 0.000274
451 0.000275
452 0.000277
453 0.000278
454 0.000279
455 0.000283
456 0.000287
457 0.000288
458 0.000287
459 0.000286
460 0.000288
461 0.000289
462 0.000289
463 0.000288
464 0.000292
465 0.000293
466 0.000295
467 0.000294
468 0.000292
469 0.000286
470 0.000279
471 0.000277
472 0.000277
473 0.000276
474 0.000272
475 0.000271
476 0.000268
477 0.000261
478 0.000257
479 0.000253
480 0.000253
481 0.000252
482 0.000251
483 0.000250
484 0.000250
485 0.000252
486 0.000256
487 0.000259
488 0.000264
489 0.000269
490 0.000272
491 0.000270
492 0.000267
493 0.000266
494 0.000264
495 0.000264
496 0.000263
497 0.000262
498 0.000260
499 0.000258
500 0.000253
501 0.000250
502 0.000249
503 0.000251
504 0.000253
505 0.000250
506 0.000250
507 0.000251
508 0.000256
509 0.000258
510 0.000258
511 0.000255
512 0.000249
513 0.000241
514 0.000234
515 0.000232
516 0.000230
517 0.000232
518 0.000233
519 0.000233
520 0.000234
521 0.000232
522 0.000231
523 0.000228
524 0.000226
525 0.000225
526 0.000226
527 0.000230
528 0.000232
529 0.000233
530 0.000232
531 0.000230
532 0.000231
533 0.000231
534 0.000232
535 0.000231
536 0.000231
537 0.000233
538 0.000237
539 0.000242
540 0.000246
541 0.000247
542 0.000247
543 0.000247
544 0.000247
545 0.000248
546 0.000244
547 0.000243
548 0.000239
549 0.000235
550 0.000232
551 0.000227
552 0.000222
553 0.000219
554 0.000220
555 0.000218
556 0.000214
557 0.000211
558 0.000205
559 0.000200
560 0.000194
561 0.000191
562 0.000186
563 0.000179
564 0.000171
565 0.000166
566 0.000163
567 0.000162
568 0.000162
569 0.000163
570 0.000168
571 0.000167
572 0.000169
573 0.000170
574 0.000170
575 0.000170
576 0.000173
577 0.000174
578 0.000174
579 0.000173
580 0.000171
581 0.000172
582 0.000169
583 0.000168
584 0.000164
585 0.000161
586 0.000158
587 0.000154
588 0.000147
589 0.000143
590 0.000139
591 0.000137
592 0.000137
593 0.000139
594 0.000140
595 0.000142
596 0.000139
597 0.000135
598 0.000135
599 0.000135
600 0.000136
601 0.000139
602 0.000140
603 0.000140
604 0.000139
605 0.000137
606 0.000134
607 0.000134
608 0.000136
609 0.000140
610 0.000143
611 0.000148
612 0.000150
613 0.000152
614 0.000154
615 0.000156
616 0.000161
617 0.000166
618 0.000170
619 0.000172
620 0.000176
621 0.000177
622 0.000177
623 0.000176
624 0.000177
625 0.000177
626 0.000179
627 0.000181
628 0.000183
629 0.000184
630 0.000184
631 0.000184
632 0.000184
633 0.000183
634 0.000181
635 0.000182
636 0.000182
637 0.000181
638 0.000181
639 0.000184
640 0.000185
641 0.000188
642 0.000190
643 0.000196
644 0.000202
645 0.000209
646 0.000214
647 0.000218
648 0.000222
649 0.000228
650 0.000232
651 0.000235
652 0.000238
653 0.000242
654 0.000243
655 0.000243
656 0.000246
657 0.000249
658 0.000250
659 0.000250
660 0.000251
661 0.000252
662 0.000251
663 0.000251
664 0.000249
665 0.000250
666 0.000250
667 0.000250
668 0.000250
669 0.000249
670 0.000248
671 0.000245
672 0.000244
673 0.000243
674 0.000243
675 0.000242
676 0.000240
677 0.000237
678 0.000232
679 0.000228
680 0.000226
681 0.000225
682 0.000228
683 0.000228
684 0.000227
685 0.000226
686 0.000223
687 0.000223
688 0.000225
689 0.000225
690 0.000227
691 0.000229
692 0.000228
693 0.000228
694 0.000227
695 0.000226
696 0.000223
697 0.000224
698 0.000223
699 0.000223
700 0.000223
701 0.000225
702 0.000229
703 0.000231
704 0.000234
705 0.000236
706 0.000237
707 0.000239
708 0.000240
709 0.000238
710 0.000237
711 0.000235
712 0.000233
713 0.000231
714 0.000225
715 0.000222
716 0.000219
717 0.000215
718 0.000214
719 0.000216
720 0.000215
721 0.000216
722 0.000219
723 0.000221
724 0.000222
725 0.000225
726 0.000227
727 0.000226
728 0.000228
729 0.000227
730 0.000229
731 0.000231
732 0.000236
733 0.000240
734 0.000242
735 0.000243
736 0.000243
737 0.000244
738 0.000245
739 0.000246
740 0.000247
741 0.000250
742 0.000251
743 0.000250
744 0.000248
745 0.000246
746 0.000243
747 0.000239
748 0.000236
749 0.000231
750 0.000225
751 0.000219
752 0.000214
753 0.000210
754 0.000208
755 0.000207
756 0.000207
757 0.000208
758 0.000208
759 0.000208
760 0.000210
761 0.000213
762 0.000215
763 0.000215
764 0.000213
765 0.000211
766 0.000208
767 0.000207
768 0.000204
769 0.000203
770 0.000203
771 0.000201
772 0.000197
773 0.000194
774 0.000190
775 0.000185
776 0.000179
777 0.000173
778 0.000166
779 0.000162
780 0.000157
781 0.000153
782 0.000149
783 0.000143
784 0.000140
785 0.000133
786 0.000129
787 0.000123
788 0.000117
789 0.000113
790 0.000109
791 0.000107
792 0.000105
793 0.000105
794 0.000105
795 0.000105
796 0.000104
797 0.000104
798 0.000104
799 0.000104
800 0.000105
801 0.000104
802 0.000105
803 0.000102
804 0.000099
805 0.000100
806 0.000101
807 0.000100
808 0.000098
809 0.000095
