# i correlation
1 0.001335
2 0.001289
3 0.001255
4 0.001225
5 0.001197
6 0.001169
7 0.001143
8 0.001124
9 0.001105
10 0.001084
11 0.001067
12 0.001050
13 0.001033
14 0.001020
15 0.001015
16 0.001012
17 0.001011
18 0.001011
19 0.001013
20 0.001008
21 0.000999
22 0.000990
23 0.000985
24 0.000976
25 0.000972
26 0.000969
27 0.000964
28 0.000960
29 0.000958
30 0.000960
31 0.000959
32 0.000953
33 0.000951
34 0.000950
35 0.000949
36 0.000951
37 0.000948
38 0.000943
39 0.000940
40 0.000932
41 0.000928
42 0.000922
43 0.000915
44 0.000910
45 0.000905
46 0.000897
47 0.000891
48 0.000890
49 0.000890
50 0.000889
51 0.000886
52 0.000879
53 0.000876
54 0.000874
55 0.000868
56 0.000867
57 0.000866
58 0.000866
59 0.000869
60 0.000870
61 0.000871
62 0.000874
63 0.000880
64 0.000883
65 0.000886
66 0.000891
67 0.000895
68 0.000896
69 0.000897
70 0.000891
71 0.000884
72 0.000877
73 0.000868
74 0.000859
75 0.000854
76 0.000845
77 0.000833
78 0.000820
79 0.000808
80 0.000800
81 0.000793
82 0.000788
83 0.000784
84 0.000782
85 0.000780
86 0.000780
87 0.000785
88 0.000786
89 0.000786
90 0.000782
91 0.000782
92 0.000780
93 0.000776
94 0.000775
95 0.000776
96 0.000770
97 0.000765
98 0.000761
99 0.000758
100 0.000754
101 0.000749
102 0.000747
103 0.000749
104 0.000749
105 0.000752
106 0.000755
107 0.000756
108 0.000754
109 0.000749
110 0.000750
111 0.000751
112 0.000749
113 0.000745
114 0.000739
115 0.000735
116 0.000734
117 0.000730
118 0.000721
119 0.000717
120 0.000716
121 0.000718
122 0.000720
123 0.000715
124 0.000712
125 0.000716
126 0.000722
127 0.000724
128 0.000720
129 0.000719
130 0.000723
131 0.000724
132 0.000727
133 0.000731
134 0.000731
135 0.000728
136 0.000724
137 0.000721
138 0.000713
139 0.000706
140 0.000695
141 0.000689
142 0.000685
143 0.000676
144 0.000666
145 0.000658
146 0.000652
147 0.000645
148 0.000638
149 0.000629
150 0.000624
151 0.000621
152 0.000626
153 0.000627
154 0.000626
155 0.000628
156 0.000632
157 0.000635
158 0.000635
159 0.000635
160 0.000634
161 0.000639
162 0.000641
163 0.000644
164 0.000648
165 0.000647
166 0.000645
167 0.000646
168 0.000646
169 0.000644
170 0.000640
171 0.000634
172 0.000626
173 0.000622
174 0.000617
175 0.000617
176 0.000614
177 0.000606
178 0.000601
179 0.000594
180 0.000584
181 0.000573
182 0.000565
183 0.000558
184 0.000551
185 0.000550
186 0.000550
187 0.000550
188 0.000550
189 0.000550
190 0.000549
191 0.000547
192 0.000546
193 0.000550
194 0.000550
195 0.000551
196 0.000554
197 0.000561
198 0.000570
199 0.000577
200 0.000582
201 0.000580
202 0.000580
203 0.000580
204 0.000578
205 0.000575
206 0.000573
207 0.000569
208 0.000565
209 0.000561
210 0.000555
211 0.000553
212 0.000552
213 0.000544
214 0.000536
215 0.000533
216 0.000532
217 0.000532
218 0.000529
219 0.000528
220 0.000526
221 0.000529
222 0.000533
223 0.000540
224 0.000548
225 0.000551
226 0.000553
227 0.000556
228 0.000557
229 0.000555
230 0.000552
231 0.000548
232 0.000543
233 0.000539
234 0.000533
235 0.000529
236 0.000527
237 0.000524
238 0.000521
239 0.000516
240 0.000513
241 0.000509
242 0.000507
243 0.000505
244 0.000506
245 0.000502
246 0.000496
247 0.000491
248 0.000488
249 0.000485
250 0.000480
251 0.000476
252 0.000475
253 0.000471
254 0.000467
255 0.000461
256 0.000454
257 0.000452
258 0.000450
259 0.000449
260 0.000452
261 0.000449
262 0.000449
263 0.000452
264 0.000453
265 0.000455
266 0.000459
267 0.000464
268 0.000469
269 0.000474
270 0.000478
271 0.000482
272 0.000483
273 0.000483
274 0.000486
275 0.000486
276 0.000483
277 0.000483
278 0.000483
279 0.000480
280 0.000478
281 0.000473
282 0.000467
283 0.000461
284 0.000456
285 0.000453
286 0.000448
287 0.000446
288 0.000443
289 0.000438
290 0.000439
291 0.000439
292 0.000436
293 0.000433
294 0.000432
295 0.000429
296 0.000427
297 0.000424
298 0.000421
299 0.000423
300 0.000423
301 0.000422
302 0.000418
303 0.000416
304 0.000412
305 0.000409
306 0.000405
307 0.000402
308 0.000399
309 0.000397
310 0.000399
311 0.000401
312 0.000402
313 0.000405
314 0.000399
315 0.000394
316 0.000389
317 0.000384
318 0.000381
319 0.000381
320 0.000381
321 0.000379
322 0.000379
323 0.000377
324 0.000380
325 0.000381
326 0.000379
327 0.000378
328 0.000381
329 0.000384
330 0.000388
331 0.000389
332 0.000395
333 0.000404
334 0.000403
335 0.000404
336 0.000404
337 0.000402
338 0.000401
339 0.000400
340 0.000398
341 0.000397
342 0.000391
343 0.000389
344 0.000386
345 0.000382
346 0.000379
347 0.000376
348 0.000376
349 0.000377
350 0.000376
351 0.000377
352 0.000377
353 0.000378
354 0.000380
355 0.000380
356 0.000375
357 0.000371
358 0.000371
359 0.000369
360 0.000365
361 0.000362
362 0.000357
363 0.000355
364 0.000355
365 0.000353
366 0.000356
367 0.000355
368 0.000356
369 0.000357
370 0.000357
371 0.000353
372 0.000349
373 0.000344
374 0.000343
375 0.000337
376 0.000331
377 0.000325
378 0.000320
379 0.000317
380 0.000314
381 0.000311
382 0.000310
383 0.000307
384 0.000303
385 0.000306
386 0.000309
387 0.000314
388 0.000317
389 0.000321
390 0.000327
391 0.000334
392 0.000336
393 0.000338
394 0.000341
395 0.000341
396 0.000341
397 0.000343
398 0.000341
399 0.000345
400 0.000349
401 0.000349
402 0.000352
403 0.000351
404 0.000347
405 0.000344
406 0.000344
407 0.000345
408 0.000346
409 0.000343
410 0.000342
411 0.000339
412 0.000338
413 0.000334
414 0.000328
415 0.000327
416 0.000333
417 0.000339
418 0.000342
419 0.000340
420 0.000337
421 0.000339
422 0.000340
423 0.000340
424 0.000341
425 0.000343
426 0.000347
427 0.000353
428 0.000358
429 0.000360
430 0.000364
431 0.000362
432 0.000359
433 0.000359
434 0.000355
435 0.000357
436 0.000361
437 0.000358
438 0.000359
439 0.000362
440 0.000361
441 0.000358
442 0.000359
443 0.000359
444 0.000358
445 0.000360
446 0.000363
447 0.000362
448 0.000362
449 0.000363
450 0.000363
451 0.000362
452 0.000359
453 0.000355
454 0.000348
455 0.000346
456 0.000341
457 0.000340
458 0.000337
459 0.000336
460 0.000335
461 0.000333
462 0.000329
463 0.000325
464 0.000321
465 0.000323
466 0.000328
467 0.000330
468 0.000330
469 0.000331
470 0.000331
471 0.000330
472 0.000327
473 0.000320
474 0.000316
475 0.000314
476 0.000312
477 0.000309
478 0.000306
479 0.000302
480 0.000304
481 0.000304
482 0.000302
483 0.000300
484 0.000296
485 0.000295
486 0.000292
487 0.000290
488 0.000289
489 0.000288
490 0.000288
491 0.000291
492 0.000290
493 0.000292
494 0.000294
495 0.000297
496 0.000300
497 0.000302
498 0.000304
499 0.000309
500 0.000314
501 0.000318
502 0.000321
503 0.000324
504 0.000322
505 0.000318
506 0.000315
507 0.000312
508 0.000307
509 0.000302
510 0.000299
511 0.000302
512 0.000305
513 0.000303
514 0.000301
515 0.000302
516 0.000301
517 0.000298
518 0.000296
519 0.000297
520 0.000295
521 0.000294
522 0.000294
523 0.000295
524 0.000296
525 0.000294
526 0.000290
527 0.000284
528 0.000281
529 0.000277
530 0.000273
531 0.000266
532 0.000263
533 0.000265
534 0.000267
535 0.000265
536 0.000264
537 0.000267
538 0.000270
539 0.000271
540 0.000270
541 0.000269
542 0.000269
543 0.000269
544 0.000268
545 0.000263
546 0.000255
547 0.000248
548 0.000243
549 0.000237
550 0.000231
551 0.000226
552 0.000226
553 0.000225
554 0.000225
555 0.000227
556 0.000229
557 0.000231
558 0.000234
559 0.000238
560 0.000241
561 0.000245
562 0.000247
563 0.000250
564 0.000256
565 0.000257
566 0.000253
567 0.000249
568 0.000245
569 0.000242
570 0.000241
571 0.000240
572 0.000236
573 0.000232
574 0.000224
575 0.000217
576 0.000212
577 0.000210
578 0.000212
579 0.000215
580 0.000213
581 0.000213
582 0.000212
583 0.000214
584 0.000213
585 0.000212
586 0.000211
587 0.000214
588 0.000217
589 0.000216
590 0.000218
591 0.000221
592 0.000224
593 0.000224
594 0.000225
595 0.000228
596 0.000230
597 0.000228
598 0.000226
599 0.000223
600 0.000215
601 0.000209
602 0.000205
603 0.000204
604 0.000202
605 0.000196
606 0.000196
607 0.000194
608 0.000190
609 0.000186
610 0.000185
611 0.000184
612 0.000182
613 0.000182
614 0.000183
615 0.000185
616 0.000183
617 0.000180
618 0.000184
619 0.000183
620 0.000179
621 0.000177
622 0.000176
623 0.000176
624 0.000177
625 0.000176
626 0.000174
627 0.000175
628 0.000179
629 0.000182
630 0.000183
631 0.000180
632 0.000181
633 0.000183
634 0.000184
635 0.000183
636 0.000179
637 0.000174
638 0.000171
639 0.000167
640 0.000165
641 0.000162
642 0.000158
643 0.000154
644 0.000153
645 0.000154
646 0.000156
647 0.000155
648 0.000155
649 0.000154
650 0.000152
651 0.000150
652 0.000149
653 0.000149
654 0.000151
655 0.000152
656 0.000151
657 0.000151
658 0.000154
659 0.000158
660 0.000160
661 0.000160
662 0.000161
663 0.000162
664 0.000164
665 0.000165
666 0.000168
667 0.000170
668 0.000172
669 0.000175
670 0.000178
671 0.000180
672 0.000178
673 0.000174
674 0.000171
675 0.000167
676 0.000164
677 0.000161
678 0.000161
679 0.000160
680 0.000158
681 0.000157
682 0.000156
683 0.000150
684 0.000144
685 0.000139
686 0.000136
687 0.000131
688 0.000127
689 0.000124
690 0.000125
691 0.000125
692 0.000122
693 0.000121
694 0.000124
695 0.000125
696 0.000125
697 0.000128
698 0.000130
699 0.000136
700 0.000140
701 0.000141
702 0.000142
703 0.000142
704 0.000140
705 0.000141
706 0.000139
707 0.000135
708 0.000129
709 0.000125
710 0.000121
711 0.000116
712 0.000112
713 0.000107
714 0.000102
715 0.000100
716 0.000098
717 0.000101
718 0.000106
719 0.000110
720 0.000114
721 0.000117
722 0.000119
723 0.000124
724 0.000127
725 0.000128
726 0.000131
727 0.000134
728 0.000135
729 0.000136
730 0.000137
731 0.000136
732 0.000135
733 0.000134
734 0.000133
735 0.000134
736 0.000134
737 0.000134
738 0.000134
739 0.000134
740 0.000138
741 0.000139
742 0.000137
743 0.000134
744 0.000129
745 0.000128
746 0.000125
747 0.000120
748 0.000118
749 0.000117
750 0.000118
751 0.000120
752 0.000119
753 0.000118
754 0.000116
755 0.000116
756 0.000117
757 0.000117
758 0.000115
759 0.000113
760 0.000113
761 0.000113
762 0.000112
763 0.000114
764 0.000113
765 0.000114
766 0.000117
767 0.000119
768 0.000124
769 0.000128
770 0.000133
771 0.000137
772 0.000138
773 0.000136
774 0.000132
775 0.000129
776 0.000125
777 0.000123
778 0.000118
779 0.000115
780 0.000109
781 0.000108
782 0.000105
783 0.000101
784 0.000099
785 0.000096
786 0.000098
787 0.000101
788 0.000103
789 0.000105
790 0.000106
791 0.000107
792 0.000108
793 0.000109
794 0.000111
795 0.000109
796 0.000109
797 0.000107
798 0.000104
799 0.000100
800 0.000096
801 0.000090
802 0.000086
803 0.000084
804 0.000083
805 0.000082
806 0.000079
807 0.000078
808 0.000076
809 0.000072
