# i correlation
1 0.001569
2 0.001522
3 0.001480
4 0.001447
5 0.001422
6 0.001400
7 0.001378
8 0.001361
9 0.001349
10 0.001335
11 0.001322
12 0.001304
13 0.001282
14 0.001265
15 0.001256
16 0.001245
17 0.001233
18 0.001223
19 0.001214
20 0.001209
21 0.001204
22 0.001198
23 0.001191
24 0.001184
25 0.001180
26 0.001172
27 0.001167
28 0.001158
29 0.001148
30 0.001139
31 0.001130
32 0.001117
33 0.001103
34 0.001090
35 0.001082
36 0.001072
37 0.001066
38 0.001059
39 0.001052
40 0.001045
41 0.001038
42 0.001024
43 0.001012
44 0.001002
45 0.000993
46 0.000986
47 0.000984
48 0.000979
49 0.000973
50 0.000966
51 0.000961
52 0.000960
53 0.000960
54 0.000958
55 0.000955
56 0.000950
57 0.000940
58 0.000934
59 0.000932
60 0.000931
61 0.000930
62 0.000927
63 0.000924
64 0.000918
65 0.000910
66 0.000898
67 0.000886
68 0.000879
69 0.000875
70 0.000873
71 0.000869
72 0.000863
73 0.000857
74 0.000853
75 0.000849
76 0.000843
77 0.000835
78 0.000829
79 0.000825
80 0.000823
81 0.000819
82 0.000813
83 0.000804
84 0.000801
85 0.000799
86 0.000800
87 0.000801
88 0.000806
89 0.000808
90 0.000809
91 0.000808
92 0.000805
93 0.000801
94 0.000799
95 0.000801
96 0.000802
97 0.000800
98 0.000797
99 0.000795
100 0.000798
101 0.000796
102 0.000793
103 0.000788
104 0.000783
105 0.000777
106 0.000770
107 0.000757
108 0.000749
109 0.000744
110 0.000744
111 0.000745
112 0.000746
113 0.000746
114 0.000746
115 0.000750
116 0.000750
117 0.000755
118 0.000752
119 0.000747
120 0.000745
121 0.000744
122 0.000740
123 0.000739
124 0.000738
125 0.000737
126 0.000740
127 0.000745
128 0.000750
129 0.000750
130 0.000749
131 0.000747
132 0.000746
133 0.000746
134 0.000745
135 0.000745
136 0.000742
137 0.000740
138 0.000737
139 0.000738
140 0.000741
141 0.000744
142 0.000743
143 0.000745
144 0.000748
145 0.000750
146 0.000751
147 0.000749
148 0.000746
149 0.000748
150 0.000748
151 0.000749
152 0.000749
153 0.000751
154 0.000754
155 0.000758
156 0.000763
157 0.000768
158 0.000774
159 0.000776
160 0.000778
161 0.000779
162 0.000779
163 0.000778
164 0.000779
165 0.000779
166 0.000777
167 0.000777
168 0.000782
169 0.000783
170 0.000780
171 0.000777
172 0.000777
173 0.000779
174 0.000784
175 0.000789
176 0.000793
177 0.000793
178 0.000795
179 0.000796
180 0.000801
181 0.000801
182 0.000802
183 0.000799
184 0.000799
185 0.000797
186 0.000798
187 0.000793
188 0.000787
189 0.000783
190 0.000776
191 0.000770
192 0.000763
193 0.000759
194 0.000753
195 0.000752
196 0.000751
197 0.000751
198 0.000748
199 0.000746
200 0.000740
201 0.000734
202 0.000732
203 0.000731
204 0.000727
205 0.000727
206 0.000723
207 0.000721
208 0.000720
209 0.000722
210 0.000726
211 0.000730
212 0.000729
213 0.000729
214 0.000731
215 0.000730
216 0.000727
217 0.000724
218 0.000717
219 0.000710
220 0.000704
221 0.000703
222 0.000698
223 0.000693
224 0.000685
225 0.000677
226 0.000667
227 0.000659
228 0.000654
229 0.000652
230 0.000651
231 0.000645
232 0.000640
233 0.000636
234 0.000632
235 0.000625
236 0.000621
237 0.000616
238 0.000609
239 0.000601
240 0.000597
241 0.000592
242 0.000589
243 0.000588
244 0.000588
245 0.000592
246 0.000590
247 0.000579
248 0.000567
249 0.000556
250 0.000547
251 0.000540
252 0.000534
253 0.000530
254 0.000526
255 0.000525
256 0.000527
257 0.000526
258 0.000525
259 0.000524
260 0.000522
261 0.000523
262 0.000527
263 0.000531
264 0.000536
265 0.000540
266 0.000538
267 0.000538
268 0.000540
269 0.000538
270 0.000535
271 0.000532
272 0.000534
273 0.000541
274 0.000547
275 0.000550
276 0.000551
277 0.000552
278 0.000553
279 0.000550
280 0.000548
281 0.000548
282 0.000548
283 0.000546
284 0.000550
285 0.000555
286 0.000559
287 0.000559
288 0.000554
289 0.000550
290 0.000552
291 0.000553
292 0.000556
293 0.000560
294 0.000559
295 0.000561
296 0.000562
297 0.000565
298 0.000566
299 0.000568
300 0.000566
301 0.000560
302 0.000554
303 0.000549
304 0.000542
305 0.000537
306 0.000532
307 0.000530
308 0.000529
309 0.000528
310 0.000522
311 0.000518
312 0.000514
313 0.000507
314 0.000502
315 0.000497
316 0.000496
317 0.000494
318 0.000490
319 0.000484
320 0.000477
321 0.000473
322 0.000470
323 0.000466
324 0.000461
325 0.000460
326 0.000459
327 0.000459
328 0.000456
329 0.000452
330 0.000450
331 0.000450
332 0.000449
333 0.000453
334 0.000456
335 0.000456
336 0.000454
337 0.000451
338 0.000451
339 0.000449
340 0.000446
341 0.000439
342 0.000437
343 0.000436
344 0.000434
345 0.000431
346 0.000431
347 0.000429
348 0.000430
349 0.000428
350 0.000427
351 0.000425
352 0.000426
353 0.000427
354 0.000432
355 0.000436
356 0.000437
357 0.000438
358 0.000440
359 0.000440
360 0.000441
361 0.000440
362 0.000438
363 0.000438
364 0.000440
365 0.000440
366 0.000435
367 0.000430
368 0.000430
369 0.000432
370 0.000435
371 0.000437
372 0.000438
373 0.000441
374 0.000442
375 0.000441
376 0.000440
377 0.000439
378 0.000435
379 0.000435
380 0.000433
381 0.000433
382 0.000434
383 0.000433
384 0.000427
385 0.000426
386 0.000425
387 0.000425
388 0.000424
389 0.000428
390 0.000435
391 0.000440
392 0.000444
393 0.000447
394 0.000444
395 0.000442
396 0.000439
397 0.000436
398 0.000429
399 0.000425
400 0.000420
401 0.000419
402 0.000419
403 0.000419
404 0.000418
405 0.000413
406 0.000405
407 0.000398
408 0.000393
409 0.000388
410 0.000384
411 0.000380
412 0.000378
413 0.000377
414 0.000378
415 0.000374
416 0.000370
417 0.000367
418 0.000367
419 0.000370
420 0.000376
421 0.000378
422 0.000378
423 0.000377
424 0.000377
425 0.000381
426 0.000383
427 0.000385
428 0.000387
429 0.000389
430 0.000390
431 0.000393
432 0.000393
433 0.000392
434 0.000391
435 0.000385
436 0.000380
437 0.000372
438 0.000366
439 0.000363
440 0.000363
441 0.000360
442 0.000360
443 0.000362
444 0.000364
445 0.000368
446 0.000367
447 0.000364
448 0.000360
449 0.000359
450 0.000358
451 0.000355
452 0.000351
453 0.000345
454 0.000345
455 0.000348
456 0.000348
457 0.000346
458 0.000343
459 0.000339
460 0.000337
461 0.000334
462 0.000327
463 0.000321
464 0.000316
465 0.000313
466 0.000310
467 0.000307
468 0.000299
469 0.000290
470 0.000285
471 0.000282
472 0.000278
473 0.000277
474 0.000274
475 0.000274
476 0.000272
477 0.000267
478 0.000261
479 0.000258
480 0.000255
481 0.000254
482 0.000253
483 0.000253
484 0.000252
485 0.000252
486 0.000248
487 0.000245
488 0.000242
489 0.000237
490 0.000236
491 0.000236
492 0.000238
493 0.000238
494 0.000239
495 0.000241
496 0.000241
497 0.000236
498 0.000233
499 0.000230
500 0.000225
501 0.000220
502 0.000217
503 0.000216
504 0.000217
505 0.000217
506 0.000216
507 0.000217
508 0.000219
509 0.000221
510 0.000227
511 0.000233
512 0.000234
513 0.000232
514 0.000230
515 0.000230
516 0.000228
517 0.000228
518 0.000228
519 0.000228
520 0.000229
521 0.000232
522 0.000236
523 0.000235
524 0.000230
525 0.000223
526 0.000218
527 0.000213
528 0.000208
529 0.000205
530 0.000205
531 0.000205
532 0.000207
533 0.000207
534 0.000203
535 0.000197
536 0.000194
537 0.000192
538 0.000188
539 0.000186
540 0.000184
541 0.000181
542 0.000179
543 0.000179
544 0.000176
545 0.000178
546 0.000182
547 0.000186
548 0.000189
549 0.000194
550 0.000194
551 0.000192
552 0.000189
553 0.000185
554 0.000186
555 0.000189
556 0.000189
557 0.000190
558 0.000189
559 0.000188
560 0.000188
561 0.000185
562 0.000183
563 0.000181
564 0.000179
565 0.000177
566 0.000174
567 0.000170
568 0.000170
569 0.000170
570 0.000173
571 0.000177
572 0.000184
573 0.000187
574 0.000189
575 0.000195
576 0.000199
577 0.000202
578 0.000201
579 0.000198
580 0.000197
581 0.000193
582 0.000189
583 0.000182
584 0.000178
585 0.000176
586 0.000177
587 0.000179
588 0.000181
589 0.000181
590 0.000181
591 0.000177
592 0.000174
593 0.000170
594 0.000165
595 0.000162
596 0.000161
597 0.000159
598 0.000157
599 0.000155
600 0.000155
601 0.000156
602 0.000159
603 0.000161
604 0.000162
605 0.000162
606 0.000162
607 0.000165
608 0.000170
609 0.000175
610 0.000179
611 0.000181
612 0.000182
613 0.000182
614 0.000181
615 0.000181
616 0.000180
617 0.000180
618 0.000179
619 0.000177
620 0.000176
621 0.000171
622 0.000168
623 0.000162
624 0.000156
625 0.000151
626 0.000145
627 0.000138
628 0.000134
629 0.000129
630 0.000124
631 0.000120
632 0.000115
633 0.000113
634 0.000114
635 0.000115
636 0.000114
637 0.000113
638 0.000111
639 0.000109
640 0.000106
641 0.000106
642 0.000104
643 0.000102
644 0.000103
645 0.000105
646 0.000104
647 0.000105
648 0.000103
649 0.000103
650 0.000105
651 0.000105
652 0.000103
653 0.000099
654 0.000095
655 0.000092
656 0.000090
657 0.000088
658 0.000084
659 0.000079
660 0.000076
661 0.000074
662 0.000069
663 0.000064
664 0.000061
665 0.000061
666 0.000064
667 0.000064
668 0.000065
669 0.000066
670 0.000068
671 0.000069
672 0.000071
673 0.000072
674 0.000070
675 0.000070
676 0.000072
677 0.000076
678 0.000078
679 0.000078
680 0.000075
681 0.000074
682 0.000074
683 0.000069
684 0.000064
685 0.000059
686 0.000056
687 0.000054
688 0.000055
689 0.000057
690 0.000063
691 0.000066
692 0.000068
693 0.000067
694 0.000064
695 0.000061
696 0.000057
697 0.000053
698 0.000048
699 0.000045
700 0.000041
701 0.000038
702 0.000035
703 0.000034
704 0.000034
705 0.000037
706 0.000041
707 0.000045
708 0.000048
709 0.000049
710 0.000051
711 0.000054
712 0.000056
713 0.000058
714 0.000058
715 0.000056
716 0.000055
717 0.000055
718 0.000055
719 0.000057
720 0.000058
721 0.000059
722 0.000058
723 0.000057
724 0.000056
725 0.000057
726 0.000057
727 0.000055
728 0.000055
729 0.000061
730 0.000065
731 0.000070
732 0.000074
733 0.000077
734 0.000078
735 0.000079
736 0.000082
737 0.000084
738 0.000087
739 0.000090
740 0.000094
741 0.000100
742 0.000101
743 0.000099
744 0.000098
745 0.000098
746 0.000096
747 0.000096
748 0.000096
749 0.000095
750 0.000096
751 0.000098
752 0.000100
753 0.000101
754 0.000099
755 0.000100
756 0.000102
757 0.000104
758 0.000104
759 0.000103
760 0.000101
761 0.000099
762 0.000098
763 0.000095
764 0.000092
765 0.000088
766 0.000088
767 0.000088
768 0.000088
769 0.000085
770 0.000082
771 0.000079
772 0.000079
773 0.000080
774 0.000078
775 0.000076
776 0.000075
777 0.000077
778 0.000082
779 0.000086
780 0.000087
781 0.000084
782 0.000083
783 0.000084
784 0.000084
785 0.000088
786 0.000088
787 0.000088
788 0.000090
789 0.000091
790 0.000091
791 0.000089
792 0.000086
793 0.000084
794 0.000083
795 0.000084
796 0.000084
797 0.000084
798 0.000082
799 0.000081
800 0.000080
801 0.000078
802 0.000079
803 0.000080
804 0.000080
805 0.000080
806 0.000080
807 0.000076
808 0.000074
809 0.000071
