# i correlation
1 0.001593
2 0.001555
3 0.001521
4 0.001499
5 0.001482
6 0.001467
7 0.001455
8 0.001443
9 0.001428
10 0.001415
11 0.001400
12 0.001390
13 0.001382
14 0.001371
15 0.001357
16 0.001345
17 0.001335
18 0.001324
19 0.001313
20 0.001303
21 0.001302
22 0.001293
23 0.001288
24 0.001279
25 0.001270
26 0.001260
27 0.001251
28 0.001239
29 0.001232
30 0.001225
31 0.001220
32 0.001211
33 0.001203
34 0.001201
35 0.001198
36 0.001189
37 0.001184
38 0.001178
39 0.001171
40 0.001160
41 0.001153
42 0.001151
43 0.001143
44 0.001136
45 0.001127
46 0.001121
47 0.001115
48 0.001107
49 0.001097
50 0.001091
51 0.001089
52 0.001091
53 0.001092
54 0.001089
55 0.001085
56 0.001080
57 0.001075
58 0.001064
59 0.001060
60 0.001056
61 0.001052
62 0.001045
63 0.001039
64 0.001035
65 0.001028
66 0.001022
67 0.001015
68 0.001010
69 0.001008
70 0.000999
71 0.000990
72 0.000985
73 0.000981
74 0.000982
75 0.000983
76 0.000991
77 0.000999
78 0.001004
79 0.001001
80 0.000998
81 0.000993
82 0.000990
83 0.000987
84 0.000985
85 0.000985
86 0.000984
87 0.000987
88 0.000986
89 0.000983
90 0.000980
91 0.000977
92 0.000974
93 0.000972
94 0.000969
95 0.000967
96 0.000961
97 0.000954
98 0.000950
99 0.000950
100 0.000951
101 0.000951
102 0.000945
103 0.000937
104 0.000933
105 0.000929
106 0.000931
107 0.000931
108 0.000929
109 0.000925
110 0.000920
111 0.000913
112 0.000905
113 0.000894
114 0.000892
115 0.000886
116 0.000883
117 0.000880
118 0.000875
119 0.000873
120 0.000871
121 0.000871
122 0.000870
123 0.000868
124 0.000870
125 0.000869
126 0.000865
127 0.000863
128 0.000858
129 0.000855
130 0.000853
131 0.000854
132 0.000855
133 0.000858
134 0.000856
135 0.000854
136 0.000850
137 0.000845
138 0.000840
139 0.000834
140 0.000823
141 0.000816
142 0.000811
143 0.000807
144 0.000803
145 0.000799
146 0.000796
147 0.000791
148 0.000787
149 0.000783
150 0.000778
151 0.000774
152 0.000768
153 0.000765
154 0.000764
155 0.000763
156 0.000760
157 0.000754
158 0.000751
159 0.000748
160 0.000746
161 0.000742
162 0.000741
163 0.000741
164 0.000741
165 0.000737
166 0.000731
167 0.000723
168 0.000717
169 0.000715
170 0.000719
171 0.000714
172 0.000709
173 0.000702
174 0.000696
175 0.000692
176 0.000688
177 0.000684
178 0.000680
179 0.000675
180 0.000669
181 0.000661
182 0.000655
183 0.000653
184 0.000653
185 0.000650
186 0.000649
187 0.000648
188 0.000654
189 0.000656
190 0.000653
191 0.000652
192 0.000650
193 0.000651
194 0.000649
195 0.000649
196 0.000651
197 0.000653
198 0.000657
199 0.000662
200 0.000667
201 0.000674
202 0.000675
203 0.000672
204 0.000669
205 0.000667
206 0.000665
207 0.000666
208 0.000670
209 0.000673
210 0.000677
211 0.000681
212 0.000680
213 0.000678
214 0.000680
215 0.000681
216 0.000683
217 0.000684
218 0.000683
219 0.000681
220 0.000681
221 0.000678
222 0.000676
223 0.000674
224 0.000673
225 0.000675
226 0.000676
227 0.000677
228 0.000672
229 0.000667
230 0.000668
231 0.000667
232 0.000666
233 0.000666
234 0.000665
235 0.000663
236 0.000657
237 0.000651
238 0.000644
239 0.000639
240 0.000631
241 0.000625
242 0.000619
243 0.000616
244 0.000610
245 0.000601
246 0.000593
247 0.000588
248 0.000588
249 0.000582
250 0.000574
251 0.000568
252 0.000566
253 0.000565
254 0.000562
255 0.000558
256 0.000557
257 0.000555
258 0.000550
259 0.000542
260 0.000538
261 0.000538
262 0.000536
263 0.000531
264 0.000528
265 0.000528
266 0.000523
267 0.000516
268 0.000512
269 0.000512
270 0.000512
271 0.000514
272 0.000511
273 0.000508
274 0.000502
275 0.000498
276 0.000496
277 0.000498
278 0.000498
279 0.000500
280 0.000496
281 0.000492
282 0.000487
283 0.000487
284 0.000485
285 0.000489
286 0.000493
287 0.000496
288 0.000495
289 0.000494
290 0.000494
291 0.000492
292 0.000487
293 0.000482
294 0.000482
295 0.000483
296 0.000484
297 0.000482
298 0.000477
299 0.000476
300 0.000478
301 0.000475
302 0.000475
303 0.000479
304 0.000485
305 0.000490
306 0.000491
307 0.000493
308 0.000500
309 0.000506
310 0.000511
311 0.000513
312 0.000514
313 0.000513
314 0.000511
315 0.000510
316 0.000509
317 0.000510
318 0.000512
319 0.000512
320 0.000511
321 0.000509
322 0.000510
323 0.000510
324 0.000509
325 0.000513
326 0.000517
327 0.000518
328 0.000515
329 0.000514
330 0.000512
331 0.000511
332 0.000509
333 0.000506
334 0.000508
335 0.000509
336 0.000507
337 0.000507
338 0.000509
339 0.000516
340 0.000515
341 0.000516
342 0.000516
343 0.000515
344 0.000513
345 0.000508
346 0.000504
347 0.000503
348 0.000500
349 0.000498
350 0.000493
351 0.000485
352 0.000479
353 0.000476
354 0.000468
355 0.000458
356 0.000451
357 0.000446
358 0.000443
359 0.000439
360 0.000437
361 0.000433
362 0.000430
363 0.000430
364 0.000434
365 0.000439
366 0.000443
367 0.000441
368 0.000438
369 0.000434
370 0.000430
371 0.000430
372 0.000432
373 0.000431
374 0.000428
375 0.000419
376 0.000412
377 0.000407
378 0.000403
379 0.000397
380 0.000392
381 0.000390
382 0.000389
383 0.000386
384 0.000387
385 0.000387
386 0.000386
387 0.000386
388 0.000383
389 0.000383
390 0.000380
391 0.000383
392 0.000384
393 0.000384
394 0.000382
395 0.000383
396 0.000384
397 0.000380
398 0.000377
399 0.000376
400 0.000375
401 0.000370
402 0.000366
403 0.000363
404 0.000364
405 0.000364
406 0.000366
407 0.000366
408 0.000366
409 0.000366
410 0.000364
411 0.000361
412 0.000359
413 0.000355
414 0.000355
415 0.000354
416 0.000358
417 0.000356
418 0.000358
419 0.000360
420 0.000359
421 0.000358
422 0.000355
423 0.000352
424 0.000348
425 0.000347
426 0.000348
427 0.000353
428 0.000359
429 0.000364
430 0.000370
431 0.000375
432 0.000375
433 0.000377
434 0.000379
435 0.000386
436 0.000388
437 0.000390
438 0.000389
439 0.000386
440 0.000385
441 0.000388
442 0.000391
443 0.000395
444 0.000399
445 0.000399
446 0.000399
447 0.000399
448 0.000400
449 0.000402
450 0.000404
451 0.000405
452 0.000405
453 0.000404
454 0.000402
455 0.000399
456 0.000394
457 0.000388
458 0.000382
459 0.000379
460 0.000375
461 0.000374
462 0.000374
463 0.000375
464 0.000376
465 0.000379
466 0.000376
467 0.000375
468 0.000377
469 0.000379
470 0.000381
471 0.000380
472 0.000380
473 0.000382
474 0.000387
475 0.000392
476 0.000392
477 0.000391
478 0.000392
479 0.000390
480 0.000391
481 0.000390
482 0.000392
483 0.000393
484 0.000392
485 0.000393
486 0.000393
487 0.000391
488 0.000391
489 0.000391
490 0.000392
491 0.000390
492 0.000388
493 0.000385
494 0.000381
495 0.000380
496 0.000382
497 0.000383
498 0.000382
499 0.000383
500 0.000379
501 0.000376
502 0.000370
503 0.000364
504 0.000361
505 0.000361
506 0.000361
507 0.000362
508 0.000359
509 0.000358
510 0.000358
511 0.000356
512 0.000351
513 0.000345
514 0.000338
515 0.000333
516 0.000330
517 0.000330
518 0.000329
519 0.000328
520 0.000328
521 0.000324
522 0.000324
523 0.000325
524 0.000323
525 0.000324
526 0.000326
527 0.000329
528 0.000334
529 0.000334
530 0.000340
531 0.000341
532 0.000340
533 0.000336
534 0.000334
535 0.000332
536 0.000334
537 0.000335
538 0.000335
539 0.000332
540 0.000332
541 0.000334
542 0.000340
543 0.000347
544 0.000351
545 0.000350
546 0.000349
547 0.000349
548 0.000348
549 0.000350
550 0.000348
551 0.000349
552 0.000352
553 0.000352
554 0.000353
555 0.000354
556 0.000354
557 0.000354
558 0.000352
559 0.000353
560 0.000351
561 0.000351
562 0.000351
563 0.000348
564 0.000348
565 0.000352
566 0.000355
567 0.000356
568 0.000356
569 0.000360
570 0.000362
571 0.000364
572 0.000364
573 0.000365
574 0.000365
575 0.000364
576 0.000360
577 0.000358
578 0.000352
579 0.000352
580 0.000351
581 0.000349
582 0.000350
583 0.000349
584 0.000351
585 0.000351
586 0.000352
587 0.000352
588 0.000348
589 0.000342
590 0.000335
591 0.000333
592 0.000326
593 0.000321
594 0.000320
595 0.000318
596 0.000319
597 0.000317
598 0.000316
599 0.000313
600 0.000311
601 0.000307
602 0.000304
603 0.000301
604 0.000299
605 0.000298
606 0.000298
607 0.000299
608 0.000301
609 0.000301
610 0.000299
611 0.000297
612 0.000294
613 0.000292
614 0.000290
615 0.000286
616 0.000284
617 0.000282
618 0.000283
619 0.000285
620 0.000286
621 0.000286
622 0.000282
623 0.000279
624 0.000275
625 0.000274
626 0.000275
627 0.000274
628 0.000271
629 0.000270
630 0.000269
631 0.000268
632 0.000268
633 0.000267
634 0.000267
635 0.000268
636 0.000267
637 0.000267
638 0.000264
639 0.000264
640 0.000261
641 0.000258
642 0.000256
643 0.000259
644 0.000263
645 0.000265
646 0.000264
647 0.000264
648 0.000265
649 0.000268
650 0.000270
651 0.000271
652 0.000273
653 0.000278
654 0.000279
655 0.000280
656 0.000278
657 0.000278
658 0.000275
659 0.000272
660 0.000272
661 0.000273
662 0.000274
663 0.000274
664 0.000275
665 0.000273
666 0.000272
667 0.000269
668 0.000270
669 0.000269
670 0.000268
671 0.000268
672 0.000266
673 0.000265
674 0.000267
675 0.000269
676 0.000272
677 0.000272
678 0.000275
679 0.000277
680 0.000278
681 0.000279
682 0.000278
683 0.000279
684 0.000277
685 0.000275
686 0.000273
687 0.000270
688 0.000265
689 0.000261
690 0.000256
691 0.000255
692 0.000256
693 0.000253
694 0.000252
695 0.000249
696 0.000247
697 0.000246
698 0.000243
699 0.000239
700 0.000237
701 0.000236
702 0.000234
703 0.000232
704 0.000231
705 0.000232
706 0.000234
707 0.000234
708 0.000235
709 0.000234
710 0.000232
711 0.000230
712 0.000228
713 0.000226
714 0.000224
715 0.000221
716 0.000221
717 0.000219
718 0.000219
719 0.000220
720 0.000219
721 0.000219
722 0.000217
723 0.000213
724 0.000207
725 0.000203
726 0.000200
727 0.000195
728 0.000191
729 0.000186
730 0.000184
731 0.000184
732 0.000184
733 0.000182
734 0.000180
735 0.000180
736 0.000177
737 0.000175
738 0.000174
739 0.000171
740 0.000170
741 0.000168
742 0.000167
743 0.000165
744 0.000163
745 0.000160
746 0.000154
747 0.000150
748 0.000145
749 0.000140
750 0.000134
751 0.000132
752 0.000126
753 0.000126
754 0.000126
755 0.000127
756 0.000127
757 0.000129
758 0.000133
759 0.000135
760 0.000137
761 0.000141
762 0.000143
763 0.000143
764 0.000143
765 0.000144
766 0.000143
767 0.000141
768 0.000141
769 0.000140
770 0.000142
771 0.000142
772 0.000143
773 0.000144
774 0.000145
775 0.000146
776 0.000147
777 0.000146
778 0.000148
779 0.000151
780 0.000154
781 0.000156
782 0.000157
783 0.000156
784 0.000157
785 0.000157
786 0.000156
787 0.000156
788 0.000156
789 0.000156
790 0.000153
791 0.000149
792 0.000146
793 0.000144
794 0.000141
795 0.000142
796 0.000144
797 0.000145
798 0.000143
799 0.000140
800 0.000136
801 0.000135
802 0.000134
803 0.000133
804 0.000132
805 0.000131
806 0.000128
807 0.000126
808 0.000126
809 0.000127
