# i correlation
1 0.001634
2 0.001595
3 0.001563
4 0.001537
5 0.001513
6 0.001491
7 0.001472
8 0.001458
9 0.001450
10 0.001442
11 0.001438
12 0.001431
13 0.001429
14 0.001424
15 0.001420
16 0.001415
17 0.001404
18 0.001399
19 0.001392
20 0.001388
21 0.001382
22 0.001373
23 0.001369
24 0.001365
25 0.001364
26 0.001359
27 0.001358
28 0.001353
29 0.001350
30 0.001342
31 0.001337
32 0.001334
33 0.001330
34 0.001327
35 0.001324
36 0.001323
37 0.001319
38 0.001311
39 0.001306
40 0.001298
41 0.001292
42 0.001285
43 0.001280
44 0.001276
45 0.001269
46 0.001260
47 0.001245
48 0.001233
49 0.001221
50 0.001215
51 0.001204
52 0.001194
53 0.001189
54 0.001189
55 0.001193
56 0.001192
57 0.001193
58 0.001189
59 0.001185
60 0.001178
61 0.001171
62 0.001161
63 0.001150
64 0.001142
65 0.001135
66 0.001127
67 0.001116
68 0.001106
69 0.001097
70 0.001094
71 0.001095
72 0.001091
73 0.001086
74 0.001078
75 0.001074
76 0.001065
77 0.001056
78 0.001044
79 0.001034
80 0.001028
81 0.001022
82 0.001018
83 0.001013
84 0.001007
85 0.000999
86 0.000999
87 0.000996
88 0.000994
89 0.000992
90 0.000992
91 0.000996
92 0.000998
93 0.001002
94 0.001007
95 0.001009
96 0.001009
97 0.001005
98 0.000999
99 0.000995
100 0.000987
101 0.000981
102 0.000976
103 0.000972
104 0.000968
105 0.000966
106 0.000961
107 0.000957
108 0.000951
109 0.000943
110 0.000938
111 0.000935
112 0.000928
113 0.000918
114 0.000914
115 0.000910
116 0.000906
117 0.000904
118 0.000900
119 0.000899
120 0.000896
121 0.000895
122 0.000890
123 0.000885
124 0.000883
125 0.000884
126 0.000885
127 0.000885
128 0.000886
129 0.000887
130 0.000889
131 0.000892
132 0.000896
133 0.000894
134 0.000891
135 0.000889
136 0.000888
137 0.000887
138 0.000881
139 0.000877
140 0.000875
141 0.000873
142 0.000870
143 0.000862
144 0.000852
145 0.000846
146 0.000844
147 0.000841
148 0.000837
149 0.000835
150 0.000835
151 0.000836
152 0.000836
153 0.000835
154 0.000836
155 0.000837
156 0.000837
157 0.000835
158 0.000833
159 0.000833
160 0.000833
161 0.000832
162 0.000829
163 0.000827
164 0.000822
165 0.000820
166 0.000818
167 0.000817
168 0.000814
169 0.000813
170 0.000808
171 0.000804
172 0.000804
173 0.000804
174 0.000807
175 0.000808
176 0.000806
177 0.000805
178 0.000805
179 0.000804
180 0.000797
181 0.000794
182 0.000787
183 0.000778
184 0.000771
185 0.000768
186 0.000768
187 0.000768
188 0.000767
189 0.000763
190 0.000760
191 0.000757
192 0.000758
193 0.000759
194 0.000759
195 0.000758
196 0.000757
197 0.000756
198 0.000755
199 0.000751
200 0.000749
201 0.000747
202 0.000742
203 0.000734
204 0.000727
205 0.000720
206 0.000715
207 0.000715
208 0.000713
209 0.000712
210 0.000714
211 0.000718
212 0.000719
213 0.000720
214 0.000719
215 0.000718
216 0.000714
217 0.000710
218 0.000706
219 0.000696
220 0.000686
221 0.000677
222 0.000672
223 0.000666
224 0.000658
225 0.000653
226 0.000650
227 0.000651
228 0.000651
229 0.000650
230 0.000651
231 0.000657
232 0.000666
233 0.000672
234 0.000676
235 0.000679
236 0.000681
237 0.000681
238 0.000678
239 0.000669
240 0.000661
241 0.000655
242 0.000648
243 0.000641
244 0.000635
245 0.000630
246 0.000626
247 0.000622
248 0.000618
249 0.000614
250 0.000615
251 0.000615
252 0.000618
253 0.000616
254 0.000614
255 0.000609
256 0.000610
257 0.000611
258 0.000613
259 0.000613
260 0.000614
261 0.000615
262 0.000614
263 0.000613
264 0.000607
265 0.000605
266 0.000601
267 0.000600
268 0.000607
269 0.000615
270 0.000620
271 0.000623
272 0.000628
273 0.000636
274 0.000639
275 0.000639
276 0.000637
277 0.000633
278 0.000630
279 0.000626
280 0.000619
281 0.000616
282 0.000614
283 0.000614
284 0.000616
285 0.000613
286 0.000611
287 0.000612
288 0.000616
289 0.000618
290 0.000620
291 0.000618
292 0.000618
293 0.000619
294 0.000619
295 0.000618
296 0.000619
297 0.000618
298 0.000618
299 0.000618
300 0.000616
301 0.000612
302 0.000610
303 0.000608
304 0.000609
305 0.000610
306 0.000612
307 0.000614
308 0.000615
309 0.000617
310 0.000618
311 0.000618
312 0.000619
313 0.000620
314 0.000620
315 0.000622
316 0.000623
317 0.000623
318 0.000623
319 0.000625
320 0.000623
321 0.000620
322 0.000615
323 0.000608
324 0.000609
325 0.000610
326 0.000611
327 0.000615
328 0.000619
329 0.000626
330 0.000631
331 0.000632
332 0.000630
333 0.000628
334 0.000625
335 0.000619
336 0.000614
337 0.000608
338 0.000604
339 0.000602
340 0.000603
341 0.000600
342 0.000602
343 0.000607
344 0.000612
345 0.000615
346 0.000614
347 0.000607
348 0.000602
349 0.000596
350 0.000588
351 0.000583
352 0.000577
353 0.000573
354 0.000573
355 0.000573
356 0.000573
357 0.000572
358 0.000571
359 0.000566
360 0.000564
361 0.000563
362 0.000560
363 0.000559
364 0.000559
365 0.000559
366 0.000557
367 0.000558
368 0.000559
369 0.000561
370 0.000563
371 0.000566
372 0.000567
373 0.000567
374 0.000566
375 0.000568
376 0.000569
377 0.000568
378 0.000566
379 0.000563
380 0.000558
381 0.000549
382 0.000543
383 0.000539
384 0.000536
385 0.000532
386 0.000534
387 0.000538
388 0.000541
389 0.000544
390 0.000548
391 0.000548
392 0.000547
393 0.000546
394 0.000545
395 0.000544
396 0.000544
397 0.000543
398 0.000541
399 0.000543
400 0.000542
401 0.000539
402 0.000537
403 0.000534
404 0.000534
405 0.000531
406 0.000525
407 0.000522
408 0.000519
409 0.000517
410 0.000515
411 0.000514
412 0.000511
413 0.000508
414 0.000507
415 0.000508
416 0.000508
417 0.000504
418 0.000499
419 0.000496
420 0.000492
421 0.000488
422 0.000484
423 0.000479
424 0.000476
425 0.000477
426 0.000477
427 0.000475
428 0.000475
429 0.000475
430 0.000472
431 0.000470
432 0.000469
433 0.000471
434 0.000470
435 0.000470
436 0.000469
437 0.000467
438 0.000464
439 0.000461
440 0.000456
441 0.000449
442 0.000445
443 0.000442
444 0.000441
445 0.000438
446 0.000434
447 0.000431
448 0.000430
449 0.000428
450 0.000425
451 0.000423
452 0.000419
453 0.000416
454 0.000413
455 0.000408
456 0.000403
457 0.000396
458 0.000390
459 0.000389
460 0.000383
461 0.000380
462 0.000381
463 0.000380
464 0.000383
465 0.000383
466 0.000383
467 0.000383
468 0.000383
469 0.000387
470 0.000394
471 0.000400
472 0.000406
473 0.000409
474 0.000411
475 0.000411
476 0.000410
477 0.000409
478 0.000405
479 0.000402
480 0.000400
481 0.000396
482 0.000394
483 0.000394
484 0.000393
485 0.000394
486 0.000397
487 0.000397
488 0.000395
489 0.000393
490 0.000391
491 0.000392
492 0.000391
493 0.000391
494 0.000392
495 0.000393
496 0.000389
497 0.000387
498 0.000387
499 0.000384
500 0.000382
501 0.000382
502 0.000382
503 0.000384
504 0.000385
505 0.000387
506 0.000389
507 0.000388
508 0.000388
509 0.000388
510 0.000391
511 0.000392
512 0.000388
513 0.000380
514 0.000375
515 0.000371
516 0.000368
517 0.000364
518 0.000361
519 0.000362
520 0.000362
521 0.000363
522 0.000362
523 0.000365
524 0.000365
525 0.000366
526 0.000365
527 0.000363
528 0.000360
529 0.000359
530 0.000363
531 0.000368
532 0.000373
533 0.000374
534 0.000377
535 0.000376
536 0.000375
537 0.000374
538 0.000374
539 0.000373
540 0.000368
541 0.000362
542 0.000360
543 0.000358
544 0.000357
545 0.000358
546 0.000361
547 0.000365
548 0.000366
549 0.000363
550 0.000361
551 0.000355
552 0.000351
553 0.000347
554 0.000340
555 0.000336
556 0.000332
557 0.000330
558 0.000331
559 0.000330
560 0.000332
561 0.000334
562 0.000335
563 0.000337
564 0.000339
565 0.000342
566 0.000345
567 0.000347
568 0.000347
569 0.000347
570 0.000343
571 0.000341
572 0.000337
573 0.000335
574 0.000332
575 0.000330
576 0.000331
577 0.000330
578 0.000331
579 0.000326
580 0.000323
581 0.000321
582 0.000318
583 0.000313
584 0.000309
585 0.000304
586 0.000298
587 0.000293
588 0.000290
589 0.000292
590 0.000291
591 0.000289
592 0.000285
593 0.000282
594 0.000281
595 0.000280
596 0.000281
597 0.000279
598 0.000278
599 0.000274
600 0.000272
601 0.000270
602 0.000270
603 0.000272
604 0.000275
605 0.000279
606 0.000282
607 0.000282
608 0.000284
609 0.000287
610 0.000288
611 0.000287
612 0.000287
613 0.000285
614 0.000285
615 0.000283
616 0.000277
617 0.000272
618 0.000268
619 0.000265
620 0.000261
621 0.000259
622 0.000258
623 0.000258
624 0.000255
625 0.000251
626 0.000250
627 0.000252
628 0.000251
629 0.000250
630 0.000249
631 0.000249
632 0.000249
633 0.000249
634 0.000248
635 0.000244
636 0.000241
637 0.000238
638 0.000233
639 0.000230
640 0.000229
641 0.000227
642 0.000226
643 0.000223
644 0.000221
645 0.000218
646 0.000217
647 0.000213
648 0.000211
649 0.000210
650 0.000211
651 0.000215
652 0.000219
653 0.000219
654 0.000220
655 0.000220
656 0.000220
657 0.000220
658 0.000221
659 0.000222
660 0.000223
661 0.000224
662 0.000224
663 0.000223
664 0.000223
665 0.000222
666 0.000222
667 0.000222
668 0.000219
669 0.000217
670 0.000220
671 0.000222
672 0.000225
673 0.000227
674 0.000227
675 0.000226
676 0.000225
677 0.000226
678 0.000224
679 0.000225
680 0.000226
681 0.000224
682 0.000222
683 0.000219
684 0.000218
685 0.000218
686 0.000220
687 0.000220
688 0.000219
689 0.000217
690 0.000215
691 0.000214
692 0.000212
693 0.000210
694 0.000209
695 0.000209
696 0.000209
697 0.000210
698 0.000213
699 0.000215
700 0.000216
701 0.000215
702 0.000216
703 0.000215
704 0.000215
705 0.000217
706 0.000219
707 0.000222
708 0.000224
709 0.000227
710 0.000226
711 0.000224
712 0.000223
713 0.000222
714 0.000222
715 0.000223
716 0.000225
717 0.000229
718 0.000231
719 0.000232
720 0.000233
721 0.000236
722 0.000235
723 0.000235
724 0.000235
725 0.000234
726 0.000232
727 0.000231
728 0.000226
729 0.000223
730 0.000220
731 0.000216
732 0.000214
733 0.000211
734 0.000210
735 0.000206
736 0.000201
737 0.000196
738 0.000191
739 0.000187
740 0.000183
741 0.000179
742 0.000178
743 0.000179
744 0.000180
745 0.000181
746 0.000181
747 0.000182
748 0.000182
749 0.000177
750 0.000175
751 0.000174
752 0.000172
753 0.000169
754 0.000169
755 0.000169
756 0.000168
757 0.000166
758 0.000165
759 0.000163
760 0.000161
761 0.000160
762 0.000159
763 0.000159
764 0.000160
765 0.000158
766 0.000155
767 0.000150
768 0.000148
769 0.000145
770 0.000142
771 0.000139
772 0.000135
773 0.000133
774 0.000130
775 0.000128
776 0.000125
777 0.000122
778 0.000120
779 0.000117
780 0.000113
781 0.000109
782 0.000105
783 0.000103
784 0.000102
785 0.000099
786 0.000094
787 0.000092
788 0.000089
789 0.000086
790 0.000084
791 0.000085
792 0.000083
793 0.000082
794 0.000081
795 0.000079
796 0.000078
797 0.000073
798 0.000070
799 0.000068
800 0.000069
801 0.000068
802 0.000066
803 0.000063
804 0.000062
805 0.000061
806 0.000060
807 0.000061
808 0.000061
809 0.000060
