# i correlation
1 0.001797
2 0.001752
3 0.001716
4 0.001682
5 0.001657
6 0.001634
7 0.001606
8 0.001585
9 0.001566
10 0.001549
11 0.001535
12 0.001525
13 0.001517
14 0.001511
15 0.001502
16 0.001492
17 0.001485
18 0.001475
19 0.001466
20 0.001455
21 0.001444
22 0.001436
23 0.001426
24 0.001419
25 0.001408
26 0.001396
27 0.001386
28 0.001378
29 0.001373
30 0.001365
31 0.001359
32 0.001354
33 0.001349
34 0.001344
35 0.001337
36 0.001334
37 0.001333
38 0.001327
39 0.001324
40 0.001321
41 0.001319
42 0.001317
43 0.001314
44 0.001314
45 0.001310
46 0.001304
47 0.001293
48 0.001281
49 0.001273
50 0.001263
51 0.001252
52 0.001241
53 0.001232
54 0.001219
55 0.001206
56 0.001199
57 0.001192
58 0.001191
59 0.001188
60 0.001182
61 0.001175
62 0.001169
63 0.001164
64 0.001161
65 0.001158
66 0.001158
67 0.001157
68 0.001155
69 0.001154
70 0.001149
71 0.001145
72 0.001143
73 0.001143
74 0.001141
75 0.001139
76 0.001138
77 0.001132
78 0.001127
79 0.001121
80 0.001115
81 0.001112
82 0.001109
83 0.001104
84 0.001097
85 0.001091
86 0.001086
87 0.001083
88 0.001080
89 0.001068
90 0.001062
91 0.001058
92 0.001051
93 0.001049
94 0.001053
95 0.001057
96 0.001063
97 0.001061
98 0.001059
99 0.001055
100 0.001049
101 0.001041
102 0.001034
103 0.001027
104 0.001020
105 0.001015
106 0.001011
107 0.001008
108 0.001010
109 0.001012
110 0.001014
111 0.001015
112 0.001014
113 0.001016
114 0.001018
115 0.001018
116 0.001017
117 0.001012
118 0.001007
119 0.001001
120 0.001001
121 0.000999
122 0.000995
123 0.000991
124 0.000988
125 0.000985
126 0.000982
127 0.000981
128 0.000977
129 0.000974
130 0.000971
131 0.000974
132 0.000981
133 0.000982
134 0.000984
135 0.000983
136 0.000980
137 0.000979
138 0.000981
139 0.000980
140 0.000983
141 0.000985
142 0.000986
143 0.000985
144 0.000986
145 0.000984
146 0.000986
147 0.000986
148 0.000984
149 0.000982
150 0.000974
151 0.000965
152 0.000962
153 0.000959
154 0.000952
155 0.000951
156 0.000950
157 0.000952
158 0.000951
159 0.000944
160 0.000938
161 0.000934
162 0.000930
163 0.000929
164 0.000926
165 0.000924
166 0.000922
167 0.000922
168 0.000924
169 0.000926
170 0.000929
171 0.000926
172 0.000922
173 0.000918
174 0.000913
175 0.000907
176 0.000902
177 0.000897
178 0.000893
179 0.000886
180 0.000880
181 0.000877
182 0.000876
183 0.000876
184 0.000880
185 0.000879
186 0.000879
187 0.000881
188 0.000879
189 0.000877
190 0.000881
191 0.000882
192 0.000880
193 0.000877
194 0.000871
195 0.000865
196 0.000860
197 0.000855
198 0.000849
199 0.000844
200 0.000836
201 0.000835
202 0.000834
203 0.000831
204 0.000832
205 0.000833
206 0.000832
207 0.000833
208 0.000833
209 0.000834
210 0.000834
211 0.000833
212 0.000833
213 0.000830
214 0.000828
215 0.000833
216 0.000839
217 0.000841
218 0.000841
219 0.000841
220 0.000838
221 0.000838
222 0.000838
223 0.000836
224 0.000833
225 0.000828
226 0.000824
227 0.000818
228 0.000813
229 0.000809
230 0.000807
231 0.000806
232 0.000803
233 0.000800
234 0.000800
235 0.000798
236 0.000799
237 0.000798
238 0.000792
239 0.000784
240 0.000777
241 0.000773
242 0.000770
243 0.000773
244 0.000773
245 0.000774
246 0.000775
247 0.000772
248 0.000773
249 0.000771
250 0.000763
251 0.000761
252 0.000758
253 0.000758
254 0.000757
255 0.000756
256 0.000752
257 0.000747
258 0.000743
259 0.000739
260 0.000738
261 0.000732
262 0.000726
263 0.000724
264 0.000720
265 0.000715
266 0.000712
267 0.000710
268 0.000710
269 0.000709
270 0.000702
271 0.000694
272 0.000687
273 0.000683
274 0.000675
275 0.000667
276 0.000663
277 0.000659
278 0.000660
279 0.000660
280 0.000657
281 0.000655
282 0.000652
283 0.000649
284 0.000648
285 0.000649
286 0.000649
287 0.000653
288 0.000653
289 0.000652
290 0.000651
291 0.000648
292 0.000647
293 0.000645
294 0.000640
295 0.000636
296 0.000628
297 0.000623
298 0.000621
299 0.000617
300 0.000617
301 0.000618
302 0.000618
303 0.000618
304 0.000618
305 0.000618
306 0.000618
307 0.000615
308 0.000609
309 0.000606
310 0.000605
311 0.000603
312 0.000600
313 0.000596
314 0.000589
315 0.000584
316 0.000578
317 0.000573
318 0.000568
319 0.000563
320 0.000559
321 0.000555
322 0.000558
323 0.000556
324 0.000557
325 0.000560
326 0.000561
327 0.000561
328 0.000559
329 0.000558
330 0.000557
331 0.000559
332 0.000562
333 0.000563
334 0.000565
335 0.000565
336 0.000564
337 0.000562
338 0.000558
339 0.000560
340 0.000556
341 0.000551
342 0.000544
343 0.000539
344 0.000534
345 0.000530
346 0.000529
347 0.000524
348 0.000522
349 0.000519
350 0.000515
351 0.000513
352 0.000509
353 0.000505
354 0.000507
355 0.000504
356 0.000500
357 0.000497
358 0.000494
359 0.000492
360 0.000486
361 0.000480
362 0.000472
363 0.000468
364 0.000469
365 0.000469
366 0.000466
367 0.000464
368 0.000468
369 0.000472
370 0.000470
371 0.000468
372 0.000466
373 0.000463
374 0.000466
375 0.000469
376 0.000472
377 0.000477
378 0.000482
379 0.000486
380 0.000489
381 0.000492
382 0.000494
383 0.000497
384 0.000496
385 0.000498
386 0.000498
387 0.000496
388 0.000492
389 0.000491
390 0.000489
391 0.000485
392 0.000481
393 0.000480
394 0.000478
395 0.000476
396 0.000473
397 0.000468
398 0.000466
399 0.000466
400 0.000469
401 0.000472
402 0.000472
403 0.000470
404 0.000468
405 0.000467
406 0.000468
407 0.000468
408 0.000468
409 0.000467
410 0.000466
411 0.000465
412 0.000464
413 0.000466
414 0.000470
415 0.000472
416 0.000472
417 0.000472
418 0.000475
419 0.000482
420 0.000489
421 0.000498
422 0.000505
423 0.000506
424 0.000508
425 0.000507
426 0.000507
427 0.000509
428 0.000507
429 0.000504
430 0.000504
431 0.000501
432 0.000497
433 0.000495
434 0.000491
435 0.000489
436 0.000489
437 0.000487
438 0.000488
439 0.000486
440 0.000482
441 0.000476
442 0.000475
443 0.000471
444 0.000468
445 0.000468
446 0.000466
447 0.000465
448 0.000460
449 0.000457
450 0.000453
451 0.000447
452 0.000443
453 0.000437
454 0.000435
455 0.000438
456 0.000440
457 0.000439
458 0.000438
459 0.000441
460 0.000446
461 0.000451
462 0.000457
463 0.000460
464 0.000463
465 0.000464
466 0.000467
467 0.000469
468 0.000471
469 0.000474
470 0.000473
471 0.000468
472 0.000464
473 0.000461
474 0.000458
475 0.000453
476 0.000448
477 0.000444
478 0.000439
479 0.000436
480 0.000439
481 0.000442
482 0.000444
483 0.000443
484 0.000440
485 0.000439
486 0.000439
487 0.000435
488 0.000430
489 0.000427
490 0.000424
491 0.000421
492 0.000419
493 0.000416
494 0.000415
495 0.000416
496 0.000420
497 0.000420
498 0.000419
499 0.000417
500 0.000415
501 0.000413
502 0.000412
503 0.000409
504 0.000406
505 0.000405
506 0.000405
507 0.000404
508 0.000400
509 0.000400
510 0.000397
511 0.000393
512 0.000390
513 0.000386
514 0.000387
515 0.000385
516 0.000383
517 0.000380
518 0.000381
519 0.000381
520 0.000378
521 0.000377
522 0.000376
523 0.000376
524 0.000376
525 0.000378
526 0.000378
527 0.000380
528 0.000381
529 0.000381
530 0.000379
531 0.000377
532 0.000375
533 0.000374
534 0.000372
535 0.000370
536 0.000368
537 0.000366
538 0.000369
539 0.000370
540 0.000370
541 0.000369
542 0.000369
543 0.000370
544 0.000368
545 0.000368
546 0.000369
547 0.000366
548 0.000362
549 0.000358
550 0.000353
551 0.000351
552 0.000350
553 0.000350
554 0.000350
555 0.000353
556 0.000359
557 0.000361
558 0.000366
559 0.000368
560 0.000366
561 0.000365
562 0.000366
563 0.000366
564 0.000368
565 0.000367
566 0.000365
567 0.000361
568 0.000358
569 0.000355
570 0.000354
571 0.000356
572 0.000356
573 0.000355
574 0.000356
575 0.000356
576 0.000358
577 0.000359
578 0.000357
579 0.000358
580 0.000360
581 0.000357
582 0.000355
583 0.000352
584 0.000350
585 0.000346
586 0.000338
587 0.000332
588 0.000327
589 0.000321
590 0.000317
591 0.000315
592 0.000314
593 0.000314
594 0.000314
595 0.000317
596 0.000319
597 0.000318
598 0.000320
599 0.000319
600 0.000316
601 0.000316
602 0.000318
603 0.000318
604 0.000321
605 0.000325
606 0.000327
607 0.000329
608 0.000330
609 0.000331
610 0.000330
611 0.000330
612 0.000333
613 0.000335
614 0.000339
615 0.000341
616 0.000342
617 0.000345
618 0.000343
619 0.000341
620 0.000341
621 0.000339
622 0.000338
623 0.000339
624 0.000337
625 0.000334
626 0.000331
627 0.000328
628 0.000328
629 0.000327
630 0.000325
631 0.000323
632 0.000321
633 0.000318
634 0.000318
635 0.000314
636 0.000311
637 0.000313
638 0.000315
639 0.000320
640 0.000322
641 0.000319
642 0.000318
643 0.000316
644 0.000316
645 0.000315
646 0.000315
647 0.000314
648 0.000311
649 0.000307
650 0.000302
651 0.000298
652 0.000296
653 0.000294
654 0.000293
655 0.000287
656 0.000283
657 0.000278
658 0.000273
659 0.000268
660 0.000264
661 0.000258
662 0.000253
663 0.000247
664 0.000244
665 0.000241
666 0.000241
667 0.000241
668 0.000241
669 0.000238
670 0.000237
671 0.000237
672 0.000235
673 0.000235
674 0.000235
675 0.000231
676 0.000233
677 0.000234
678 0.000234
679 0.000236
680 0.000239
681 0.000242
682 0.000245
683 0.000248
684 0.000247
685 0.000246
686 0.000246
687 0.000246
688 0.000247
689 0.000248
690 0.000251
691 0.000255
692 0.000255
693 0.000257
694 0.000255
695 0.000251
696 0.000247
697 0.000244
698 0.000243
699 0.000241
700 0.000239
701 0.000234
702 0.000232
703 0.000231
704 0.000231
705 0.000231
706 0.000232
707 0.000233
708 0.000230
709 0.000227
710 0.000225
711 0.000225
712 0.000223
713 0.000221
714 0.000221
715 0.000221
716 0.000220
717 0.000218
718 0.000215
719 0.000213
720 0.000211
721 0.000206
722 0.000204
723 0.000201
724 0.000197
725 0.000195
726 0.000193
727 0.000191
728 0.000188
729 0.000185
730 0.000180
731 0.000173
732 0.000167
733 0.000166
734 0.000164
735 0.000160
736 0.000156
737 0.000150
738 0.000143
739 0.000136
740 0.000132
741 0.000128
742 0.000125
743 0.000122
744 0.000121
745 0.000120
746 0.000122
747 0.000122
748 0.000124
749 0.000128
750 0.000131
751 0.000134
752 0.000135
753 0.000134
754 0.000132
755 0.000131
756 0.000128
757 0.000123
758 0.000117
759 0.000112
760 0.000108
761 0.000107
762 0.000109
763 0.000110
764 0.000112
765 0.000112
766 0.000107
767 0.000105
768 0.000103
769 0.000101
770 0.000099
771 0.000096
772 0.000092
773 0.000089
774 0.000087
775 0.000084
776 0.000081
777 0.000078
778 0.000078
779 0.000078
780 0.000076
781 0.000074
782 0.000070
783 0.000066
784 0.000061
785 0.000058
786 0.000058
787 0.000061
788 0.000061
789 0.000062
790 0.000062
791 0.000064
792 0.000066
793 0.000067
794 0.000069
795 0.000071
796 0.000072
797 0.000074
798 0.000074
799 0.000073
800 0.000073
801 0.000077
802 0.000080
803 0.000082
804 0.000083
805 0.000081
806 0.000082
807 0.000083
808 0.000084
809 0.000084
