# i correlation
1 0.001819
2 0.001775
3 0.001739
4 0.001703
5 0.001678
6 0.001654
7 0.001630
8 0.001610
9 0.001594
10 0.001580
11 0.001573
12 0.001568
13 0.001560
14 0.001549
15 0.001535
16 0.001524
17 0.001508
18 0.001494
19 0.001482
20 0.001472
21 0.001463
22 0.001456
23 0.001448
24 0.001442
25 0.001431
26 0.001421
27 0.001419
28 0.001419
29 0.001417
30 0.001410
31 0.001401
32 0.001392
33 0.001390
34 0.001385
35 0.001375
36 0.001364
37 0.001349
38 0.001334
39 0.001319
40 0.001303
41 0.001288
42 0.001278
43 0.001268
44 0.001261
45 0.001251
46 0.001246
47 0.001245
48 0.001243
49 0.001239
50 0.001230
51 0.001224
52 0.001215
53 0.001204
54 0.001195
55 0.001184
56 0.001176
57 0.001167
58 0.001160
59 0.001151
60 0.001148
61 0.001147
62 0.001149
63 0.001152
64 0.001151
65 0.001149
66 0.001144
67 0.001140
68 0.001137
69 0.001133
70 0.001129
71 0.001123
72 0.001121
73 0.001117
74 0.001113
75 0.001111
76 0.001110
77 0.001107
78 0.001105
79 0.001099
80 0.001095
81 0.001088
82 0.001082
83 0.001079
84 0.001070
85 0.001069
86 0.001065
87 0.001058
88 0.001054
89 0.001045
90 0.001039
91 0.001037
92 0.001039
93 0.001038
94 0.001035
95 0.001033
96 0.001030
97 0.001026
98 0.001025
99 0.001023
100 0.001027
101 0.001031
102 0.001032
103 0.001028
104 0.001027
105 0.001029
106 0.001028
107 0.001027
108 0.001022
109 0.001015
110 0.001010
111 0.001009
112 0.001008
113 0.001010
114 0.001008
115 0.001002
116 0.000999
117 0.000994
118 0.000995
119 0.000996
120 0.000991
121 0.000985
122 0.000979
123 0.000971
124 0.000967
125 0.000963
126 0.000958
127 0.000951
128 0.000949
129 0.000946
130 0.000942
131 0.000937
132 0.000932
133 0.000927
134 0.000932
135 0.000933
136 0.000929
137 0.000929
138 0.000928
139 0.000927
140 0.000927
141 0.000927
142 0.000928
143 0.000924
144 0.000922
145 0.000920
146 0.000917
147 0.000912
148 0.000915
149 0.000914
150 0.000912
151 0.000909
152 0.000906
153 0.000907
154 0.000902
155 0.000894
156 0.000890
157 0.000887
158 0.000883
159 0.000876
160 0.000871
161 0.000867
162 0.000865
163 0.000866
164 0.000863
165 0.000860
166 0.000860
167 0.000863
168 0.000871
169 0.000874
170 0.000875
171 0.000876
172 0.000878
173 0.000877
174 0.000876
175 0.000875
176 0.000870
177 0.000863
178 0.000861
179 0.000855
180 0.000850
181 0.000854
182 0.000858
183 0.000861
184 0.000862
185 0.000860
186 0.000861
187 0.000863
188 0.000862
189 0.000862
190 0.000862
191 0.000859
192 0.000855
193 0.000853
194 0.000850
195 0.000840
196 0.000835
197 0.000833
198 0.000827
199 0.000827
200 0.000823
201 0.000818
202 0.000814
203 0.000807
204 0.000803
205 0.000800
206 0.000796
207 0.000788
208 0.000775
209 0.000764
210 0.000758
211 0.000758
212 0.000756
213 0.000753
214 0.000752
215 0.000750
216 0.000749
217 0.000749
218 0.000746
219 0.000740
220 0.000737
221 0.000737
222 0.000735
223 0.000733
224 0.000723
225 0.000714
226 0.000705
227 0.000699
228 0.000693
229 0.000690
230 0.000690
231 0.000688
232 0.000685
233 0.000684
234 0.000684
235 0.000686
236 0.000689
237 0.000688
238 0.000681
239 0.000675
240 0.000669
241 0.000664
242 0.000657
243 0.000650
244 0.000645
245 0.000645
246 0.000643
247 0.000643
248 0.000642
249 0.000635
250 0.000631
251 0.000631
252 0.000628
253 0.000631
254 0.000632
255 0.000633
256 0.000633
257 0.000633
258 0.000633
259 0.000631
260 0.000631
261 0.000630
262 0.000625
263 0.000623
264 0.000625
265 0.000628
266 0.000632
267 0.000639
268 0.000645
269 0.000653
270 0.000659
271 0.000662
272 0.000662
273 0.000659
274 0.000660
275 0.000658
276 0.000654
277 0.000647
278 0.000636
279 0.000630
280 0.000622
281 0.000614
282 0.000612
283 0.000613
284 0.000610
285 0.000606
286 0.000601
287 0.000597
288 0.000593
289 0.000589
290 0.000585
291 0.000582
292 0.000577
293 0.000568
294 0.000563
295 0.000563
296 0.000559
297 0.000556
298 0.000556
299 0.000554
300 0.000554
301 0.000554
302 0.000552
303 0.000550
304 0.000551
305 0.000552
306 0.000554
307 0.000557
308 0.000559
309 0.000560
310 0.000559
311 0.000557
312 0.000556
313 0.000552
314 0.000546
315 0.000541
316 0.000537
317 0.000532
318 0.000528
319 0.000525
320 0.000521
321 0.000517
322 0.000516
323 0.000518
324 0.000519
325 0.000514
326 0.000506
327 0.000498
328 0.000492
329 0.000487
330 0.000483
331 0.000481
332 0.000474
333 0.000467
334 0.000461
335 0.000458
336 0.000457
337 0.000451
338 0.000450
339 0.000452
340 0.000450
341 0.000452
342 0.000452
343 0.000451
344 0.000448
345 0.000446
346 0.000444
347 0.000441
348 0.000441
349 0.000441
350 0.000440
351 0.000435
352 0.000432
353 0.000428
354 0.000422
355 0.000420
356 0.000415
357 0.000413
358 0.000411
359 0.000408
360 0.000406
361 0.000402
362 0.000397
363 0.000392
364 0.000389
365 0.000385
366 0.000381
367 0.000376
368 0.000370
369 0.000366
370 0.000363
371 0.000363
372 0.000363
373 0.000363
374 0.000367
375 0.000369
376 0.000370
377 0.000374
378 0.000375
379 0.000379
380 0.000380
381 0.000381
382 0.000382
383 0.000383
384 0.000385
385 0.000386
386 0.000385
387 0.000382
388 0.000376
389 0.000373
390 0.000371
391 0.000366
392 0.000358
393 0.000354
394 0.000347
395 0.000342
396 0.000337
397 0.000335
398 0.000331
399 0.000326
400 0.000319
401 0.000312
402 0.000307
403 0.000303
404 0.000302
405 0.000302
406 0.000302
407 0.000298
408 0.000297
409 0.000297
410 0.000299
411 0.000303
412 0.000304
413 0.000304
414 0.000305
415 0.000303
416 0.000300
417 0.000299
418 0.000296
419 0.000296
420 0.000297
421 0.000297
422 0.000296
423 0.000295
424 0.000294
425 0.000294
426 0.000294
427 0.000296
428 0.000298
429 0.000301
430 0.000303
431 0.000301
432 0.000297
433 0.000296
434 0.000292
435 0.000292
436 0.000291
437 0.000291
438 0.000289
439 0.000284
440 0.000281
441 0.000282
442 0.000285
443 0.000290
444 0.000294
445 0.000297
446 0.000299
447 0.000300
448 0.000301
449 0.000303
450 0.000304
451 0.000306
452 0.000310
453 0.000311
454 0.000313
455 0.000312
456 0.000307
457 0.000307
458 0.000314
459 0.000321
460 0.000323
461 0.000325
462 0.000325
463 0.000324
464 0.000324
465 0.000326
466 0.000327
467 0.000323
468 0.000318
469 0.000311
470 0.000306
471 0.000302
472 0.000297
473 0.000294
474 0.000288
475 0.000284
476 0.000284
477 0.000282
478 0.000283
479 0.000283
480 0.000286
481 0.000289
482 0.000290
483 0.000291
484 0.000290
485 0.000292
486 0.000292
487 0.000292
488 0.000294
489 0.000296
490 0.000294
491 0.000297
492 0.000299
493 0.000300
494 0.000301
495 0.000302
496 0.000302
497 0.000300
498 0.000303
499 0.000304
500 0.000302
501 0.000299
502 0.000298
503 0.000296
504 0.000291
505 0.000287
506 0.000284
507 0.000279
508 0.000276
509 0.000274
510 0.000269
511 0.000269
512 0.000269
513 0.000271
514 0.000272
515 0.000273
516 0.000273
517 0.000270
518 0.000266
519 0.000263
520 0.000257
521 0.000254
522 0.000254
523 0.000254
524 0.000254
525 0.000255
526 0.000251
527 0.000252
528 0.000257
529 0.000260
530 0.000262
531 0.000266
532 0.000268
533 0.000270
534 0.000269
535 0.000270
536 0.000270
537 0.000267
538 0.000265
539 0.000263
540 0.000259
541 0.000257
542 0.000257
543 0.000259
544 0.000261
545 0.000262
546 0.000264
547 0.000267
548 0.000269
549 0.000271
550 0.000270
551 0.000267
552 0.000265
553 0.000263
554 0.000261
555 0.000260
556 0.000258
557 0.000256
558 0.000254
559 0.000253
560 0.000253
561 0.000253
562 0.000249
563 0.000247
564 0.000245
565 0.000243
566 0.000244
567 0.000243
568 0.000240
569 0.000235
570 0.000230
571 0.000229
572 0.000232
573 0.000231
574 0.000231
575 0.000232
576 0.000232
577 0.000235
578 0.000238
579 0.000241
580 0.000244
581 0.000244
582 0.000240
583 0.000239
584 0.000238
585 0.000236
586 0.000234
587 0.000232
588 0.000227
589 0.000221
590 0.000215
591 0.000211
592 0.000209
593 0.000205
594 0.000205
595 0.000203
596 0.000202
597 0.000201
598 0.000200
599 0.000200
600 0.000200
601 0.000199
602 0.000195
603 0.000193
604 0.000190
605 0.000187
606 0.000186
607 0.000183
608 0.000181
609 0.000177
610 0.000175
611 0.000172
612 0.000166
613 0.000163
614 0.000162
615 0.000160
616 0.000161
617 0.000161
618 0.000162
619 0.000164
620 0.000166
621 0.000167
622 0.000170
623 0.000172
624 0.000172
625 0.000167
626 0.000165
627 0.000166
628 0.000170
629 0.000173
630 0.000176
631 0.000176
632 0.000174
633 0.000176
634 0.000181
635 0.000185
636 0.000188
637 0.000192
638 0.000191
639 0.000191
640 0.000192
641 0.000192
642 0.000195
643 0.000198
644 0.000201
645 0.000201
646 0.000202
647 0.000203
648 0.000205
649 0.000206
650 0.000207
651 0.000208
652 0.000208
653 0.000209
654 0.000208
655 0.000209
656 0.000211
657 0.000214
658 0.000215
659 0.000213
660 0.000210
661 0.000204
662 0.000198
663 0.000194
664 0.000191
665 0.000190
666 0.000189
667 0.000188
668 0.000186
669 0.000183
670 0.000180
671 0.000176
672 0.000177
673 0.000173
674 0.000168
675 0.000164
676 0.000158
677 0.000157
678 0.000153
679 0.000149
680 0.000150
681 0.000150
682 0.000150
683 0.000144
684 0.000140
685 0.000136
686 0.000133
687 0.000131
688 0.000129
689 0.000128
690 0.000121
691 0.000119
692 0.000115
693 0.000111
694 0.000108
695 0.000104
696 0.000102
697 0.000101
698 0.000102
699 0.000105
700 0.000109
701 0.000111
702 0.000115
703 0.000118
704 0.000118
705 0.000119
706 0.000120
707 0.000117
708 0.000110
709 0.000104
710 0.000098
711 0.000090
712 0.000084
713 0.000078
714 0.000076
715 0.000076
716 0.000078
717 0.000078
718 0.000078
719 0.000078
720 0.000080
721 0.000082
722 0.000082
723 0.000078
724 0.000074
725 0.000070
726 0.000071
727 0.000071
728 0.000076
729 0.000082
730 0.000084
731 0.000085
732 0.000085
733 0.000086
734 0.000089
735 0.000093
736 0.000095
737 0.000093
738 0.000093
739 0.000087
740 0.000083
741 0.000077
742 0.000073
743 0.000067
744 0.000063
745 0.000061
746 0.000058
747 0.000056
748 0.000056
749 0.000061
750 0.000065
751 0.000067
752 0.000068
753 0.000068
754 0.000070
755 0.000071
756 0.000070
757 0.000068
758 0.000067
759 0.000067
760 0.000067
761 0.000069
762 0.000072
763 0.000076
764 0.000079
765 0.000082
766 0.000082
767 0.000084
768 0.000086
769 0.000087
770 0.000089
771 0.000089
772 0.000090
773 0.000089
774 0.000088
775 0.000086
776 0.000084
777 0.000083
778 0.000084
779 0.000083
780 0.000080
781 0.000078
782 0.000079
783 0.000079
784 0.000079
785 0.000077
786 0.000075
787 0.000071
788 0.000066
789 0.000062
790 0.000059
791 0.000057
792 0.000055
793 0.000054
794 0.000054
795 0.000053
796 0.000053
797 0.000054
798 0.000055
799 0.000056
800 0.000059
801 0.000060
802 0.000062
803 0.000064
804 0.000065
805 0.000066
806 0.000068
807 0.000070
808 0.000071
809 0.000072
