# i correlation
1 0.001664
2 0.001626
3 0.001590
4 0.001558
5 0.001528
6 0.001500
7 0.001473
8 0.001450
9 0.001432
10 0.001418
11 0.001406
12 0.001388
13 0.001369
14 0.001357
15 0.001345
16 0.001334
17 0.001324
18 0.001318
19 0.001310
20 0.001304
21 0.001295
22 0.001292
23 0.001288
24 0.001283
25 0.001277
26 0.001271
27 0.001261
28 0.001250
29 0.001240
30 0.001230
31 0.001216
32 0.001203
33 0.001192
34 0.001186
35 0.001178
36 0.001169
37 0.001159
38 0.001152
39 0.001144
40 0.001140
41 0.001139
42 0.001134
43 0.001127
44 0.001125
45 0.001121
46 0.001121
47 0.001116
48 0.001114
49 0.001104
50 0.001098
51 0.001091
52 0.001087
53 0.001082
54 0.001082
55 0.001077
56 0.001069
57 0.001063
58 0.001057
59 0.001051
60 0.001045
61 0.001036
62 0.001028
63 0.001022
64 0.001017
65 0.001018
66 0.001019
67 0.001020
68 0.001028
69 0.001030
70 0.001034
71 0.001030
72 0.001026
73 0.001019
74 0.001018
75 0.001014
76 0.001015
77 0.001018
78 0.001020
79 0.001017
80 0.001014
81 0.001010
82 0.001008
83 0.001003
84 0.000995
85 0.000988
86 0.000982
87 0.000975
88 0.000971
89 0.000966
90 0.000958
91 0.000947
92 0.000946
93 0.000949
94 0.000953
95 0.000957
96 0.000958
97 0.000959
98 0.000964
99 0.000965
100 0.000964
101 0.000962
102 0.000958
103 0.000951
104 0.000948
105 0.000942
106 0.000937
107 0.000930
108 0.000924
109 0.000920
110 0.000914
111 0.000909
112 0.000905
113 0.000901
114 0.000896
115 0.000893
116 0.000890
117 0.000887
118 0.000886
119 0.000888
120 0.000892
121 0.000894
122 0.000898
123 0.000901
124 0.000906
125 0.000902
126 0.000896
127 0.000887
128 0.000880
129 0.000874
130 0.000868
131 0.000863
132 0.000856
133 0.000852
134 0.000851
135 0.000853
136 0.000853
137 0.000852
138 0.000849
139 0.000843
140 0.000838
141 0.000832
142 0.000834
143 0.000832
144 0.000827
145 0.000822
146 0.000819
147 0.000816
148 0.000815
149 0.000812
150 0.000804
151 0.000797
152 0.000789
153 0.000782
154 0.000776
155 0.000767
156 0.000758
157 0.000751
158 0.000746
159 0.000737
160 0.000734
161 0.000732
162 0.000733
163 0.000731
164 0.000735
165 0.000738
166 0.000742
167 0.000745
168 0.000748
169 0.000751
170 0.000751
171 0.000752
172 0.000754
173 0.000752
174 0.000748
175 0.000742
176 0.000738
177 0.000734
178 0.000730
179 0.000722
180 0.000716
181 0.000709
182 0.000703
183 0.000698
184 0.000693
185 0.000686
186 0.000682
187 0.000680
188 0.000682
189 0.000683
190 0.000682
191 0.000686
192 0.000694
193 0.000702
194 0.000709
195 0.000712
196 0.000713
197 0.000713
198 0.000711
199 0.000708
200 0.000704
201 0.000697
202 0.000690
203 0.000684
204 0.000678
205 0.000674
206 0.000673
207 0.000668
208 0.000666
209 0.000665
210 0.000662
211 0.000660
212 0.000661
213 0.000659
214 0.000659
215 0.000659
216 0.000660
217 0.000661
218 0.000663
219 0.000668
220 0.000669
221 0.000668
222 0.000668
223 0.000668
224 0.000666
225 0.000661
226 0.000654
227 0.000646
228 0.000639
229 0.000630
230 0.000628
231 0.000622
232 0.000616
233 0.000606
234 0.000602
235 0.000595
236 0.000586
237 0.000580
238 0.000572
239 0.000565
240 0.000561
241 0.000560
242 0.000561
243 0.000563
244 0.000561
245 0.000561
246 0.000566
247 0.000570
248 0.000573
249 0.000573
250 0.000574
251 0.000574
252 0.000570
253 0.000568
254 0.000564
255 0.000555
256 0.000549
257 0.000545
258 0.000540
259 0.000534
260 0.000532
261 0.000529
262 0.000528
263 0.000527
264 0.000526
265 0.000527
266 0.000530
267 0.000531
268 0.000535
269 0.000538
270 0.000545
271 0.000556
272 0.000565
273 0.000572
274 0.000576
275 0.000579
276 0.000580
277 0.000579
278 0.000572
279 0.000561
280 0.000551
281 0.000542
282 0.000536
283 0.000527
284 0.000516
285 0.000505
286 0.000498
287 0.000494
288 0.000492
289 0.000493
290 0.000491
291 0.000492
292 0.000496
293 0.000503
294 0.000509
295 0.000514
296 0.000518
297 0.000522
298 0.000526
299 0.000529
300 0.000534
301 0.000532
302 0.000533
303 0.000530
304 0.000529
305 0.000527
306 0.000528
307 0.000530
308 0.000532
309 0.000532
310 0.000530
311 0.000532
312 0.000533
313 0.000531
314 0.000529
315 0.000526
316 0.000529
317 0.000532
318 0.000535
319 0.000538
320 0.000541
321 0.000539
322 0.000538
323 0.000537
324 0.000534
325 0.000531
326 0.000525
327 0.000518
328 0.000513
329 0.000509
330 0.000509
331 0.000510
332 0.000510
333 0.000509
334 0.000510
335 0.000510
336 0.000514
337 0.000516
338 0.000516
339 0.000513
340 0.000512
341 0.000512
342 0.000513
343 0.000513
344 0.000511
345 0.000507
346 0.000502
347 0.000499
348 0.000498
349 0.000495
350 0.000492
351 0.000484
352 0.000479
353 0.000473
354 0.000470
355 0.000466
356 0.000460
357 0.000455
358 0.000452
359 0.000452
360 0.000452
361 0.000447
362 0.000443
363 0.000441
364 0.000438
365 0.000439
366 0.000442
367 0.000444
368 0.000446
369 0.000448
370 0.000452
371 0.000456
372 0.000459
373 0.000457
374 0.000457
375 0.000453
376 0.000452
377 0.000452
378 0.000450
379 0.000445
380 0.000440
381 0.000436
382 0.000434
383 0.000432
384 0.000432
385 0.000435
386 0.000437
387 0.000437
388 0.000439
389 0.000438
390 0.000438
391 0.000439
392 0.000443
393 0.000446
394 0.000450
395 0.000455
396 0.000459
397 0.000462
398 0.000462
399 0.000460
400 0.000458
401 0.000454
402 0.000451
403 0.000445
404 0.000441
405 0.000437
406 0.000437
407 0.000437
408 0.000435
409 0.000431
410 0.000428
411 0.000426
412 0.000426
413 0.000426
414 0.000425
415 0.000425
416 0.000423
417 0.000423
418 0.000427
419 0.000430
420 0.000432
421 0.000431
422 0.000430
423 0.000428
424 0.000425
425 0.000423
426 0.000422
427 0.000420
428 0.000419
429 0.000419
430 0.000419
431 0.000421
432 0.000420
433 0.000415
434 0.000408
435 0.000403
436 0.000402
437 0.000404
438 0.000405
439 0.000405
440 0.000409
441 0.000411
442 0.000416
443 0.000419
444 0.000420
445 0.000421
446 0.000421
447 0.000417
448 0.000417
449 0.000411
450 0.000404
451 0.000396
452 0.000388
453 0.000381
454 0.000373
455 0.000367
456 0.000359
457 0.000347
458 0.000336
459 0.000324
460 0.000317
461 0.000308
462 0.000300
463 0.000297
464 0.000297
465 0.000298
466 0.000301
467 0.000305
468 0.000309
469 0.000312
470 0.000314
471 0.000314
472 0.000315
473 0.000316
474 0.000316
475 0.000314
476 0.000314
477 0.000312
478 0.000312
479 0.000308
480 0.000307
481 0.000305
482 0.000302
483 0.000303
484 0.000303
485 0.000304
486 0.000306
487 0.000308
488 0.000311
489 0.000313
490 0.000317
491 0.000319
492 0.000325
493 0.000328
494 0.000331
495 0.000333
496 0.000336
497 0.000338
498 0.000339
499 0.000340
500 0.000338
501 0.000336
502 0.000331
503 0.000326
504 0.000321
505 0.000318
506 0.000317
507 0.000316
508 0.000319
509 0.000321
510 0.000323
511 0.000323
512 0.000323
513 0.000323
514 0.000324
515 0.000324
516 0.000326
517 0.000329
518 0.000332
519 0.000335
520 0.000338
521 0.000340
522 0.000342
523 0.000344
524 0.000345
525 0.000345
526 0.000346
527 0.000342
528 0.000341
529 0.000338
530 0.000340
531 0.000340
532 0.000340
533 0.000335
534 0.000332
535 0.000327
536 0.000322
537 0.000317
538 0.000313
539 0.000308
540 0.000304
541 0.000302
542 0.000301
543 0.000301
544 0.000301
545 0.000300
546 0.000298
547 0.000296
548 0.000294
549 0.000294
550 0.000294
551 0.000292
552 0.000288
553 0.000285
554 0.000284
555 0.000281
556 0.000277
557 0.000273
558 0.000268
559 0.000263
560 0.000259
561 0.000251
562 0.000245
563 0.000241
564 0.000240
565 0.000245
566 0.000251
567 0.000254
568 0.000259
569 0.000263
570 0.000265
571 0.000265
572 0.000263
573 0.000260
574 0.000259
575 0.000257
576 0.000256
577 0.000254
578 0.000251
579 0.000252
580 0.000251
581 0.000246
582 0.000243
583 0.000239
584 0.000234
585 0.000235
586 0.000232
587 0.000231
588 0.000231
589 0.000233
590 0.000237
591 0.000241
592 0.000243
593 0.000246
594 0.000249
595 0.000251
596 0.000249
597 0.000244
598 0.000240
599 0.000233
600 0.000229
601 0.000226
602 0.000224
603 0.000218
604 0.000212
605 0.000206
606 0.000200
607 0.000195
608 0.000191
609 0.000189
610 0.000185
611 0.000184
612 0.000184
613 0.000187
614 0.000189
615 0.000190
616 0.000190
617 0.000190
618 0.000191
619 0.000192
620 0.000195
621 0.000195
622 0.000191
623 0.000187
624 0.000185
625 0.000183
626 0.000181
627 0.000182
628 0.000182
629 0.000180
630 0.000182
631 0.000180
632 0.000178
633 0.000175
634 0.000173
635 0.000171
636 0.000172
637 0.000175
638 0.000178
639 0.000180
640 0.000181
641 0.000183
642 0.000187
643 0.000190
644 0.000193
645 0.000194
646 0.000193
647 0.000195
648 0.000198
649 0.000199
650 0.000200
651 0.000195
652 0.000192
653 0.000189
654 0.000187
655 0.000185
656 0.000183
657 0.000183
658 0.000183
659 0.000183
660 0.000184
661 0.000188
662 0.000188
663 0.000185
664 0.000184
665 0.000184
666 0.000183
667 0.000184
668 0.000184
669 0.000184
670 0.000184
671 0.000184
672 0.000187
673 0.000185
674 0.000185
675 0.000185
676 0.000186
677 0.000183
678 0.000183
679 0.000183
680 0.000183
681 0.000181
682 0.000179
683 0.000177
684 0.000174
685 0.000173
686 0.000172
687 0.000171
688 0.000171
689 0.000172
690 0.000175
691 0.000176
692 0.000178
693 0.000179
694 0.000181
695 0.000184
696 0.000186
697 0.000186
698 0.000188
699 0.000190
700 0.000189
701 0.000190
702 0.000191
703 0.000192
704 0.000192
705 0.000191
706 0.000190
707 0.000192
708 0.000194
709 0.000196
710 0.000195
711 0.000195
712 0.000193
713 0.000194
714 0.000195
715 0.000195
716 0.000195
717 0.000196
718 0.000196
719 0.000197
720 0.000198
721 0.000196
722 0.000195
723 0.000194
724 0.000193
725 0.000191
726 0.000189
727 0.000186
728 0.000182
729 0.000179
730 0.000174
731 0.000170
732 0.000165
733 0.000158
734 0.000151
735 0.000146
736 0.000143
737 0.000142
738 0.000141
739 0.000139
740 0.000138
741 0.000137
742 0.000138
743 0.000140
744 0.000140
745 0.000139
746 0.000136
747 0.000133
748 0.000129
749 0.000126
750 0.000123
751 0.000120
752 0.000116
753 0.000113
754 0.000110
755 0.000105
756 0.000100
757 0.000097
758 0.000091
759 0.000087
760 0.000083
761 0.000080
762 0.000082
763 0.000086
764 0.000089
765 0.000092
766 0.000095
767 0.000098
768 0.000100
769 0.000101
770 0.000100
771 0.000099
772 0.000097
773 0.000097
774 0.000095
775 0.000092
776 0.000090
777 0.000085
778 0.000083
779 0.000083
780 0.000082
781 0.000083
782 0.000084
783 0.000085
784 0.000086
785 0.000089
786 0.000091
787 0.000094
788 0.000095
789 0.000097
790 0.000101
791 0.000105
792 0.000109
793 0.000111
794 0.000112
795 0.000113
796 0.000115
797 0.000119
798 0.000122
799 0.000121
800 0.000121
801 0.000119
802 0.000119
803 0.000119
804 0.000118
805 0.000117
806 0.000117
807 0.000116
808 0.000114
809 0.000112
