# i correlation
1 0.001705
2 0.001661
3 0.001621
4 0.001586
5 0.001558
6 0.001531
7 0.001505
8 0.001482
9 0.001460
10 0.001445
11 0.001431
12 0.001423
13 0.001414
14 0.001409
15 0.001400
16 0.001390
17 0.001384
18 0.001379
19 0.001373
20 0.001369
21 0.001366
22 0.001368
23 0.001369
24 0.001370
25 0.001365
26 0.001361
27 0.001357
28 0.001349
29 0.001342
30 0.001337
31 0.001332
32 0.001327
33 0.001318
34 0.001309
35 0.001303
36 0.001297
37 0.001292
38 0.001287
39 0.001279
40 0.001272
41 0.001269
42 0.001268
43 0.001267
44 0.001270
45 0.001267
46 0.001263
47 0.001259
48 0.001256
49 0.001250
50 0.001249
51 0.001248
52 0.001249
53 0.001245
54 0.001244
55 0.001247
56 0.001249
57 0.001254
58 0.001249
59 0.001241
60 0.001227
61 0.001208
62 0.001194
63 0.001175
64 0.001157
65 0.001137
66 0.001118
67 0.001107
68 0.001094
69 0.001086
70 0.001080
71 0.001083
72 0.001085
73 0.001086
74 0.001088
75 0.001092
76 0.001099
77 0.001103
78 0.001106
79 0.001108
80 0.001105
81 0.001101
82 0.001095
83 0.001089
84 0.001081
85 0.001075
86 0.001068
87 0.001060
88 0.001051
89 0.001048
90 0.001048
91 0.001046
92 0.001043
93 0.001039
94 0.001032
95 0.001029
96 0.001028
97 0.001028
98 0.001022
99 0.001021
100 0.001018
101 0.001017
102 0.001018
103 0.001014
104 0.001008
105 0.000996
106 0.000982
107 0.000977
108 0.000970
109 0.000964
110 0.000962
111 0.000957
112 0.000956
113 0.000953
114 0.000951
115 0.000952
116 0.000951
117 0.000953
118 0.000951
119 0.000947
120 0.000941
121 0.000935
122 0.000925
123 0.000916
124 0.000907
125 0.000898
126 0.000893
127 0.000893
128 0.000889
129 0.000885
130 0.000882
131 0.000879
132 0.000880
133 0.000885
134 0.000891
135 0.000897
136 0.000897
137 0.000889
138 0.000884
139 0.000877
140 0.000870
141 0.000863
142 0.000855
143 0.000849
144 0.000840
145 0.000832
146 0.000827
147 0.000830
148 0.000832
149 0.000834
150 0.000834
151 0.000835
152 0.000832
153 0.000829
154 0.000829
155 0.000825
156 0.000821
157 0.000818
158 0.000816
159 0.000819
160 0.000817
161 0.000813
162 0.000805
163 0.000796
164 0.000789
165 0.000782
166 0.000774
167 0.000766
168 0.000758
169 0.000752
170 0.000746
171 0.000742
172 0.000741
173 0.000738
174 0.000740
175 0.000743
176 0.000741
177 0.000737
178 0.000734
179 0.000732
180 0.000728
181 0.000723
182 0.000723
183 0.000724
184 0.000725
185 0.000724
186 0.000721
187 0.000720
188 0.000719
189 0.000721
190 0.000721
191 0.000724
192 0.000727
193 0.000728
194 0.000729
195 0.000730
196 0.000729
197 0.000731
198 0.000732
199 0.000727
200 0.000724
201 0.000721
202 0.000720
203 0.000716
204 0.000714
205 0.000709
206 0.000713
207 0.000716
208 0.000718
209 0.000721
210 0.000723
211 0.000727
212 0.000732
213 0.000736
214 0.000735
215 0.000732
216 0.000730
217 0.000728
218 0.000724
219 0.000720
220 0.000712
221 0.000705
222 0.000697
223 0.000687
224 0.000676
225 0.000670
226 0.000667
227 0.000662
228 0.000664
229 0.000665
230 0.000671
231 0.000675
232 0.000680
233 0.000686
234 0.000691
235 0.000693
236 0.000695
237 0.000694
238 0.000693
239 0.000693
240 0.000694
241 0.000693
242 0.000694
243 0.000692
244 0.000687
245 0.000684
246 0.000684
247 0.000682
248 0.000679
249 0.000676
250 0.000678
251 0.000681
252 0.000679
253 0.000674
254 0.000670
255 0.000669
256 0.000668
257 0.000668
258 0.000666
259 0.000656
260 0.000649
261 0.000644
262 0.000639
263 0.000636
264 0.000632
265 0.000628
266 0.000623
267 0.000619
268 0.000620
269 0.000625
270 0.000627
271 0.000627
272 0.000628
273 0.000629
274 0.000632
275 0.000633
276 0.000635
277 0.000633
278 0.000630
279 0.000622
280 0.000613
281 0.000605
282 0.000601
283 0.000595
284 0.000595
285 0.000594
286 0.000597
287 0.000601
288 0.000603
289 0.000604
290 0.000607
291 0.000609
292 0.000613
293 0.000616
294 0.000622
295 0.000626
296 0.000630
297 0.000630
298 0.000627
299 0.000625
300 0.000619
301 0.000616
302 0.000614
303 0.000611
304 0.000607
305 0.000604
306 0.000600
307 0.000596
308 0.000594
309 0.000595
310 0.000594
311 0.000593
312 0.000591
313 0.000589
314 0.000585
315 0.000581
316 0.000575
317 0.000570
318 0.000566
319 0.000565
320 0.000563
321 0.000557
322 0.000550
323 0.000544
324 0.000538
325 0.000537
326 0.000534
327 0.000531
328 0.000527
329 0.000527
330 0.000527
331 0.000529
332 0.000533
333 0.000536
334 0.000540
335 0.000539
336 0.000537
337 0.000531
338 0.000531
339 0.000529
340 0.000524
341 0.000525
342 0.000522
343 0.000520
344 0.000516
345 0.000510
346 0.000506
347 0.000506
348 0.000507
349 0.000510
350 0.000511
351 0.000511
352 0.000510
353 0.000515
354 0.000521
355 0.000523
356 0.000527
357 0.000526
358 0.000524
359 0.000520
360 0.000516
361 0.000517
362 0.000515
363 0.000514
364 0.000509
365 0.000509
366 0.000506
367 0.000502
368 0.000501
369 0.000503
370 0.000504
371 0.000503
372 0.000504
373 0.000505
374 0.000501
375 0.000498
376 0.000493
377 0.000490
378 0.000488
379 0.000487
380 0.000485
381 0.000482
382 0.000480
383 0.000477
384 0.000475
385 0.000477
386 0.000479
387 0.000481
388 0.000482
389 0.000482
390 0.000481
391 0.000484
392 0.000488
393 0.000492
394 0.000492
395 0.000489
396 0.000488
397 0.000485
398 0.000487
399 0.000488
400 0.000486
401 0.000481
402 0.000474
403 0.000466
404 0.000464
405 0.000462
406 0.000459
407 0.000453
408 0.000451
409 0.000449
410 0.000449
411 0.000448
412 0.000446
413 0.000445
414 0.000441
415 0.000439
416 0.000440
417 0.000439
418 0.000442
419 0.000443
420 0.000449
421 0.000454
422 0.000457
423 0.000459
424 0.000461
425 0.000464
426 0.000466
427 0.000467
428 0.000468
429 0.000473
430 0.000479
431 0.000483
432 0.000490
433 0.000489
434 0.000489
435 0.000486
436 0.000483
437 0.000480
438 0.000475
439 0.000470
440 0.000465
441 0.000460
442 0.000457
443 0.000456
444 0.000460
445 0.000463
446 0.000469
447 0.000473
448 0.000473
449 0.000472
450 0.000470
451 0.000470
452 0.000472
453 0.000477
454 0.000476
455 0.000476
456 0.000476
457 0.000469
458 0.000466
459 0.000461
460 0.000458
461 0.000452
462 0.000446
463 0.000437
464 0.000427
465 0.000414
466 0.000403
467 0.000397
468 0.000395
469 0.000392
470 0.000392
471 0.000391
472 0.000389
473 0.000388
474 0.000385
475 0.000385
476 0.000390
477 0.000392
478 0.000396
479 0.000400
480 0.000405
481 0.000410
482 0.000413
483 0.000415
484 0.000418
485 0.000422
486 0.000424
487 0.000421
488 0.000418
489 0.000420
490 0.000424
491 0.000426
492 0.000424
493 0.000420
494 0.000413
495 0.000407
496 0.000401
497 0.000398
498 0.000394
499 0.000394
500 0.000390
501 0.000389
502 0.000387
503 0.000389
504 0.000396
505 0.000402
506 0.000406
507 0.000413
508 0.000420
509 0.000425
510 0.000429
511 0.000431
512 0.000434
513 0.000436
514 0.000435
515 0.000436
516 0.000433
517 0.000430
518 0.000423
519 0.000416
520 0.000412
521 0.000405
522 0.000400
523 0.000399
524 0.000393
525 0.000389
526 0.000390
527 0.000392
528 0.000393
529 0.000396
530 0.000396
531 0.000399
532 0.000404
533 0.000413
534 0.000419
535 0.000420
536 0.000420
537 0.000421
538 0.000419
539 0.000417
540 0.000417
541 0.000416
542 0.000416
543 0.000417
544 0.000417
545 0.000417
546 0.000414
547 0.000415
548 0.000418
549 0.000420
550 0.000418
551 0.000418
552 0.000416
553 0.000417
554 0.000417
555 0.000420
556 0.000424
557 0.000430
558 0.000431
559 0.000431
560 0.000431
561 0.000430
562 0.000430
563 0.000433
564 0.000436
565 0.000436
566 0.000434
567 0.000433
568 0.000430
569 0.000427
570 0.000426
571 0.000427
572 0.000427
573 0.000426
574 0.000421
575 0.000417
576 0.000411
577 0.000406
578 0.000399
579 0.000395
580 0.000392
581 0.000392
582 0.000391
583 0.000393
584 0.000393
585 0.000395
586 0.000396
587 0.000395
588 0.000397
589 0.000401
590 0.000404
591 0.000404
592 0.000400
593 0.000399
594 0.000401
595 0.000402
596 0.000403
597 0.000399
598 0.000394
599 0.000388
600 0.000384
601 0.000379
602 0.000372
603 0.000368
604 0.000367
605 0.000369
606 0.000371
607 0.000375
608 0.000380
609 0.000382
610 0.000380
611 0.000381
612 0.000382
613 0.000380
614 0.000379
615 0.000375
616 0.000372
617 0.000370
618 0.000365
619 0.000363
620 0.000361
621 0.000357
622 0.000355
623 0.000349
624 0.000341
625 0.000334
626 0.000327
627 0.000322
628 0.000323
629 0.000322
630 0.000320
631 0.000320
632 0.000320
633 0.000320
634 0.000323
635 0.000326
636 0.000326
637 0.000323
638 0.000322
639 0.000321
640 0.000321
641 0.000321
642 0.000320
643 0.000319
644 0.000318
645 0.000318
646 0.000318
647 0.000318
648 0.000317
649 0.000314
650 0.000315
651 0.000315
652 0.000314
653 0.000312
654 0.000305
655 0.000300
656 0.000296
657 0.000291
658 0.000283
659 0.000276
660 0.000274
661 0.000273
662 0.000274
663 0.000273
664 0.000274
665 0.000275
666 0.000278
667 0.000279
668 0.000279
669 0.000277
670 0.000273
671 0.000267
672 0.000264
673 0.000263
674 0.000265
675 0.000266
676 0.000268
677 0.000267
678 0.000266
679 0.000265
680 0.000264
681 0.000261
682 0.000257
683 0.000253
684 0.000245
685 0.000237
686 0.000230
687 0.000226
688 0.000225
689 0.000222
690 0.000222
691 0.000221
692 0.000227
693 0.000229
694 0.000230
695 0.000232
696 0.000232
697 0.000233
698 0.000237
699 0.000237
700 0.000233
701 0.000229
702 0.000225
703 0.000221
704 0.000220
705 0.000217
706 0.000215
707 0.000217
708 0.000216
709 0.000215
710 0.000214
711 0.000212
712 0.000211
713 0.000209
714 0.000204
715 0.000198
716 0.000193
717 0.000186
718 0.000182
719 0.000181
720 0.000179
721 0.000181
722 0.000182
723 0.000185
724 0.000191
725 0.000194
726 0.000196
727 0.000195
728 0.000189
729 0.000184
730 0.000177
731 0.000173
732 0.000172
733 0.000169
734 0.000165
735 0.000160
736 0.000156
737 0.000152
738 0.000148
739 0.000143
740 0.000139
741 0.000135
742 0.000132
743 0.000128
744 0.000124
745 0.000121
746 0.000116
747 0.000113
748 0.000113
749 0.000115
750 0.000116
751 0.000115
752 0.000115
753 0.000111
754 0.000111
755 0.000114
756 0.000116
757 0.000118
758 0.000118
759 0.000119
760 0.000119
761 0.000115
762 0.000112
763 0.000109
764 0.000105
765 0.000102
766 0.000099
767 0.000096
768 0.000095
769 0.000093
770 0.000090
771 0.000085
772 0.000079
773 0.000075
774 0.000073
775 0.000069
776 0.000064
777 0.000059
778 0.000056
779 0.000053
780 0.000050
781 0.000050
782 0.000048
783 0.000049
784 0.000049
785 0.000049
786 0.000048
787 0.000048
788 0.000047
789 0.000046
790 0.000045
791 0.000046
792 0.000046
793 0.000046
794 0.000047
795 0.000050
796 0.000051
797 0.000052
798 0.000051
799 0.000050
800 0.000052
801 0.000053
802 0.000055
803 0.000057
804 0.000057
805 0.000059
806 0.000060
807 0.000061
808 0.000061
809 0.000062
