# i correlation
1 0.001394
2 0.001358
3 0.001325
4 0.001298
5 0.001274
6 0.001254
7 0.001239
8 0.001224
9 0.001212
10 0.001197
11 0.001189
12 0.001179
13 0.001171
14 0.001165
15 0.001153
16 0.001142
17 0.001131
18 0.001118
19 0.001103
20 0.001094
21 0.001085
22 0.001076
23 0.001069
24 0.001063
25 0.001060
26 0.001054
27 0.001046
28 0.001035
29 0.001030
30 0.001027
31 0.001020
32 0.001008
33 0.000997
34 0.000990
35 0.000985
36 0.000979
37 0.000971
38 0.000962
39 0.000955
40 0.000949
41 0.000942
42 0.000934
43 0.000924
44 0.000918
45 0.000911
46 0.000907
47 0.000906
48 0.000904
49 0.000906
50 0.000905
51 0.000901
52 0.000895
53 0.000886
54 0.000876
55 0.000872
56 0.000872
57 0.000870
58 0.000867
59 0.000863
60 0.000865
61 0.000871
62 0.000873
63 0.000876
64 0.000878
65 0.000879
66 0.000877
67 0.000874
68 0.000867
69 0.000861
70 0.000858
71 0.000853
72 0.000848
73 0.000843
74 0.000834
75 0.000828
76 0.000819
77 0.000810
78 0.000805
79 0.000800
80 0.000792
81 0.000787
82 0.000780
83 0.000776
84 0.000773
85 0.000770
86 0.000769
87 0.000768
88 0.000766
89 0.000760
90 0.000754
91 0.000748
92 0.000742
93 0.000739
94 0.000733
95 0.000729
96 0.000730
97 0.000727
98 0.000728
99 0.000727
100 0.000728
101 0.000728
102 0.000729
103 0.000724
104 0.000723
105 0.000719
106 0.000713
107 0.000708
108 0.000701
109 0.000695
110 0.000688
111 0.000685
112 0.000683
113 0.000684
114 0.000681
115 0.000674
116 0.000667
117 0.000662
118 0.000656
119 0.000651
120 0.000649
121 0.000646
122 0.000641
123 0.000633
124 0.000628
125 0.000623
126 0.000621
127 0.000620
128 0.000621
129 0.000617
130 0.000609
131 0.000605
132 0.000600
133 0.000595
134 0.000591
135 0.000585
136 0.000580
137 0.000574
138 0.000569
139 0.000563
140 0.000559
141 0.000554
142 0.000552
143 0.000550
144 0.000550
145 0.000551
146 0.000554
147 0.000555
148 0.000556
149 0.000556
150 0.000555
151 0.000556
152 0.000555
153 0.000556
154 0.000554
155 0.000549
156 0.000544
157 0.000540
158 0.000532
159 0.000528
160 0.000523
161 0.000520
162 0.000519
163 0.000520
164 0.000522
165 0.000520
166 0.000519
167 0.000518
168 0.000520
169 0.000521
170 0.000523
171 0.000525
172 0.000529
173 0.000533
174 0.000537
175 0.000539
176 0.000539
177 0.000539
178 0.000536
179 0.000532
180 0.000532
181 0.000530
182 0.000530
183 0.000530
184 0.000532
185 0.000532
186 0.000528
187 0.000529
188 0.000529
189 0.000534
190 0.000536
191 0.000535
192 0.000532
193 0.000528
194 0.000523
195 0.000518
196 0.000513
197 0.000509
198 0.000512
199 0.000509
200 0.000508
201 0.000510
202 0.000508
203 0.000508
204 0.000505
205 0.000502
206 0.000500
207 0.000498
208 0.000495
209 0.000494
210 0.000492
211 0.000485
212 0.000484
213 0.000483
214 0.000486
215 0.000492
216 0.000494
217 0.000494
218 0.000492
219 0.000490
220 0.000492
221 0.000490
222 0.000483
223 0.000475
224 0.000471
225 0.000467
226 0.000463
227 0.000459
228 0.000457
229 0.000456
230 0.000450
231 0.000447
232 0.000444
233 0.000440
234 0.000438
235 0.000435
236 0.000428
237 0.000424
238 0.000422
239 0.000423
240 0.000429
241 0.000432
242 0.000437
243 0.000435
244 0.000433
245 0.000430
246 0.000427
247 0.000423
248 0.000419
249 0.000414
250 0.000413
251 0.000418
252 0.000420
253 0.000420
254 0.000420
255 0.000421
256 0.000423
257 0.000422
258 0.000421
259 0.000419
260 0.000413
261 0.000408
262 0.000406
263 0.000403
264 0.000398
265 0.000393
266 0.000387
267 0.000384
268 0.000383
269 0.000382
270 0.000384
271 0.000389
272 0.000388
273 0.000390
274 0.000390
275 0.000391
276 0.000394
277 0.000397
278 0.000398
279 0.000399
280 0.000396
281 0.000397
282 0.000393
283 0.000389
284 0.000384
285 0.000383
286 0.000377
287 0.000375
288 0.000377
289 0.000376
290 0.000372
291 0.000373
292 0.000371
293 0.000371
294 0.000367
295 0.000359
296 0.000352
297 0.000343
298 0.000334
299 0.000327
300 0.000322
301 0.000323
302 0.000322
303 0.000321
304 0.000319
305 0.000319
306 0.000316
307 0.000313
308 0.000313
309 0.000309
310 0.000306
311 0.000304
312 0.000300
313 0.000296
314 0.000294
315 0.000294
316 0.000291
317 0.000286
318 0.000288
319 0.000290
320 0.000293
321 0.000293
322 0.000295
323 0.000296
324 0.000293
325 0.000292
326 0.000289
327 0.000285
328 0.000286
329 0.000287
330 0.000286
331 0.000283
332 0.000277
333 0.000271
334 0.000267
335 0.000265
336 0.000267
337 0.000270
338 0.000271
339 0.000270
340 0.000268
341 0.000271
342 0.000276
343 0.000277
344 0.000281
345 0.000284
346 0.000284
347 0.000282
348 0.000281
349 0.000282
350 0.000281
351 0.000280
352 0.000281
353 0.000280
354 0.000283
355 0.000286
356 0.000289
357 0.000290
358 0.000288
359 0.000287
360 0.000285
361 0.000282
362 0.000280
363 0.000277
364 0.000274
365 0.000273
366 0.000276
367 0.000277
368 0.000278
369 0.000277
370 0.000276
371 0.000277
372 0.000276
373 0.000273
374 0.000271
375 0.000268
376 0.000265
377 0.000262
378 0.000257
379 0.000257
380 0.000257
381 0.000258
382 0.000256
383 0.000256
384 0.000254
385 0.000256
386 0.000255
387 0.000254
388 0.000254
389 0.000255
390 0.000258
391 0.000260
392 0.000265
393 0.000270
394 0.000273
395 0.000274
396 0.000275
397 0.000276
398 0.000278
399 0.000280
400 0.000280
401 0.000283
402 0.000288
403 0.000289
404 0.000288
405 0.000289
406 0.000292
407 0.000296
408 0.000297
409 0.000299
410 0.000301
411 0.000301
412 0.000300
413 0.000298
414 0.000296
415 0.000292
416 0.000291
417 0.000289
418 0.000287
419 0.000284
420 0.000282
421 0.000280
422 0.000282
423 0.000284
424 0.000287
425 0.000289
426 0.000290
427 0.000292
428 0.000291
429 0.000295
430 0.000297
431 0.000298
432 0.000300
433 0.000301
434 0.000301
435 0.000300
436 0.000299
437 0.000300
438 0.000299
439 0.000295
440 0.000294
441 0.000295
442 0.000298
443 0.000298
444 0.000299
445 0.000298
446 0.000298
447 0.000299
448 0.000298
449 0.000299
450 0.000299
451 0.000300
452 0.000298
453 0.000298
454 0.000299
455 0.000300
456 0.000302
457 0.000306
458 0.000310
459 0.000311
460 0.000312
461 0.000312
462 0.000310
463 0.000307
464 0.000302
465 0.000300
466 0.000299
467 0.000298
468 0.000296
469 0.000296
470 0.000294
471 0.000293
472 0.000295
473 0.000297
474 0.000299
475 0.000299
476 0.000300
477 0.000300
478 0.000300
479 0.000299
480 0.000297
481 0.000299
482 0.000297
483 0.000298
484 0.000293
485 0.000289
486 0.000284
487 0.000281
488 0.000279
489 0.000274
490 0.000273
491 0.000272
492 0.000274
493 0.000274
494 0.000274
495 0.000272
496 0.000270
497 0.000272
498 0.000272
499 0.000272
500 0.000269
501 0.000262
502 0.000258
503 0.000256
504 0.000255
505 0.000257
506 0.000258
507 0.000258
508 0.000261
509 0.000262
510 0.000263
511 0.000265
512 0.000265
513 0.000265
514 0.000266
515 0.000263
516 0.000260
517 0.000259
518 0.000260
519 0.000262
520 0.000263
521 0.000263
522 0.000267
523 0.000270
524 0.000266
525 0.000262
526 0.000255
527 0.000252
528 0.000248
529 0.000247
530 0.000247
531 0.000244
532 0.000243
533 0.000240
534 0.000240
535 0.000241
536 0.000242
537 0.000240
538 0.000240
539 0.000243
540 0.000245
541 0.000247
542 0.000248
543 0.000252
544 0.000260
545 0.000266
546 0.000276
547 0.000283
548 0.000285
549 0.000287
550 0.000287
551 0.000284
552 0.000283
553 0.000282
554 0.000283
555 0.000286
556 0.000286
557 0.000285
558 0.000286
559 0.000288
560 0.000286
561 0.000283
562 0.000281
563 0.000281
564 0.000284
565 0.000284
566 0.000285
567 0.000281
568 0.000275
569 0.000273
570 0.000275
571 0.000276
572 0.000278
573 0.000278
574 0.000278
575 0.000278
576 0.000279
577 0.000279
578 0.000276
579 0.000275
580 0.000275
581 0.000277
582 0.000279
583 0.000282
584 0.000287
585 0.000290
586 0.000293
587 0.000294
588 0.000294
589 0.000291
590 0.000287
591 0.000278
592 0.000272
593 0.000267
594 0.000264
595 0.000262
596 0.000263
597 0.000264
598 0.000260
599 0.000257
600 0.000256
601 0.000258
602 0.000257
603 0.000257
604 0.000256
605 0.000252
606 0.000249
607 0.000246
608 0.000241
609 0.000240
610 0.000241
611 0.000241
612 0.000242
613 0.000242
614 0.000245
615 0.000245
616 0.000246
617 0.000245
618 0.000244
619 0.000243
620 0.000240
621 0.000239
622 0.000241
623 0.000241
624 0.000242
625 0.000242
626 0.000242
627 0.000245
628 0.000243
629 0.000240
630 0.000238
631 0.000237
632 0.000236
633 0.000234
634 0.000232
635 0.000230
636 0.000228
637 0.000227
638 0.000226
639 0.000226
640 0.000227
641 0.000226
642 0.000228
643 0.000232
644 0.000235
645 0.000237
646 0.000239
647 0.000241
648 0.000243
649 0.000244
650 0.000245
651 0.000248
652 0.000250
653 0.000252
654 0.000253
655 0.000250
656 0.000248
657 0.000246
658 0.000244
659 0.000242
660 0.000241
661 0.000239
662 0.000236
663 0.000234
664 0.000232
665 0.000229
666 0.000228
667 0.000229
668 0.000232
669 0.000232
670 0.000231
671 0.000232
672 0.000236
673 0.000239
674 0.000241
675 0.000244
676 0.000245
677 0.000244
678 0.000244
679 0.000246
680 0.000247
681 0.000251
682 0.000255
683 0.000255
684 0.000255
685 0.000257
686 0.000257
687 0.000257
688 0.000260
689 0.000263
690 0.000263
691 0.000263
692 0.000261
693 0.000262
694 0.000262
695 0.000263
696 0.000262
697 0.000261
698 0.000261
699 0.000260
700 0.000259
701 0.000255
702 0.000253
703 0.000252
704 0.000251
705 0.000248
706 0.000243
707 0.000240
708 0.000236
709 0.000231
710 0.000228
711 0.000227
712 0.000226
713 0.000224
714 0.000223
715 0.000219
716 0.000217
717 0.000213
718 0.000211
719 0.000207
720 0.000203
721 0.000200
722 0.000195
723 0.000193
724 0.000188
725 0.000183
726 0.000176
727 0.000168
728 0.000161
729 0.000156
730 0.000152
731 0.000149
732 0.000146
733 0.000144
734 0.000144
735 0.000143
736 0.000140
737 0.000141
738 0.000140
739 0.000141
740 0.000140
741 0.000137
742 0.000136
743 0.000135
744 0.000134
745 0.000134
746 0.000133
747 0.000131
748 0.000131
749 0.000130
750 0.000131
751 0.000134
752 0.000135
753 0.000136
754 0.000138
755 0.000140
756 0.000142
757 0.000142
758 0.000141
759 0.000141
760 0.000143
761 0.000143
762 0.000143
763 0.000140
764 0.000141
765 0.000142
766 0.000141
767 0.000141
768 0.000140
769 0.000140
770 0.000140
771 0.000139
772 0.000139
773 0.000139
774 0.000142
775 0.000143
776 0.000142
777 0.000138
778 0.000135
779 0.000133
780 0.000129
781 0.000126
782 0.000124
783 0.000119
784 0.000115
785 0.000112
786 0.000112
787 0.000112
788 0.000110
789 0.000109
790 0.000106
791 0.000105
792 0.000103
793 0.000100
794 0.000097
795 0.000097
796 0.000097
797 0.000097
798 0.000095
799 0.000095
800 0.000095
801 0.000094
802 0.000093
803 0.000093
804 0.000091
805 0.000089
806 0.000088
807 0.000087
808 0.000084
809 0.000079
