# i correlation
1 0.001883
2 0.001842
3 0.001805
4 0.001777
5 0.001750
6 0.001727
7 0.001703
8 0.001683
9 0.001657
10 0.001637
11 0.001614
12 0.001591
13 0.001570
14 0.001553
15 0.001535
16 0.001521
17 0.001515
18 0.001509
19 0.001509
20 0.001506
21 0.001504
22 0.001507
23 0.001507
24 0.001502
25 0.001503
26 0.001504
27 0.001504
28 0.001498
29 0.001493
30 0.001488
31 0.001479
32 0.001470
33 0.001462
34 0.001450
35 0.001436
36 0.001422
37 0.001410
38 0.001398
39 0.001387
40 0.001373
41 0.001359
42 0.001350
43 0.001346
44 0.001345
45 0.001348
46 0.001346
47 0.001344
48 0.001345
49 0.001348
50 0.001351
51 0.001348
52 0.001344
53 0.001339
54 0.001339
55 0.001337
56 0.001334
57 0.001329
58 0.001326
59 0.001324
60 0.001327
61 0.001327
62 0.001328
63 0.001326
64 0.001325
65 0.001320
66 0.001310
67 0.001301
68 0.001297
69 0.001292
70 0.001290
71 0.001284
72 0.001279
73 0.001276
74 0.001271
75 0.001269
76 0.001269
77 0.001266
78 0.001266
79 0.001264
80 0.001262
81 0.001260
82 0.001255
83 0.001255
84 0.001248
85 0.001241
86 0.001236
87 0.001237
88 0.001235
89 0.001231
90 0.001223
91 0.001214
92 0.001204
93 0.001197
94 0.001191
95 0.001191
96 0.001186
97 0.001185
98 0.001181
99 0.001176
100 0.001171
101 0.001164
102 0.001156
103 0.001151
104 0.001145
105 0.001137
106 0.001131
107 0.001127
108 0.001125
109 0.001124
110 0.001118
111 0.001109
112 0.001101
113 0.001096
114 0.001091
115 0.001087
116 0.001080
117 0.001077
118 0.001076
119 0.001076
120 0.001074
121 0.001072
122 0.001068
123 0.001065
124 0.001059
125 0.001055
126 0.001053
127 0.001055
128 0.001055
129 0.001053
130 0.001056
131 0.001054
132 0.001049
133 0.001043
134 0.001036
135 0.001033
136 0.001032
137 0.001030
138 0.001027
139 0.001025
140 0.001023
141 0.001019
142 0.001016
143 0.001014
144 0.001008
145 0.001003
146 0.000999
147 0.000999
148 0.000999
149 0.001000
150 0.000999
151 0.000995
152 0.000992
153 0.000992
154 0.000991
155 0.000987
156 0.000985
157 0.000985
158 0.000987
159 0.000990
160 0.000990
161 0.000985
162 0.000980
163 0.000974
164 0.000969
165 0.000970
166 0.000972
167 0.000972
168 0.000972
169 0.000972
170 0.000970
171 0.000961
172 0.000957
173 0.000955
174 0.000953
175 0.000953
176 0.000953
177 0.000952
178 0.000949
179 0.000948
180 0.000948
181 0.000948
182 0.000952
183 0.000954
184 0.000955
185 0.000955
186 0.000956
187 0.000959
188 0.000958
189 0.000958
190 0.000958
191 0.000954
192 0.000953
193 0.000950
194 0.000947
195 0.000946
196 0.000942
197 0.000937
198 0.000931
199 0.000927
200 0.000923
201 0.000922
202 0.000921
203 0.000920
204 0.000919
205 0.000918
206 0.000915
207 0.000912
208 0.000912
209 0.000910
210 0.000911
211 0.000910
212 0.000910
213 0.000915
214 0.000918
215 0.000920
216 0.000918
217 0.000914
218 0.000912
219 0.000909
220 0.000904
221 0.000899
222 0.000897
223 0.000895
224 0.000894
225 0.000889
226 0.000884
227 0.000879
228 0.000871
229 0.000864
230 0.000856
231 0.000847
232 0.000841
233 0.000834
234 0.000830
235 0.000830
236 0.000833
237 0.000836
238 0.000834
239 0.000831
240 0.000829
241 0.000822
242 0.000814
243 0.000804
244 0.000801
245 0.000798
246 0.000798
247 0.000797
248 0.000796
249 0.000795
250 0.000793
251 0.000789
252 0.000786
253 0.000784
254 0.000783
255 0.000784
256 0.000784
257 0.000787
258 0.000789
259 0.000791
260 0.000790
261 0.000783
262 0.000779
263 0.000781
264 0.000775
265 0.000775
266 0.000774
267 0.000777
268 0.000776
269 0.000775
270 0.000774
271 0.000771
272 0.000769
273 0.000770
274 0.000767
275 0.000767
276 0.000763
277 0.000764
278 0.000766
279 0.000770
280 0.000770
281 0.000769
282 0.000767
283 0.000765
284 0.000765
285 0.000766
286 0.000768
287 0.000771
288 0.000774
289 0.000776
290 0.000771
291 0.000760
292 0.000749
293 0.000739
294 0.000731
295 0.000724
296 0.000720
297 0.000717
298 0.000712
299 0.000709
300 0.000710
301 0.000709
302 0.000711
303 0.000709
304 0.000712
305 0.000716
306 0.000716
307 0.000716
308 0.000721
309 0.000725
310 0.000729
311 0.000729
312 0.000726
313 0.000722
314 0.000719
315 0.000715
316 0.000709
317 0.000705
318 0.000698
319 0.000690
320 0.000679
321 0.000666
322 0.000660
323 0.000654
324 0.000649
325 0.000648
326 0.000642
327 0.000644
328 0.000643
329 0.000644
330 0.000641
331 0.000639
332 0.000639
333 0.000642
334 0.000643
335 0.000648
336 0.000651
337 0.000651
338 0.000650
339 0.000647
340 0.000643
341 0.000636
342 0.000631
343 0.000626
344 0.000623
345 0.000619
346 0.000615
347 0.000610
348 0.000604
349 0.000599
350 0.000597
351 0.000594
352 0.000593
353 0.000591
354 0.000594
355 0.000602
356 0.000609
357 0.000613
358 0.000616
359 0.000622
360 0.000627
361 0.000630
362 0.000636
363 0.000639
364 0.000642
365 0.000645
366 0.000649
367 0.000651
368 0.000652
369 0.000650
370 0.000646
371 0.000640
372 0.000636
373 0.000627
374 0.000619
375 0.000610
376 0.000605
377 0.000604
378 0.000601
379 0.000596
380 0.000591
381 0.000586
382 0.000581
383 0.000574
384 0.000571
385 0.000570
386 0.000567
387 0.000566
388 0.000567
389 0.000570
390 0.000571
391 0.000570
392 0.000569
393 0.000567
394 0.000567
395 0.000565
396 0.000563
397 0.000561
398 0.000559
399 0.000558
400 0.000556
401 0.000553
402 0.000547
403 0.000542
404 0.000538
405 0.000536
406 0.000533
407 0.000529
408 0.000527
409 0.000525
410 0.000524
411 0.000524
412 0.000521
413 0.000519
414 0.000517
415 0.000516
416 0.000518
417 0.000521
418 0.000526
419 0.000531
420 0.000531
421 0.000532
422 0.000529
423 0.000530
424 0.000531
425 0.000530
426 0.000530
427 0.000532
428 0.000535
429 0.000539
430 0.000540
431 0.000543
432 0.000547
433 0.000548
434 0.000546
435 0.000546
436 0.000544
437 0.000546
438 0.000550
439 0.000555
440 0.000556
441 0.000559
442 0.000562
443 0.000562
444 0.000563
445 0.000564
446 0.000564
447 0.000564
448 0.000561
449 0.000558
450 0.000556
451 0.000552
452 0.000547
453 0.000540
454 0.000537
455 0.000539
456 0.000536
457 0.000534
458 0.000529
459 0.000528
460 0.000525
461 0.000525
462 0.000526
463 0.000528
464 0.000532
465 0.000535
466 0.000537
467 0.000538
468 0.000540
469 0.000544
470 0.000550
471 0.000555
472 0.000557
473 0.000559
474 0.000561
475 0.000562
476 0.000564
477 0.000565
478 0.000567
479 0.000565
480 0.000559
481 0.000553
482 0.000549
483 0.000544
484 0.000541
485 0.000537
486 0.000534
487 0.000530
488 0.000525
489 0.000524
490 0.000522
491 0.000517
492 0.000516
493 0.000513
494 0.000514
495 0.000515
496 0.000516
497 0.000518
498 0.000518
499 0.000517
500 0.000516
501 0.000514
502 0.000511
503 0.000510
504 0.000510
505 0.000510
506 0.000505
507 0.000500
508 0.000495
509 0.000494
510 0.000490
511 0.000486
512 0.000483
513 0.000479
514 0.000473
515 0.000471
516 0.000467
517 0.000463
518 0.000459
519 0.000456
520 0.000454
521 0.000454
522 0.000455
523 0.000457
524 0.000461
525 0.000469
526 0.000477
527 0.000480
528 0.000482
529 0.000479
530 0.000476
531 0.000472
532 0.000471
533 0.000468
534 0.000465
535 0.000461
536 0.000454
537 0.000444
538 0.000439
539 0.000434
540 0.000430
541 0.000425
542 0.000424
543 0.000419
544 0.000418
545 0.000417
546 0.000420
547 0.000423
548 0.000426
549 0.000429
550 0.000435
551 0.000440
552 0.000444
553 0.000446
554 0.000454
555 0.000458
556 0.000459
557 0.000461
558 0.000464
559 0.000468
560 0.000469
561 0.000471
562 0.000470
563 0.000467
564 0.000466
565 0.000465
566 0.000463
567 0.000462
568 0.000462
569 0.000463
570 0.000459
571 0.000456
572 0.000453
573 0.000453
574 0.000452
575 0.000452
576 0.000449
577 0.000448
578 0.000446
579 0.000446
580 0.000443
581 0.000438
582 0.000433
583 0.000429
584 0.000426
585 0.000425
586 0.000424
587 0.000423
588 0.000420
589 0.000413
590 0.000409
591 0.000406
592 0.000406
593 0.000405
594 0.000403
595 0.000400
596 0.000399
597 0.000398
598 0.000399
599 0.000397
600 0.000395
601 0.000390
602 0.000385
603 0.000379
604 0.000377
605 0.000374
606 0.000372
607 0.000368
608 0.000367
609 0.000363
610 0.000359
611 0.000353
612 0.000348
613 0.000349
614 0.000353
615 0.000356
616 0.000358
617 0.000357
618 0.000356
619 0.000357
620 0.000357
621 0.000356
622 0.000358
623 0.000362
624 0.000364
625 0.000366
626 0.000365
627 0.000364
628 0.000363
629 0.000362
630 0.000362
631 0.000362
632 0.000362
633 0.000362
634 0.000364
635 0.000365
636 0.000361
637 0.000360
638 0.000357
639 0.000353
640 0.000348
641 0.000348
642 0.000347
643 0.000346
644 0.000348
645 0.000350
646 0.000348
647 0.000349
648 0.000348
649 0.000348
650 0.000345
651 0.000342
652 0.000341
653 0.000338
654 0.000337
655 0.000338
656 0.000338
657 0.000339
658 0.000340
659 0.000338
660 0.000337
661 0.000338
662 0.000333
663 0.000326
664 0.000320
665 0.000318
666 0.000315
667 0.000310
668 0.000308
669 0.000308
670 0.000306
671 0.000304
672 0.000300
673 0.000297
674 0.000294
675 0.000292
676 0.000287
677 0.000285
678 0.000283
679 0.000284
680 0.000282
681 0.000280
682 0.000278
683 0.000276
684 0.000276
685 0.000275
686 0.000274
687 0.000271
688 0.000270
689 0.000268
690 0.000265
691 0.000265
692 0.000264
693 0.000263
694 0.000264
695 0.000265
696 0.000266
697 0.000266
698 0.000269
699 0.000271
700 0.000271
701 0.000271
702 0.000270
703 0.000268
704 0.000268
705 0.000269
706 0.000268
707 0.000264
708 0.000260
709 0.000257
710 0.000256
711 0.000254
712 0.000249
713 0.000243
714 0.000236
715 0.000230
716 0.000226
717 0.000225
718 0.000224
719 0.000221
720 0.000216
721 0.000214
722 0.000211
723 0.000212
724 0.000212
725 0.000211
726 0.000207
727 0.000205
728 0.000205
729 0.000207
730 0.000208
731 0.000208
732 0.000208
733 0.000209
734 0.000210
735 0.000211
736 0.000213
737 0.000213
738 0.000212
739 0.000211
740 0.000208
741 0.000206
742 0.000201
743 0.000200
744 0.000201
745 0.000201
746 0.000201
747 0.000198
748 0.000198
749 0.000198
750 0.000198
751 0.000196
752 0.000195
753 0.000195
754 0.000195
755 0.000195
756 0.000198
757 0.000199
758 0.000200
759 0.000200
760 0.000202
761 0.000202
762 0.000203
763 0.000204
764 0.000203
765 0.000201
766 0.000202
767 0.000203
768 0.000205
769 0.000205
770 0.000204
771 0.000202
772 0.000199
773 0.000198
774 0.000199
775 0.000200
776 0.000199
777 0.000199
778 0.000199
779 0.000202
780 0.000203
781 0.000204
782 0.000207
783 0.000208
784 0.000209
785 0.000209
786 0.000207
787 0.000204
788 0.000204
789 0.000204
790 0.000201
791 0.000199
792 0.000196
793 0.000195
794 0.000195
795 0.000192
796 0.000189
797 0.000184
798 0.000182
799 0.000183
800 0.000182
801 0.000183
802 0.000182
803 0.000180
804 0.000178
805 0.000179
806 0.000179
807 0.000180
808 0.000180
809 0.000180
