# i correlation
1 0.001565
2 0.001521
3 0.001484
4 0.001448
5 0.001421
6 0.001400
7 0.001381
8 0.001364
9 0.001349
10 0.001334
11 0.001315
12 0.001297
13 0.001277
14 0.001257
15 0.001237
16 0.001222
17 0.001208
18 0.001191
19 0.001179
20 0.001168
21 0.001161
22 0.001159
23 0.001152
24 0.001143
25 0.001136
26 0.001130
27 0.001125
28 0.001122
29 0.001119
30 0.001113
31 0.001110
32 0.001109
33 0.001106
34 0.001101
35 0.001100
36 0.001098
37 0.001091
38 0.001084
39 0.001077
40 0.001070
41 0.001062
42 0.001051
43 0.001042
44 0.001036
45 0.001033
46 0.001030
47 0.001022
48 0.001016
49 0.001008
50 0.000999
51 0.000994
52 0.000994
53 0.000994
54 0.000993
55 0.000998
56 0.001005
57 0.001010
58 0.001013
59 0.001007
60 0.001001
61 0.000997
62 0.000997
63 0.000995
64 0.000992
65 0.000985
66 0.000978
67 0.000974
68 0.000968
69 0.000964
70 0.000960
71 0.000953
72 0.000947
73 0.000938
74 0.000929
75 0.000925
76 0.000920
77 0.000914
78 0.000907
79 0.000898
80 0.000890
81 0.000879
82 0.000868
83 0.000862
84 0.000857
85 0.000851
86 0.000851
87 0.000851
88 0.000852
89 0.000856
90 0.000854
91 0.000849
92 0.000845
93 0.000842
94 0.000838
95 0.000833
96 0.000829
97 0.000829
98 0.000831
99 0.000832
100 0.000826
101 0.000820
102 0.000811
103 0.000800
104 0.000792
105 0.000786
106 0.000778
107 0.000771
108 0.000767
109 0.000764
110 0.000760
111 0.000759
112 0.000756
113 0.000751
114 0.000743
115 0.000733
116 0.000725
117 0.000719
118 0.000718
119 0.000719
120 0.000720
121 0.000723
122 0.000725
123 0.000727
124 0.000720
125 0.000716
126 0.000716
127 0.000712
128 0.000713
129 0.000709
130 0.000706
131 0.000704
132 0.000702
133 0.000704
134 0.000707
135 0.000707
136 0.000703
137 0.000700
138 0.000691
139 0.000684
140 0.000675
141 0.000666
142 0.000664
143 0.000658
144 0.000654
145 0.000655
146 0.000653
147 0.000648
148 0.000642
149 0.000636
150 0.000629
151 0.000623
152 0.000611
153 0.000600
154 0.000593
155 0.000590
156 0.000589
157 0.000586
158 0.000584
159 0.000583
160 0.000582
161 0.000578
162 0.000574
163 0.000571
164 0.000567
165 0.000563
166 0.000558
167 0.000553
168 0.000554
169 0.000556
170 0.000560
171 0.000564
172 0.000559
173 0.000556
174 0.000554
175 0.000554
176 0.000557
177 0.000560
178 0.000564
179 0.000567
180 0.000566
181 0.000564
182 0.000565
183 0.000568
184 0.000571
185 0.000573
186 0.000573
187 0.000575
188 0.000580
189 0.000578
190 0.000579
191 0.000577
192 0.000574
193 0.000572
194 0.000572
195 0.000569
196 0.000571
197 0.000571
198 0.000568
199 0.000566
200 0.000563
201 0.000560
202 0.000558
203 0.000556
204 0.000549
205 0.000545
206 0.000546
207 0.000546
208 0.000545
209 0.000545
210 0.000548
211 0.000546
212 0.000546
213 0.000550
214 0.000548
215 0.000549
216 0.000549
217 0.000548
218 0.000548
219 0.000546
220 0.000543
221 0.000539
222 0.000532
223 0.000527
224 0.000520
225 0.000518
226 0.000517
227 0.000516
228 0.000517
229 0.000519
230 0.000516
231 0.000517
232 0.000521
233 0.000519
234 0.000517
235 0.000521
236 0.000519
237 0.000516
238 0.000514
239 0.000512
240 0.000510
241 0.000510
242 0.000509
243 0.000509
244 0.000505
245 0.000504
246 0.000509
247 0.000511
248 0.000514
249 0.000514
250 0.000507
251 0.000503
252 0.000495
253 0.000489
254 0.000490
255 0.000487
256 0.000484
257 0.000480
258 0.000475
259 0.000470
260 0.000466
261 0.000461
262 0.000458
263 0.000451
264 0.000447
265 0.000443
266 0.000438
267 0.000436
268 0.000437
269 0.000433
270 0.000431
271 0.000431
272 0.000430
273 0.000430
274 0.000427
275 0.000423
276 0.000419
277 0.000419
278 0.000415
279 0.000408
280 0.000400
281 0.000398
282 0.000398
283 0.000400
284 0.000399
285 0.000402
286 0.000404
287 0.000410
288 0.000415
289 0.000422
290 0.000425
291 0.000428
292 0.000428
293 0.000428
294 0.000429
295 0.000429
296 0.000426
297 0.000424
298 0.000419
299 0.000420
300 0.000416
301 0.000411
302 0.000408
303 0.000405
304 0.000407
305 0.000408
306 0.000407
307 0.000407
308 0.000410
309 0.000411
310 0.000407
311 0.000403
312 0.000399
313 0.000396
314 0.000394
315 0.000393
316 0.000392
317 0.000389
318 0.000388
319 0.000387
320 0.000384
321 0.000382
322 0.000382
323 0.000380
324 0.000381
325 0.000384
326 0.000384
327 0.000384
328 0.000381
329 0.000379
330 0.000376
331 0.000375
332 0.000373
333 0.000373
334 0.000379
335 0.000382
336 0.000385
337 0.000384
338 0.000381
339 0.000382
340 0.000384
341 0.000384
342 0.000382
343 0.000379
344 0.000382
345 0.000386
346 0.000387
347 0.000389
348 0.000395
349 0.000400
350 0.000402
351 0.000407
352 0.000415
353 0.000416
354 0.000417
355 0.000418
356 0.000420
357 0.000421
358 0.000423
359 0.000425
360 0.000425
361 0.000425
362 0.000427
363 0.000426
364 0.000424
365 0.000422
366 0.000421
367 0.000421
368 0.000419
369 0.000414
370 0.000409
371 0.000407
372 0.000409
373 0.000409
374 0.000410
375 0.000411
376 0.000407
377 0.000406
378 0.000404
379 0.000402
380 0.000406
381 0.000410
382 0.000409
383 0.000409
384 0.000407
385 0.000406
386 0.000399
387 0.000395
388 0.000391
389 0.000391
390 0.000393
391 0.000395
392 0.000396
393 0.000395
394 0.000393
395 0.000388
396 0.000385
397 0.000386
398 0.000384
399 0.000381
400 0.000377
401 0.000373
402 0.000371
403 0.000369
404 0.000367
405 0.000363
406 0.000360
407 0.000358
408 0.000356
409 0.000355
410 0.000354
411 0.000355
412 0.000357
413 0.000361
414 0.000362
415 0.000360
416 0.000361
417 0.000366
418 0.000370
419 0.000378
420 0.000384
421 0.000387
422 0.000390
423 0.000390
424 0.000390
425 0.000391
426 0.000389
427 0.000387
428 0.000387
429 0.000384
430 0.000380
431 0.000379
432 0.000374
433 0.000372
434 0.000370
435 0.000369
436 0.000368
437 0.000367
438 0.000369
439 0.000369
440 0.000365
441 0.000363
442 0.000361
443 0.000356
444 0.000354
445 0.000355
446 0.000358
447 0.000359
448 0.000362
449 0.000365
450 0.000367
451 0.000368
452 0.000368
453 0.000370
454 0.000368
455 0.000366
456 0.000365
457 0.000362
458 0.000357
459 0.000353
460 0.000351
461 0.000346
462 0.000339
463 0.000330
464 0.000324
465 0.000319
466 0.000312
467 0.000309
468 0.000303
469 0.000296
470 0.000292
471 0.000285
472 0.000278
473 0.000275
474 0.000275
475 0.000273
476 0.000271
477 0.000268
478 0.000263
479 0.000261
480 0.000262
481 0.000265
482 0.000268
483 0.000271
484 0.000272
485 0.000273
486 0.000278
487 0.000279
488 0.000278
489 0.000279
490 0.000281
491 0.000285
492 0.000285
493 0.000284
494 0.000284
495 0.000281
496 0.000276
497 0.000271
498 0.000269
499 0.000268
500 0.000267
501 0.000266
502 0.000270
503 0.000277
504 0.000279
505 0.000284
506 0.000283
507 0.000280
508 0.000282
509 0.000283
510 0.000285
511 0.000288
512 0.000291
513 0.000293
514 0.000294
515 0.000300
516 0.000303
517 0.000305
518 0.000306
519 0.000305
520 0.000303
521 0.000300
522 0.000300
523 0.000298
524 0.000295
525 0.000291
526 0.000284
527 0.000278
528 0.000271
529 0.000264
530 0.000259
531 0.000253
532 0.000249
533 0.000242
534 0.000236
535 0.000232
536 0.000231
537 0.000230
538 0.000235
539 0.000239
540 0.000244
541 0.000243
542 0.000242
543 0.000244
544 0.000244
545 0.000248
546 0.000250
547 0.000253
548 0.000258
549 0.000263
550 0.000269
551 0.000273
552 0.000275
553 0.000275
554 0.000275
555 0.000274
556 0.000273
557 0.000273
558 0.000274
559 0.000275
560 0.000276
561 0.000280
562 0.000282
563 0.000280
564 0.000279
565 0.000279
566 0.000277
567 0.000273
568 0.000275
569 0.000275
570 0.000274
571 0.000275
572 0.000271
573 0.000269
574 0.000266
575 0.000262
576 0.000259
577 0.000259
578 0.000259
579 0.000258
580 0.000260
581 0.000262
582 0.000265
583 0.000267
584 0.000266
585 0.000262
586 0.000259
587 0.000257
588 0.000258
589 0.000255
590 0.000252
591 0.000249
592 0.000244
593 0.000242
594 0.000240
595 0.000241
596 0.000240
597 0.000237
598 0.000238
599 0.000236
600 0.000233
601 0.000230
602 0.000228
603 0.000226
604 0.000226
605 0.000222
606 0.000218
607 0.000215
608 0.000213
609 0.000210
610 0.000211
611 0.000208
612 0.000210
613 0.000213
614 0.000214
615 0.000213
616 0.000213
617 0.000213
618 0.000211
619 0.000209
620 0.000206
621 0.000206
622 0.000206
623 0.000205
624 0.000204
625 0.000203
626 0.000202
627 0.000199
628 0.000198
629 0.000199
630 0.000198
631 0.000198
632 0.000192
633 0.000188
634 0.000187
635 0.000187
636 0.000188
637 0.000192
638 0.000196
639 0.000199
640 0.000204
641 0.000209
642 0.000209
643 0.000208
644 0.000207
645 0.000211
646 0.000214
647 0.000217
648 0.000219
649 0.000221
650 0.000224
651 0.000228
652 0.000229
653 0.000233
654 0.000232
655 0.000229
656 0.000229
657 0.000231
658 0.000234
659 0.000240
660 0.000243
661 0.000247
662 0.000249
663 0.000247
664 0.000246
665 0.000242
666 0.000239
667 0.000240
668 0.000243
669 0.000243
670 0.000243
671 0.000244
672 0.000240
673 0.000239
674 0.000239
675 0.000238
676 0.000238
677 0.000235
678 0.000230
679 0.000227
680 0.000224
681 0.000220
682 0.000217
683 0.000212
684 0.000208
685 0.000206
686 0.000206
687 0.000210
688 0.000215
689 0.000218
690 0.000219
691 0.000217
692 0.000217
693 0.000220
694 0.000220
695 0.000220
696 0.000221
697 0.000222
698 0.000224
699 0.000230
700 0.000233
701 0.000234
702 0.000237
703 0.000237
704 0.000236
705 0.000234
706 0.000233
707 0.000227
708 0.000224
709 0.000220
710 0.000216
711 0.000214
712 0.000210
713 0.000205
714 0.000201
715 0.000197
716 0.000194
717 0.000191
718 0.000186
719 0.000181
720 0.000174
721 0.000170
722 0.000165
723 0.000161
724 0.000158
725 0.000154
726 0.000149
727 0.000146
728 0.000146
729 0.000145
730 0.000145
731 0.000145
732 0.000146
733 0.000149
734 0.000151
735 0.000152
736 0.000152
737 0.000154
738 0.000154
739 0.000153
740 0.000157
741 0.000160
742 0.000162
743 0.000163
744 0.000163
745 0.000163
746 0.000163
747 0.000164
748 0.000165
749 0.000165
750 0.000164
751 0.000166
752 0.000166
753 0.000164
754 0.000162
755 0.000158
756 0.000158
757 0.000160
758 0.000163
759 0.000165
760 0.000166
761 0.000163
762 0.000160
763 0.000158
764 0.000157
765 0.000156
766 0.000155
767 0.000154
768 0.000153
769 0.000154
770 0.000152
771 0.000150
772 0.000149
773 0.000150
774 0.000150
775 0.000151
776 0.000152
777 0.000150
778 0.000147
779 0.000147
780 0.000149
781 0.000153
782 0.000154
783 0.000153
784 0.000150
785 0.000146
786 0.000146
787 0.000146
788 0.000144
789 0.000145
790 0.000144
791 0.000145
792 0.000147
793 0.000147
794 0.000147
795 0.000144
796 0.000143
797 0.000141
798 0.000142
799 0.000139
800 0.000138
801 0.000138
802 0.000137
803 0.000137
804 0.000137
805 0.000137
806 0.000136
807 0.000132
808 0.000129
809 0.000127
