# i correlation
1 0.001740
2 0.001698
3 0.001664
4 0.001632
5 0.001607
6 0.001584
7 0.001566
8 0.001551
9 0.001535
10 0.001517
11 0.001504
12 0.001490
13 0.001483
14 0.001478
15 0.001473
16 0.001469
17 0.001463
18 0.001460
19 0.001456
20 0.001452
21 0.001442
22 0.001430
23 0.001422
24 0.001416
25 0.001406
26 0.001398
27 0.001394
28 0.001390
29 0.001390
30 0.001387
31 0.001384
32 0.001378
33 0.001370
34 0.001361
35 0.001354
36 0.001345
37 0.001337
38 0.001334
39 0.001332
40 0.001326
41 0.001320
42 0.001316
43 0.001312
44 0.001310
45 0.001307
46 0.001301
47 0.001298
48 0.001293
49 0.001284
50 0.001273
51 0.001268
52 0.001263
53 0.001257
54 0.001245
55 0.001235
56 0.001228
57 0.001221
58 0.001216
59 0.001209
60 0.001203
61 0.001195
62 0.001187
63 0.001181
64 0.001177
65 0.001178
66 0.001174
67 0.001173
68 0.001173
69 0.001169
70 0.001163
71 0.001156
72 0.001153
73 0.001153
74 0.001151
75 0.001150
76 0.001151
77 0.001147
78 0.001143
79 0.001138
80 0.001135
81 0.001130
82 0.001125
83 0.001124
84 0.001122
85 0.001115
86 0.001112
87 0.001112
88 0.001108
89 0.001103
90 0.001101
91 0.001096
92 0.001097
93 0.001098
94 0.001098
95 0.001102
96 0.001100
97 0.001102
98 0.001100
99 0.001099
100 0.001099
101 0.001094
102 0.001088
103 0.001086
104 0.001083
105 0.001073
106 0.001065
107 0.001054
108 0.001041
109 0.001029
110 0.001018
111 0.001008
112 0.001001
113 0.000995
114 0.000989
115 0.000988
116 0.000990
117 0.000993
118 0.000997
119 0.001001
120 0.001002
121 0.001004
122 0.001006
123 0.001002
124 0.000999
125 0.000991
126 0.000983
127 0.000973
128 0.000966
129 0.000957
130 0.000950
131 0.000944
132 0.000937
133 0.000932
134 0.000929
135 0.000927
136 0.000925
137 0.000927
138 0.000928
139 0.000930
140 0.000925
141 0.000919
142 0.000917
143 0.000913
144 0.000907
145 0.000903
146 0.000900
147 0.000897
148 0.000894
149 0.000888
150 0.000879
151 0.000872
152 0.000867
153 0.000861
154 0.000853
155 0.000846
156 0.000839
157 0.000833
158 0.000828
159 0.000821
160 0.000817
161 0.000814
162 0.000811
163 0.000813
164 0.000814
165 0.000813
166 0.000811
167 0.000811
168 0.000812
169 0.000815
170 0.000813
171 0.000810
172 0.000804
173 0.000803
174 0.000802
175 0.000798
176 0.000794
177 0.000792
178 0.000792
179 0.000790
180 0.000786
181 0.000778
182 0.000772
183 0.000772
184 0.000771
185 0.000770
186 0.000768
187 0.000770
188 0.000771
189 0.000771
190 0.000773
191 0.000773
192 0.000771
193 0.000773
194 0.000774
195 0.000771
196 0.000769
197 0.000768
198 0.000766
199 0.000767
200 0.000768
201 0.000765
202 0.000761
203 0.000757
204 0.000755
205 0.000752
206 0.000750
207 0.000749
208 0.000751
209 0.000751
210 0.000749
211 0.000747
212 0.000744
213 0.000738
214 0.000733
215 0.000728
216 0.000724
217 0.000722
218 0.000722
219 0.000721
220 0.000724
221 0.000727
222 0.000731
223 0.000731
224 0.000727
225 0.000730
226 0.000733
227 0.000734
228 0.000733
229 0.000734
230 0.000732
231 0.000730
232 0.000727
233 0.000722
234 0.000718
235 0.000715
236 0.000715
237 0.000718
238 0.000717
239 0.000715
240 0.000715
241 0.000717
242 0.000721
243 0.000725
244 0.000727
245 0.000730
246 0.000730
247 0.000725
248 0.000719
249 0.000714
250 0.000709
251 0.000705
252 0.000699
253 0.000695
254 0.000689
255 0.000684
256 0.000676
257 0.000671
258 0.000668
259 0.000667
260 0.000664
261 0.000666
262 0.000665
263 0.000667
264 0.000668
265 0.000666
266 0.000667
267 0.000669
268 0.000669
269 0.000668
270 0.000664
271 0.000662
272 0.000660
273 0.000661
274 0.000664
275 0.000664
276 0.000663
277 0.000662
278 0.000659
279 0.000654
280 0.000650
281 0.000648
282 0.000645
283 0.000642
284 0.000640
285 0.000634
286 0.000626
287 0.000623
288 0.000618
289 0.000611
290 0.000606
291 0.000605
292 0.000600
293 0.000598
294 0.000596
295 0.000596
296 0.000600
297 0.000605
298 0.000608
299 0.000605
300 0.000601
301 0.000601
302 0.000599
303 0.000595
304 0.000592
305 0.000587
306 0.000587
307 0.000587
308 0.000586
309 0.000585
310 0.000583
311 0.000583
312 0.000585
313 0.000586
314 0.000584
315 0.000583
316 0.000582
317 0.000581
318 0.000577
319 0.000569
320 0.000563
321 0.000555
322 0.000552
323 0.000546
324 0.000542
325 0.000540
326 0.000541
327 0.000544
328 0.000545
329 0.000545
330 0.000547
331 0.000547
332 0.000548
333 0.000548
334 0.000544
335 0.000541
336 0.000540
337 0.000537
338 0.000536
339 0.000535
340 0.000532
341 0.000529
342 0.000530
343 0.000530
344 0.000534
345 0.000539
346 0.000543
347 0.000542
348 0.000541
349 0.000540
350 0.000538
351 0.000541
352 0.000540
353 0.000540
354 0.000539
355 0.000534
356 0.000532
357 0.000531
358 0.000530
359 0.000530
360 0.000529
361 0.000530
362 0.000531
363 0.000532
364 0.000537
365 0.000539
366 0.000540
367 0.000541
368 0.000540
369 0.000539
370 0.000536
371 0.000530
372 0.000522
373 0.000518
374 0.000515
375 0.000515
376 0.000513
377 0.000516
378 0.000517
379 0.000516
380 0.000516
381 0.000514
382 0.000509
383 0.000507
384 0.000506
385 0.000505
386 0.000501
387 0.000497
388 0.000494
389 0.000488
390 0.000488
391 0.000489
392 0.000488
393 0.000488
394 0.000487
395 0.000486
396 0.000486
397 0.000488
398 0.000489
399 0.000489
400 0.000489
401 0.000487
402 0.000487
403 0.000482
404 0.000483
405 0.000483
406 0.000482
407 0.000478
408 0.000472
409 0.000471
410 0.000471
411 0.000472
412 0.000477
413 0.000480
414 0.000480
415 0.000483
416 0.000485
417 0.000482
418 0.000476
419 0.000474
420 0.000475
421 0.000474
422 0.000478
423 0.000475
424 0.000472
425 0.000466
426 0.000461
427 0.000455
428 0.000449
429 0.000445
430 0.000442
431 0.000441
432 0.000442
433 0.000445
434 0.000444
435 0.000444
436 0.000442
437 0.000439
438 0.000436
439 0.000431
440 0.000429
441 0.000427
442 0.000426
443 0.000426
444 0.000428
445 0.000432
446 0.000437
447 0.000440
448 0.000445
449 0.000449
450 0.000451
451 0.000456
452 0.000458
453 0.000460
454 0.000463
455 0.000464
456 0.000460
457 0.000457
458 0.000454
459 0.000453
460 0.000451
461 0.000449
462 0.000448
463 0.000447
464 0.000450
465 0.000452
466 0.000454
467 0.000456
468 0.000458
469 0.000457
470 0.000457
471 0.000459
472 0.000460
473 0.000458
474 0.000455
475 0.000454
476 0.000451
477 0.000449
478 0.000446
479 0.000443
480 0.000446
481 0.000449
482 0.000449
483 0.000445
484 0.000442
485 0.000440
486 0.000438
487 0.000438
488 0.000440
489 0.000441
490 0.000443
491 0.000446
492 0.000447
493 0.000447
494 0.000444
495 0.000444
496 0.000444
497 0.000445
498 0.000444
499 0.000443
500 0.000443
501 0.000440
502 0.000438
503 0.000436
504 0.000432
505 0.000429
506 0.000430
507 0.000427
508 0.000426
509 0.000428
510 0.000429
511 0.000428
512 0.000427
513 0.000423
514 0.000419
515 0.000415
516 0.000416
517 0.000416
518 0.000416
519 0.000419
520 0.000422
521 0.000423
522 0.000425
523 0.000423
524 0.000422
525 0.000419
526 0.000417
527 0.000415
528 0.000413
529 0.000412
530 0.000411
531 0.000407
532 0.000403
533 0.000401
534 0.000397
535 0.000397
536 0.000398
537 0.000397
538 0.000400
539 0.000402
540 0.000405
541 0.000406
542 0.000406
543 0.000407
544 0.000412
545 0.000413
546 0.000413
547 0.000410
548 0.000408
549 0.000409
550 0.000409
551 0.000409
552 0.000411
553 0.000411
554 0.000414
555 0.000417
556 0.000418
557 0.000417
558 0.000416
559 0.000413
560 0.000411
561 0.000406
562 0.000402
563 0.000399
564 0.000396
565 0.000394
566 0.000392
567 0.000393
568 0.000396
569 0.000402
570 0.000406
571 0.000412
572 0.000415
573 0.000418
574 0.000421
575 0.000425
576 0.000427
577 0.000422
578 0.000417
579 0.000412
580 0.000405
581 0.000398
582 0.000393
583 0.000386
584 0.000383
585 0.000383
586 0.000379
587 0.000375
588 0.000373
589 0.000374
590 0.000376
591 0.000377
592 0.000373
593 0.000370
594 0.000367
595 0.000363
596 0.000359
597 0.000357
598 0.000357
599 0.000357
600 0.000360
601 0.000362
602 0.000363
603 0.000362
604 0.000361
605 0.000361
606 0.000361
607 0.000362
608 0.000361
609 0.000363
610 0.000364
611 0.000361
612 0.000362
613 0.000363
614 0.000363
615 0.000362
616 0.000358
617 0.000353
618 0.000350
619 0.000346
620 0.000345
621 0.000341
622 0.000334
623 0.000327
624 0.000322
625 0.000316
626 0.000309
627 0.000306
628 0.000307
629 0.000307
630 0.000303
631 0.000298
632 0.000296
633 0.000296
634 0.000296
635 0.000296
636 0.000295
637 0.000295
638 0.000294
639 0.000294
640 0.000291
641 0.000291
642 0.000294
643 0.000296
644 0.000297
645 0.000295
646 0.000293
647 0.000290
648 0.000285
649 0.000283
650 0.000283
651 0.000282
652 0.000280
653 0.000277
654 0.000274
655 0.000271
656 0.000265
657 0.000261
658 0.000259
659 0.000257
660 0.000257
661 0.000257
662 0.000257
663 0.000254
664 0.000248
665 0.000244
666 0.000242
667 0.000237
668 0.000233
669 0.000226
670 0.000220
671 0.000214
672 0.000206
673 0.000199
674 0.000194
675 0.000190
676 0.000186
677 0.000183
678 0.000181
679 0.000178
680 0.000176
681 0.000174
682 0.000171
683 0.000167
684 0.000165
685 0.000162
686 0.000159
687 0.000153
688 0.000149
689 0.000146
690 0.000144
691 0.000144
692 0.000145
693 0.000147
694 0.000151
695 0.000152
696 0.000152
697 0.000155
698 0.000155
699 0.000153
700 0.000152
701 0.000150
702 0.000149
703 0.000146
704 0.000142
705 0.000137
706 0.000133
707 0.000132
708 0.000129
709 0.000129
710 0.000130
711 0.000131
712 0.000133
713 0.000136
714 0.000135
715 0.000135
716 0.000129
717 0.000126
718 0.000127
719 0.000128
720 0.000128
721 0.000126
722 0.000124
723 0.000124
724 0.000123
725 0.000120
726 0.000116
727 0.000112
728 0.000109
729 0.000107
730 0.000106
731 0.000106
732 0.000109
733 0.000111
734 0.000111
735 0.000111
736 0.000111
737 0.000113
738 0.000117
739 0.000121
740 0.000122
741 0.000121
742 0.000123
743 0.000124
744 0.000123
745 0.000122
746 0.000122
747 0.000119
748 0.000117
749 0.000117
750 0.000116
751 0.000115
752 0.000113
753 0.000111
754 0.000111
755 0.000109
756 0.000108
757 0.000106
758 0.000107
759 0.000105
760 0.000104
761 0.000103
762 0.000104
763 0.000106
764 0.000106
765 0.000106
766 0.000108
767 0.000108
768 0.000105
769 0.000102
770 0.000098
771 0.000096
772 0.000094
773 0.000091
774 0.000088
775 0.000085
776 0.000082
777 0.000081
778 0.000080
779 0.000080
780 0.000081
781 0.000083
782 0.000084
783 0.000085
784 0.000088
785 0.000090
786 0.000090
787 0.000089
788 0.000086
789 0.000085
790 0.000085
791 0.000084
792 0.000083
793 0.000081
794 0.000077
795 0.000073
796 0.000070
797 0.000069
798 0.000069
799 0.000072
800 0.000074
801 0.000077
802 0.000079
803 0.000079
804 0.000081
805 0.000082
806 0.000081
807 0.000084
808 0.000084
809 0.000083
