# i correlation
1 0.001772
2 0.001730
3 0.001690
4 0.001659
5 0.001632
6 0.001609
7 0.001588
8 0.001567
9 0.001555
10 0.001547
11 0.001534
12 0.001521
13 0.001507
14 0.001490
15 0.001475
16 0.001462
17 0.001450
18 0.001442
19 0.001435
20 0.001431
21 0.001425
22 0.001425
23 0.001422
24 0.001426
25 0.001426
26 0.001420
27 0.001414
28 0.001410
29 0.001405
30 0.001395
31 0.001389
32 0.001379
33 0.001373
34 0.001369
35 0.001366
36 0.001359
37 0.001352
38 0.001346
39 0.001340
40 0.001335
41 0.001330
42 0.001322
43 0.001316
44 0.001309
45 0.001301
46 0.001290
47 0.001277
48 0.001267
49 0.001260
50 0.001255
51 0.001254
52 0.001249
53 0.001242
54 0.001236
55 0.001226
56 0.001215
57 0.001199
58 0.001192
59 0.001188
60 0.001189
61 0.001194
62 0.001200
63 0.001208
64 0.001213
65 0.001215
66 0.001213
67 0.001211
68 0.001203
69 0.001190
70 0.001180
71 0.001170
72 0.001164
73 0.001161
74 0.001163
75 0.001164
76 0.001164
77 0.001161
78 0.001159
79 0.001151
80 0.001140
81 0.001126
82 0.001110
83 0.001099
84 0.001093
85 0.001094
86 0.001094
87 0.001092
88 0.001092
89 0.001094
90 0.001091
91 0.001088
92 0.001086
93 0.001078
94 0.001074
95 0.001070
96 0.001066
97 0.001061
98 0.001057
99 0.001052
100 0.001046
101 0.001043
102 0.001040
103 0.001043
104 0.001044
105 0.001042
106 0.001035
107 0.001033
108 0.001029
109 0.001025
110 0.001022
111 0.001015
112 0.001006
113 0.001001
114 0.001000
115 0.000997
116 0.000993
117 0.000993
118 0.000990
119 0.000987
120 0.000985
121 0.000977
122 0.000967
123 0.000962
124 0.000956
125 0.000953
126 0.000952
127 0.000953
128 0.000957
129 0.000962
130 0.000968
131 0.000968
132 0.000967
133 0.000965
134 0.000961
135 0.000957
136 0.000952
137 0.000951
138 0.000950
139 0.000950
140 0.000954
141 0.000958
142 0.000956
143 0.000948
144 0.000940
145 0.000939
146 0.000935
147 0.000933
148 0.000930
149 0.000928
150 0.000925
151 0.000920
152 0.000921
153 0.000918
154 0.000920
155 0.000918
156 0.000916
157 0.000913
158 0.000915
159 0.000917
160 0.000917
161 0.000915
162 0.000913
163 0.000910
164 0.000905
165 0.000904
166 0.000907
167 0.000907
168 0.000907
169 0.000910
170 0.000914
171 0.000913
172 0.000910
173 0.000908
174 0.000905
175 0.000902
176 0.000904
177 0.000906
178 0.000904
179 0.000901
180 0.000898
181 0.000899
182 0.000897
183 0.000892
184 0.000887
185 0.000882
186 0.000874
187 0.000867
188 0.000857
189 0.000842
190 0.000830
191 0.000819
192 0.000813
193 0.000814
194 0.000821
195 0.000828
196 0.000827
197 0.000824
198 0.000821
199 0.000819
200 0.000820
201 0.000821
202 0.000820
203 0.000816
204 0.000815
205 0.000815
206 0.000815
207 0.000813
208 0.000810
209 0.000807
210 0.000802
211 0.000794
212 0.000793
213 0.000787
214 0.000788
215 0.000787
216 0.000784
217 0.000776
218 0.000772
219 0.000766
220 0.000761
221 0.000756
222 0.000748
223 0.000742
224 0.000742
225 0.000741
226 0.000739
227 0.000736
228 0.000737
229 0.000737
230 0.000737
231 0.000733
232 0.000727
233 0.000719
234 0.000714
235 0.000706
236 0.000702
237 0.000700
238 0.000703
239 0.000705
240 0.000710
241 0.000715
242 0.000714
243 0.000713
244 0.000715
245 0.000715
246 0.000713
247 0.000711
248 0.000708
249 0.000706
250 0.000701
251 0.000697
252 0.000693
253 0.000685
254 0.000678
255 0.000674
256 0.000667
257 0.000659
258 0.000655
259 0.000651
260 0.000647
261 0.000645
262 0.000643
263 0.000639
264 0.000634
265 0.000634
266 0.000630
267 0.000623
268 0.000615
269 0.000613
270 0.000610
271 0.000607
272 0.000602
273 0.000601
274 0.000598
275 0.000599
276 0.000600
277 0.000600
278 0.000600
279 0.000602
280 0.000605
281 0.000604
282 0.000605
283 0.000605
284 0.000601
285 0.000595
286 0.000590
287 0.000584
288 0.000580
289 0.000577
290 0.000579
291 0.000579
292 0.000579
293 0.000578
294 0.000579
295 0.000581
296 0.000582
297 0.000578
298 0.000572
299 0.000565
300 0.000560
301 0.000556
302 0.000550
303 0.000546
304 0.000549
305 0.000550
306 0.000553
307 0.000555
308 0.000558
309 0.000561
310 0.000561
311 0.000557
312 0.000551
313 0.000542
314 0.000540
315 0.000540
316 0.000542
317 0.000546
318 0.000549
319 0.000553
320 0.000553
321 0.000553
322 0.000547
323 0.000544
324 0.000542
325 0.000540
326 0.000535
327 0.000531
328 0.000530
329 0.000531
330 0.000531
331 0.000527
332 0.000525
333 0.000528
334 0.000529
335 0.000530
336 0.000530
337 0.000528
338 0.000528
339 0.000531
340 0.000534
341 0.000535
342 0.000534
343 0.000534
344 0.000534
345 0.000530
346 0.000528
347 0.000526
348 0.000525
349 0.000526
350 0.000526
351 0.000522
352 0.000517
353 0.000515
354 0.000515
355 0.000516
356 0.000515
357 0.000510
358 0.000504
359 0.000500
360 0.000497
361 0.000495
362 0.000489
363 0.000483
364 0.000476
365 0.000467
366 0.000462
367 0.000454
368 0.000452
369 0.000451
370 0.000453
371 0.000454
372 0.000458
373 0.000461
374 0.000462
375 0.000462
376 0.000461
377 0.000461
378 0.000465
379 0.000467
380 0.000465
381 0.000464
382 0.000464
383 0.000467
384 0.000468
385 0.000470
386 0.000471
387 0.000465
388 0.000460
389 0.000452
390 0.000449
391 0.000440
392 0.000435
393 0.000430
394 0.000429
395 0.000434
396 0.000439
397 0.000445
398 0.000447
399 0.000448
400 0.000452
401 0.000454
402 0.000455
403 0.000459
404 0.000459
405 0.000459
406 0.000461
407 0.000467
408 0.000470
409 0.000471
410 0.000474
411 0.000473
412 0.000468
413 0.000459
414 0.000455
415 0.000451
416 0.000446
417 0.000441
418 0.000437
419 0.000435
420 0.000434
421 0.000436
422 0.000438
423 0.000441
424 0.000447
425 0.000452
426 0.000457
427 0.000460
428 0.000465
429 0.000469
430 0.000470
431 0.000467
432 0.000463
433 0.000458
434 0.000455
435 0.000453
436 0.000453
437 0.000453
438 0.000452
439 0.000450
440 0.000446
441 0.000442
442 0.000441
443 0.000437
444 0.000435
445 0.000429
446 0.000428
447 0.000425
448 0.000423
449 0.000424
450 0.000424
451 0.000422
452 0.000417
453 0.000414
454 0.000409
455 0.000401
456 0.000399
457 0.000395
458 0.000395
459 0.000395
460 0.000394
461 0.000393
462 0.000389
463 0.000388
464 0.000388
465 0.000385
466 0.000384
467 0.000380
468 0.000376
469 0.000373
470 0.000374
471 0.000379
472 0.000380
473 0.000380
474 0.000380
475 0.000381
476 0.000378
477 0.000376
478 0.000376
479 0.000373
480 0.000368
481 0.000364
482 0.000361
483 0.000359
484 0.000354
485 0.000352
486 0.000348
487 0.000344
488 0.000341
489 0.000344
490 0.000347
491 0.000349
492 0.000348
493 0.000345
494 0.000343
495 0.000343
496 0.000344
497 0.000343
498 0.000341
499 0.000337
500 0.000333
501 0.000329
502 0.000329
503 0.000329
504 0.000329
505 0.000332
506 0.000330
507 0.000326
508 0.000322
509 0.000318
510 0.000314
511 0.000312
512 0.000309
513 0.000305
514 0.000306
515 0.000309
516 0.000308
517 0.000304
518 0.000301
519 0.000298
520 0.000296
521 0.000295
522 0.000292
523 0.000290
524 0.000290
525 0.000289
526 0.000289
527 0.000286
528 0.000283
529 0.000278
530 0.000274
531 0.000269
532 0.000263
533 0.000258
534 0.000254
535 0.000253
536 0.000253
537 0.000253
538 0.000255
539 0.000257
540 0.000258
541 0.000258
542 0.000261
543 0.000260
544 0.000261
545 0.000264
546 0.000263
547 0.000261
548 0.000268
549 0.000273
550 0.000275
551 0.000275
552 0.000274
553 0.000273
554 0.000273
555 0.000277
556 0.000282
557 0.000284
558 0.000285
559 0.000288
560 0.000287
561 0.000289
562 0.000286
563 0.000285
564 0.000285
565 0.000284
566 0.000285
567 0.000286
568 0.000287
569 0.000286
570 0.000287
571 0.000283
572 0.000280
573 0.000278
574 0.000277
575 0.000275
576 0.000275
577 0.000276
578 0.000276
579 0.000279
580 0.000284
581 0.000289
582 0.000295
583 0.000299
584 0.000303
585 0.000304
586 0.000307
587 0.000307
588 0.000307
589 0.000308
590 0.000311
591 0.000314
592 0.000314
593 0.000315
594 0.000316
595 0.000316
596 0.000311
597 0.000305
598 0.000299
599 0.000295
600 0.000293
601 0.000293
602 0.000293
603 0.000292
604 0.000295
605 0.000296
606 0.000299
607 0.000298
608 0.000296
609 0.000295
610 0.000294
611 0.000294
612 0.000294
613 0.000294
614 0.000290
615 0.000291
616 0.000293
617 0.000296
618 0.000297
619 0.000300
620 0.000299
621 0.000296
622 0.000292
623 0.000288
624 0.000288
625 0.000289
626 0.000290
627 0.000290
628 0.000289
629 0.000289
630 0.000291
631 0.000293
632 0.000293
633 0.000293
634 0.000294
635 0.000297
636 0.000298
637 0.000300
638 0.000302
639 0.000301
640 0.000301
641 0.000301
642 0.000300
643 0.000298
644 0.000302
645 0.000306
646 0.000310
647 0.000311
648 0.000312
649 0.000312
650 0.000311
651 0.000311
652 0.000314
653 0.000317
654 0.000318
655 0.000319
656 0.000322
657 0.000323
658 0.000323
659 0.000322
660 0.000322
661 0.000320
662 0.000319
663 0.000313
664 0.000304
665 0.000298
666 0.000295
667 0.000292
668 0.000292
669 0.000291
670 0.000289
671 0.000288
672 0.000287
673 0.000287
674 0.000285
675 0.000284
676 0.000281
677 0.000279
678 0.000281
679 0.000283
680 0.000285
681 0.000286
682 0.000287
683 0.000287
684 0.000288
685 0.000287
686 0.000284
687 0.000282
688 0.000277
689 0.000272
690 0.000270
691 0.000270
692 0.000267
693 0.000265
694 0.000262
695 0.000255
696 0.000249
697 0.000245
698 0.000239
699 0.000231
700 0.000225
701 0.000214
702 0.000208
703 0.000203
704 0.000198
705 0.000191
706 0.000185
707 0.000181
708 0.000177
709 0.000174
710 0.000170
711 0.000167
712 0.000165
713 0.000163
714 0.000160
715 0.000158
716 0.000158
717 0.000156
718 0.000155
719 0.000157
720 0.000158
721 0.000161
722 0.000164
723 0.000168
724 0.000172
725 0.000176
726 0.000178
727 0.000179
728 0.000177
729 0.000175
730 0.000172
731 0.000168
732 0.000165
733 0.000162
734 0.000161
735 0.000158
736 0.000158
737 0.000154
738 0.000151
739 0.000146
740 0.000141
741 0.000138
742 0.000135
743 0.000133
744 0.000131
745 0.000131
746 0.000132
747 0.000132
748 0.000133
749 0.000132
750 0.000132
751 0.000134
752 0.000135
753 0.000135
754 0.000136
755 0.000137
756 0.000138
757 0.000139
758 0.000142
759 0.000142
760 0.000146
761 0.000148
762 0.000151
763 0.000153
764 0.000155
765 0.000157
766 0.000158
767 0.000160
768 0.000158
769 0.000156
770 0.000156
771 0.000155
772 0.000151
773 0.000149
774 0.000144
775 0.000139
776 0.000138
777 0.000137
778 0.000136
779 0.000134
780 0.000133
781 0.000130
782 0.000128
783 0.000128
784 0.000127
785 0.000126
786 0.000128
787 0.000129
788 0.000133
789 0.000138
790 0.000141
791 0.000141
792 0.000140
793 0.000140
794 0.000138
795 0.000137
796 0.000136
797 0.000137
798 0.000138
799 0.000136
800 0.000137
801 0.000137
802 0.000136
803 0.000135
804 0.000133
805 0.000130
806 0.000129
807 0.000129
808 0.000128
809 0.000125
