# i correlation
1 0.001326
2 0.001286
3 0.001253
4 0.001231
5 0.001213
6 0.001203
7 0.001190
8 0.001174
9 0.001159
10 0.001148
11 0.001140
12 0.001129
13 0.001118
14 0.001109
15 0.001105
16 0.001096
17 0.001089
18 0.001082
19 0.001074
20 0.001067
21 0.001062
22 0.001060
23 0.001056
24 0.001052
25 0.001044
26 0.001034
27 0.001025
28 0.001020
29 0.001019
30 0.001016
31 0.001008
32 0.000998
33 0.000991
34 0.000984
35 0.000981
36 0.000984
37 0.000985
38 0.000982
39 0.000979
40 0.000973
41 0.000965
42 0.000959
43 0.000958
44 0.000957
45 0.000957
46 0.000956
47 0.000954
48 0.000949
49 0.000944
50 0.000942
51 0.000941
52 0.000940
53 0.000934
54 0.000932
55 0.000928
56 0.000925
57 0.000924
58 0.000929
59 0.000932
60 0.000937
61 0.000938
62 0.000938
63 0.000940
64 0.000936
65 0.000932
66 0.000928
67 0.000926
68 0.000921
69 0.000919
70 0.000918
71 0.000914
72 0.000907
73 0.000903
74 0.000899
75 0.000892
76 0.000883
77 0.000877
78 0.000872
79 0.000865
80 0.000861
81 0.000861
82 0.000862
83 0.000858
84 0.000859
85 0.000862
86 0.000865
87 0.000869
88 0.000871
89 0.000869
90 0.000866
91 0.000860
92 0.000856
93 0.000849
94 0.000842
95 0.000834
96 0.000827
97 0.000824
98 0.000820
99 0.000814
100 0.000806
101 0.000800
102 0.000796
103 0.000795
104 0.000790
105 0.000783
106 0.000771
107 0.000759
108 0.000755
109 0.000752
110 0.000752
111 0.000747
112 0.000743
113 0.000735
114 0.000726
115 0.000719
116 0.000710
117 0.000705
118 0.000698
119 0.000691
120 0.000684
121 0.000680
122 0.000673
123 0.000669
124 0.000669
125 0.000669
126 0.000672
127 0.000677
128 0.000682
129 0.000681
130 0.000680
131 0.000678
132 0.000678
133 0.000682
134 0.000684
135 0.000681
136 0.000676
137 0.000670
138 0.000663
139 0.000658
140 0.000654
141 0.000655
142 0.000652
143 0.000652
144 0.000651
145 0.000652
146 0.000654
147 0.000655
148 0.000656
149 0.000655
150 0.000651
151 0.000653
152 0.000654
153 0.000652
154 0.000654
155 0.000657
156 0.000659
157 0.000658
158 0.000656
159 0.000655
160 0.000655
161 0.000655
162 0.000656
163 0.000659
164 0.000660
165 0.000662
166 0.000667
167 0.000667
168 0.000664
169 0.000661
170 0.000660
171 0.000662
172 0.000665
173 0.000666
174 0.000661
175 0.000658
176 0.000654
177 0.000649
178 0.000645
179 0.000641
180 0.000635
181 0.000628
182 0.000623
183 0.000620
184 0.000621
185 0.000622
186 0.000624
187 0.000624
188 0.000626
189 0.000623
190 0.000623
191 0.000624
192 0.000622
193 0.000618
194 0.000612
195 0.000609
196 0.000606
197 0.000606
198 0.000603
199 0.000601
200 0.000597
201 0.000594
202 0.000593
203 0.000593
204 0.000593
205 0.000591
206 0.000587
207 0.000582
208 0.000574
209 0.000572
210 0.000569
211 0.000564
212 0.000560
213 0.000555
214 0.000556
215 0.000563
216 0.000568
217 0.000570
218 0.000569
219 0.000564
220 0.000563
221 0.000565
222 0.000565
223 0.000561
224 0.000556
225 0.000554
226 0.000554
227 0.000552
228 0.000550
229 0.000551
230 0.000554
231 0.000557
232 0.000559
233 0.000560
234 0.000559
235 0.000558
236 0.000561
237 0.000564
238 0.000569
239 0.000571
240 0.000573
241 0.000574
242 0.000573
243 0.000569
244 0.000568
245 0.000569
246 0.000569
247 0.000566
248 0.000565
249 0.000559
250 0.000557
251 0.000560
252 0.000561
253 0.000561
254 0.000562
255 0.000564
256 0.000565
257 0.000563
258 0.000563
259 0.000565
260 0.000568
261 0.000567
262 0.000567
263 0.000564
264 0.000562
265 0.000560
266 0.000559
267 0.000556
268 0.000552
269 0.000544
270 0.000536
271 0.000530
272 0.000519
273 0.000511
274 0.000508
275 0.000505
276 0.000503
277 0.000501
278 0.000498
279 0.000495
280 0.000492
281 0.000490
282 0.000486
283 0.000485
284 0.000482
285 0.000481
286 0.000480
287 0.000478
288 0.000477
289 0.000476
290 0.000476
291 0.000476
292 0.000477
293 0.000475
294 0.000469
295 0.000462
296 0.000461
297 0.000461
298 0.000461
299 0.000463
300 0.000464
301 0.000465
302 0.000469
303 0.000471
304 0.000472
305 0.000470
306 0.000468
307 0.000466
308 0.000466
309 0.000462
310 0.000456
311 0.000448
312 0.000440
313 0.000434
314 0.000434
315 0.000436
316 0.000435
317 0.000435
318 0.000435
319 0.000438
320 0.000438
321 0.000438
322 0.000437
323 0.000437
324 0.000434
325 0.000436
326 0.000439
327 0.000441
328 0.000443
329 0.000445
330 0.000443
331 0.000444
332 0.000445
333 0.000444
334 0.000442
335 0.000445
336 0.000446
337 0.000443
338 0.000443
339 0.000445
340 0.000446
341 0.000446
342 0.000444
343 0.000444
344 0.000443
345 0.000442
346 0.000445
347 0.000448
348 0.000452
349 0.000459
350 0.000464
351 0.000470
352 0.000470
353 0.000469
354 0.000466
355 0.000461
356 0.000462
357 0.000461
358 0.000461
359 0.000461
360 0.000460
361 0.000455
362 0.000451
363 0.000448
364 0.000446
365 0.000445
366 0.000441
367 0.000437
368 0.000435
369 0.000434
370 0.000431
371 0.000428
372 0.000424
373 0.000421
374 0.000415
375 0.000415
376 0.000414
377 0.000412
378 0.000409
379 0.000408
380 0.000405
381 0.000403
382 0.000399
383 0.000397
384 0.000394
385 0.000390
386 0.000388
387 0.000386
388 0.000388
389 0.000391
390 0.000391
391 0.000387
392 0.000383
393 0.000381
394 0.000380
395 0.000382
396 0.000385
397 0.000387
398 0.000383
399 0.000381
400 0.000375
401 0.000371
402 0.000366
403 0.000364
404 0.000361
405 0.000362
406 0.000360
407 0.000359
408 0.000360
409 0.000361
410 0.000361
411 0.000363
412 0.000363
413 0.000364
414 0.000363
415 0.000359
416 0.000357
417 0.000358
418 0.000361
419 0.000365
420 0.000368
421 0.000371
422 0.000371
423 0.000368
424 0.000364
425 0.000360
426 0.000361
427 0.000363
428 0.000362
429 0.000361
430 0.000356
431 0.000355
432 0.000353
433 0.000355
434 0.000357
435 0.000361
436 0.000364
437 0.000364
438 0.000363
439 0.000361
440 0.000358
441 0.000358
442 0.000358
443 0.000359
444 0.000359
445 0.000355
446 0.000351
447 0.000348
448 0.000345
449 0.000344
450 0.000344
451 0.000343
452 0.000342
453 0.000341
454 0.000339
455 0.000338
456 0.000338
457 0.000339
458 0.000338
459 0.000338
460 0.000336
461 0.000329
462 0.000325
463 0.000326
464 0.000325
465 0.000320
466 0.000316
467 0.000312
468 0.000307
469 0.000303
470 0.000304
471 0.000306
472 0.000307
473 0.000308
474 0.000310
475 0.000309
476 0.000304
477 0.000300
478 0.000299
479 0.000299
480 0.000301
481 0.000302
482 0.000302
483 0.000301
484 0.000299
485 0.000298
486 0.000299
487 0.000300
488 0.000298
489 0.000295
490 0.000293
491 0.000292
492 0.000291
493 0.000289
494 0.000286
495 0.000287
496 0.000287
497 0.000286
498 0.000286
499 0.000286
500 0.000284
501 0.000282
502 0.000281
503 0.000282
504 0.000283
505 0.000286
506 0.000291
507 0.000298
508 0.000303
509 0.000306
510 0.000308
511 0.000310
512 0.000310
513 0.000310
514 0.000313
515 0.000312
516 0.000311
517 0.000309
518 0.000306
519 0.000305
520 0.000305
521 0.000305
522 0.000310
523 0.000315
524 0.000321
525 0.000327
526 0.000332
527 0.000332
528 0.000328
529 0.000325
530 0.000324
531 0.000327
532 0.000329
533 0.000328
534 0.000327
535 0.000328
536 0.000327
537 0.000330
538 0.000332
539 0.000332
540 0.000330
541 0.000330
542 0.000331
543 0.000331
544 0.000333
545 0.000335
546 0.000337
547 0.000338
548 0.000339
549 0.000337
550 0.000336
551 0.000335
552 0.000333
553 0.000330
554 0.000329
555 0.000327
556 0.000328
557 0.000329
558 0.000327
559 0.000324
560 0.000320
561 0.000320
562 0.000319
563 0.000316
564 0.000313
565 0.000309
566 0.000303
567 0.000303
568 0.000305
569 0.000309
570 0.000309
571 0.000306
572 0.000305
573 0.000302
574 0.000301
575 0.000298
576 0.000296
577 0.000293
578 0.000288
579 0.000285
580 0.000283
581 0.000280
582 0.000277
583 0.000275
584 0.000271
585 0.000273
586 0.000273
587 0.000277
588 0.000275
589 0.000272
590 0.000269
591 0.000266
592 0.000261
593 0.000259
594 0.000261
595 0.000263
596 0.000266
597 0.000271
598 0.000276
599 0.000277
600 0.000279
601 0.000282
602 0.000284
603 0.000283
604 0.000282
605 0.000283
606 0.000284
607 0.000284
608 0.000287
609 0.000288
610 0.000288
611 0.000291
612 0.000293
613 0.000291
614 0.000290
615 0.000289
616 0.000291
617 0.000292
618 0.000291
619 0.000292
620 0.000293
621 0.000291
622 0.000286
623 0.000283
624 0.000280
625 0.000277
626 0.000274
627 0.000271
628 0.000267
629 0.000261
630 0.000253
631 0.000248
632 0.000246
633 0.000244
634 0.000244
635 0.000245
636 0.000244
637 0.000244
638 0.000244
639 0.000244
640 0.000242
641 0.000241
642 0.000240
643 0.000242
644 0.000239
645 0.000236
646 0.000232
647 0.000231
648 0.000229
649 0.000227
650 0.000228
651 0.000227
652 0.000223
653 0.000218
654 0.000213
655 0.000208
656 0.000206
657 0.000206
658 0.000206
659 0.000204
660 0.000203
661 0.000202
662 0.000202
663 0.000200
664 0.000197
665 0.000193
666 0.000188
667 0.000186
668 0.000187
669 0.000187
670 0.000184
671 0.000184
672 0.000185
673 0.000186
674 0.000188
675 0.000189
676 0.000187
677 0.000186
678 0.000186
679 0.000189
680 0.000189
681 0.000187
682 0.000184
683 0.000180
684 0.000176
685 0.000174
686 0.000173
687 0.000172
688 0.000170
689 0.000171
690 0.000170
691 0.000168
692 0.000166
693 0.000163
694 0.000161
695 0.000161
696 0.000160
697 0.000164
698 0.000168
699 0.000170
700 0.000171
701 0.000173
702 0.000176
703 0.000178
704 0.000179
705 0.000180
706 0.000181
707 0.000179
708 0.000180
709 0.000181
710 0.000182
711 0.000183
712 0.000183
713 0.000181
714 0.000182
715 0.000183
716 0.000184
717 0.000182
718 0.000179
719 0.000176
720 0.000172
721 0.000169
722 0.000166
723 0.000164
724 0.000163
725 0.000162
726 0.000161
727 0.000160
728 0.000158
729 0.000155
730 0.000151
731 0.000147
732 0.000142
733 0.000138
734 0.000135
735 0.000132
736 0.000130
737 0.000129
738 0.000126
739 0.000122
740 0.000119
741 0.000119
742 0.000118
743 0.000115
744 0.000113
745 0.000112
746 0.000113
747 0.000116
748 0.000118
749 0.000119
750 0.000115
751 0.000110
752 0.000107
753 0.000106
754 0.000103
755 0.000101
756 0.000098
757 0.000096
758 0.000093
759 0.000090
760 0.000090
761 0.000088
762 0.000089
763 0.000088
764 0.000090
765 0.000090
766 0.000092
767 0.000093
768 0.000095
769 0.000096
770 0.000097
771 0.000101
772 0.000105
773 0.000109
774 0.000113
775 0.000114
776 0.000116
777 0.000118
778 0.000121
779 0.000122
780 0.000122
781 0.000121
782 0.000122
783 0.000124
784 0.000127
785 0.000130
786 0.000131
787 0.000131
788 0.000133
789 0.000135
790 0.000137
791 0.000136
792 0.000135
793 0.000135
794 0.000134
795 0.000133
796 0.000131
797 0.000127
798 0.000123
799 0.000118
800 0.000116
801 0.000112
802 0.000110
803 0.000108
804 0.000104
805 0.000100
806 0.000100
807 0.000101
808 0.000101
809 0.000099
