# i correlation
1 0.001664
2 0.001623
3 0.001584
4 0.001555
5 0.001525
6 0.001497
7 0.001470
8 0.001450
9 0.001432
10 0.001417
11 0.001405
12 0.001396
13 0.001385
14 0.001374
15 0.001360
16 0.001351
17 0.001344
18 0.001336
19 0.001326
20 0.001319
21 0.001313
22 0.001304
23 0.001293
24 0.001280
25 0.001268
26 0.001255
27 0.001239
28 0.001225
29 0.001210
30 0.001194
31 0.001181
32 0.001171
33 0.001163
34 0.001152
35 0.001141
36 0.001131
37 0.001125
38 0.001118
39 0.001116
40 0.001112
41 0.001112
42 0.001115
43 0.001116
44 0.001113
45 0.001108
46 0.001101
47 0.001097
48 0.001089
49 0.001087
50 0.001082
51 0.001075
52 0.001062
53 0.001047
54 0.001035
55 0.001024
56 0.001013
57 0.001003
58 0.000991
59 0.000986
60 0.000982
61 0.000977
62 0.000969
63 0.000965
64 0.000965
65 0.000968
66 0.000971
67 0.000978
68 0.000982
69 0.000980
70 0.000972
71 0.000963
72 0.000954
73 0.000943
74 0.000929
75 0.000916
76 0.000905
77 0.000898
78 0.000890
79 0.000881
80 0.000878
81 0.000877
82 0.000880
83 0.000876
84 0.000876
85 0.000873
86 0.000872
87 0.000874
88 0.000876
89 0.000877
90 0.000876
91 0.000876
92 0.000878
93 0.000886
94 0.000887
95 0.000881
96 0.000878
97 0.000874
98 0.000874
99 0.000870
100 0.000867
101 0.000864
102 0.000864
103 0.000861
104 0.000855
105 0.000852
106 0.000852
107 0.000852
108 0.000852
109 0.000856
110 0.000864
111 0.000872
112 0.000876
113 0.000882
114 0.000885
115 0.000891
116 0.000894
117 0.000892
118 0.000895
119 0.000897
120 0.000892
121 0.000886
122 0.000874
123 0.000864
124 0.000855
125 0.000842
126 0.000828
127 0.000819
128 0.000807
129 0.000797
130 0.000788
131 0.000782
132 0.000784
133 0.000792
134 0.000798
135 0.000805
136 0.000810
137 0.000810
138 0.000814
139 0.000818
140 0.000820
141 0.000819
142 0.000817
143 0.000816
144 0.000819
145 0.000819
146 0.000814
147 0.000805
148 0.000794
149 0.000787
150 0.000780
151 0.000777
152 0.000774
153 0.000770
154 0.000766
155 0.000761
156 0.000760
157 0.000759
158 0.000761
159 0.000760
160 0.000761
161 0.000762
162 0.000766
163 0.000768
164 0.000768
165 0.000767
166 0.000764
167 0.000756
168 0.000750
169 0.000744
170 0.000739
171 0.000732
172 0.000723
173 0.000716
174 0.000711
175 0.000709
176 0.000708
177 0.000703
178 0.000699
179 0.000694
180 0.000694
181 0.000695
182 0.000697
183 0.000700
184 0.000702
185 0.000700
186 0.000702
187 0.000704
188 0.000704
189 0.000701
190 0.000699
191 0.000698
192 0.000696
193 0.000690
194 0.000688
195 0.000687
196 0.000687
197 0.000684
198 0.000676
199 0.000672
200 0.000671
201 0.000669
202 0.000667
203 0.000667
204 0.000667
205 0.000669
206 0.000670
207 0.000673
208 0.000672
209 0.000671
210 0.000666
211 0.000664
212 0.000664
213 0.000662
214 0.000658
215 0.000655
216 0.000651
217 0.000650
218 0.000644
219 0.000638
220 0.000635
221 0.000634
222 0.000632
223 0.000630
224 0.000626
225 0.000625
226 0.000626
227 0.000631
228 0.000634
229 0.000637
230 0.000637
231 0.000640
232 0.000644
233 0.000649
234 0.000651
235 0.000654
236 0.000655
237 0.000654
238 0.000654
239 0.000650
240 0.000646
241 0.000643
242 0.000640
243 0.000637
244 0.000634
245 0.000633
246 0.000630
247 0.000623
248 0.000617
249 0.000614
250 0.000612
251 0.000611
252 0.000612
253 0.000614
254 0.000617
255 0.000621
256 0.000622
257 0.000619
258 0.000612
259 0.000604
260 0.000593
261 0.000581
262 0.000575
263 0.000573
264 0.000573
265 0.000568
266 0.000564
267 0.000561
268 0.000561
269 0.000559
270 0.000549
271 0.000541
272 0.000533
273 0.000523
274 0.000517
275 0.000512
276 0.000509
277 0.000505
278 0.000503
279 0.000501
280 0.000500
281 0.000498
282 0.000494
283 0.000489
284 0.000487
285 0.000488
286 0.000489
287 0.000487
288 0.000487
289 0.000488
290 0.000485
291 0.000478
292 0.000474
293 0.000470
294 0.000465
295 0.000460
296 0.000458
297 0.000457
298 0.000460
299 0.000461
300 0.000463
301 0.000464
302 0.000466
303 0.000463
304 0.000464
305 0.000464
306 0.000464
307 0.000462
308 0.000457
309 0.000456
310 0.000457
311 0.000456
312 0.000449
313 0.000446
314 0.000442
315 0.000442
316 0.000439
317 0.000437
318 0.000433
319 0.000434
320 0.000432
321 0.000430
322 0.000427
323 0.000429
324 0.000430
325 0.000430
326 0.000429
327 0.000431
328 0.000432
329 0.000431
330 0.000430
331 0.000431
332 0.000435
333 0.000438
334 0.000439
335 0.000440
336 0.000444
337 0.000446
338 0.000445
339 0.000446
340 0.000445
341 0.000452
342 0.000457
343 0.000464
344 0.000468
345 0.000475
346 0.000481
347 0.000487
348 0.000491
349 0.000495
350 0.000495
351 0.000494
352 0.000493
353 0.000491
354 0.000487
355 0.000485
356 0.000484
357 0.000479
358 0.000474
359 0.000466
360 0.000459
361 0.000453
362 0.000447
363 0.000439
364 0.000432
365 0.000429
366 0.000427
367 0.000429
368 0.000432
369 0.000435
370 0.000441
371 0.000447
372 0.000448
373 0.000449
374 0.000454
375 0.000453
376 0.000448
377 0.000444
378 0.000442
379 0.000440
380 0.000439
381 0.000438
382 0.000435
383 0.000435
384 0.000433
385 0.000429
386 0.000426
387 0.000426
388 0.000428
389 0.000428
390 0.000427
391 0.000428
392 0.000429
393 0.000430
394 0.000430
395 0.000431
396 0.000429
397 0.000427
398 0.000426
399 0.000427
400 0.000428
401 0.000427
402 0.000425
403 0.000425
404 0.000424
405 0.000418
406 0.000408
407 0.000400
408 0.000397
409 0.000394
410 0.000389
411 0.000386
412 0.000382
413 0.000380
414 0.000381
415 0.000379
416 0.000378
417 0.000375
418 0.000373
419 0.000373
420 0.000374
421 0.000373
422 0.000373
423 0.000373
424 0.000371
425 0.000369
426 0.000368
427 0.000364
428 0.000360
429 0.000356
430 0.000355
431 0.000354
432 0.000351
433 0.000349
434 0.000349
435 0.000347
436 0.000344
437 0.000343
438 0.000343
439 0.000344
440 0.000346
441 0.000345
442 0.000346
443 0.000346
444 0.000348
445 0.000348
446 0.000344
447 0.000341
448 0.000339
449 0.000336
450 0.000336
451 0.000338
452 0.000341
453 0.000341
454 0.000338
455 0.000338
456 0.000338
457 0.000333
458 0.000335
459 0.000337
460 0.000341
461 0.000343
462 0.000350
463 0.000357
464 0.000365
465 0.000371
466 0.000374
467 0.000375
468 0.000379
469 0.000383
470 0.000385
471 0.000384
472 0.000383
473 0.000381
474 0.000379
475 0.000375
476 0.000374
477 0.000373
478 0.000368
479 0.000364
480 0.000362
481 0.000362
482 0.000362
483 0.000362
484 0.000365
485 0.000371
486 0.000376
487 0.000382
488 0.000386
489 0.000392
490 0.000397
491 0.000404
492 0.000407
493 0.000409
494 0.000407
495 0.000408
496 0.000401
497 0.000397
498 0.000391
499 0.000386
500 0.000379
501 0.000377
502 0.000373
503 0.000367
504 0.000360
505 0.000357
506 0.000355
507 0.000358
508 0.000358
509 0.000359
510 0.000359
511 0.000357
512 0.000358
513 0.000358
514 0.000356
515 0.000351
516 0.000343
517 0.000338
518 0.000333
519 0.000332
520 0.000332
521 0.000328
522 0.000322
523 0.000316
524 0.000314
525 0.000307
526 0.000299
527 0.000291
528 0.000286
529 0.000282
530 0.000277
531 0.000275
532 0.000277
533 0.000283
534 0.000291
535 0.000297
536 0.000304
537 0.000309
538 0.000314
539 0.000317
540 0.000319
541 0.000320
542 0.000322
543 0.000322
544 0.000322
545 0.000319
546 0.000319
547 0.000314
548 0.000309
549 0.000303
550 0.000299
551 0.000298
552 0.000298
553 0.000295
554 0.000293
555 0.000292
556 0.000293
557 0.000294
558 0.000296
559 0.000296
560 0.000294
561 0.000294
562 0.000294
563 0.000293
564 0.000291
565 0.000289
566 0.000287
567 0.000285
568 0.000282
569 0.000280
570 0.000278
571 0.000275
572 0.000273
573 0.000273
574 0.000275
575 0.000279
576 0.000279
577 0.000282
578 0.000288
579 0.000293
580 0.000298
581 0.000298
582 0.000299
583 0.000301
584 0.000304
585 0.000307
586 0.000310
587 0.000313
588 0.000318
589 0.000319
590 0.000318
591 0.000319
592 0.000318
593 0.000313
594 0.000309
595 0.000308
596 0.000309
597 0.000308
598 0.000307
599 0.000305
600 0.000309
601 0.000313
602 0.000317
603 0.000323
604 0.000326
605 0.000326
606 0.000327
607 0.000327
608 0.000326
609 0.000324
610 0.000323
611 0.000322
612 0.000320
613 0.000315
614 0.000310
615 0.000304
616 0.000298
617 0.000293
618 0.000288
619 0.000283
620 0.000277
621 0.000271
622 0.000264
623 0.000259
624 0.000255
625 0.000251
626 0.000250
627 0.000247
628 0.000246
629 0.000244
630 0.000247
631 0.000248
632 0.000246
633 0.000243
634 0.000243
635 0.000242
636 0.000242
637 0.000240
638 0.000237
639 0.000235
640 0.000233
641 0.000229
642 0.000226
643 0.000224
644 0.000225
645 0.000229
646 0.000230
647 0.000233
648 0.000234
649 0.000233
650 0.000232
651 0.000232
652 0.000236
653 0.000240
654 0.000243
655 0.000245
656 0.000247
657 0.000250
658 0.000251
659 0.000251
660 0.000250
661 0.000247
662 0.000244
663 0.000240
664 0.000236
665 0.000232
666 0.000226
667 0.000222
668 0.000219
669 0.000216
670 0.000214
671 0.000211
672 0.000211
673 0.000210
674 0.000205
675 0.000202
676 0.000199
677 0.000197
678 0.000197
679 0.000197
680 0.000200
681 0.000201
682 0.000200
683 0.000199
684 0.000199
685 0.000199
686 0.000197
687 0.000195
688 0.000193
689 0.000190
690 0.000188
691 0.000185
692 0.000180
693 0.000175
694 0.000173
695 0.000170
696 0.000167
697 0.000168
698 0.000169
699 0.000169
700 0.000168
701 0.000167
702 0.000166
703 0.000166
704 0.000165
705 0.000164
706 0.000160
707 0.000156
708 0.000153
709 0.000148
710 0.000141
711 0.000134
712 0.000132
713 0.000130
714 0.000129
715 0.000127
716 0.000130
717 0.000131
718 0.000133
719 0.000132
720 0.000133
721 0.000134
722 0.000136
723 0.000136
724 0.000140
725 0.000140
726 0.000141
727 0.000144
728 0.000145
729 0.000145
730 0.000147
731 0.000147
732 0.000147
733 0.000143
734 0.000140
735 0.000138
736 0.000136
737 0.000137
738 0.000138
739 0.000139
740 0.000142
741 0.000146
742 0.000147
743 0.000147
744 0.000147
745 0.000148
746 0.000149
747 0.000149
748 0.000149
749 0.000149
750 0.000149
751 0.000151
752 0.000150
753 0.000148
754 0.000146
755 0.000147
756 0.000147
757 0.000148
758 0.000147
759 0.000143
760 0.000138
761 0.000132
762 0.000125
763 0.000122
764 0.000120
765 0.000118
766 0.000116
767 0.000114
768 0.000112
769 0.000112
770 0.000111
771 0.000111
772 0.000107
773 0.000105
774 0.000102
775 0.000100
776 0.000098
777 0.000097
778 0.000097
779 0.000100
780 0.000100
781 0.000100
782 0.000099
783 0.000099
784 0.000097
785 0.000096
786 0.000095
787 0.000094
788 0.000092
789 0.000091
790 0.000090
791 0.000090
792 0.000089
793 0.000088
794 0.000088
795 0.000086
796 0.000084
797 0.000083
798 0.000082
799 0.000081
800 0.000080
801 0.000081
802 0.000080
803 0.000077
804 0.000075
805 0.000073
806 0.000073
807 0.000075
808 0.000077
809 0.000077
