# i correlation
1 0.001616
2 0.001574
3 0.001539
4 0.001510
5 0.001484
6 0.001456
7 0.001428
8 0.001406
9 0.001384
10 0.001367
11 0.001353
12 0.001340
13 0.001325
14 0.001313
15 0.001300
16 0.001284
17 0.001267
18 0.001257
19 0.001249
20 0.001241
21 0.001231
22 0.001226
23 0.001220
24 0.001217
25 0.001215
26 0.001213
27 0.001211
28 0.001209
29 0.001202
30 0.001197
31 0.001190
32 0.001178
33 0.001169
34 0.001160
35 0.001154
36 0.001145
37 0.001137
38 0.001130
39 0.001121
40 0.001121
41 0.001118
42 0.001115
43 0.001106
44 0.001094
45 0.001088
46 0.001081
47 0.001073
48 0.001061
49 0.001048
50 0.001035
51 0.001029
52 0.001027
53 0.001021
54 0.001015
55 0.001013
56 0.001012
57 0.001011
58 0.001012
59 0.001012
60 0.001013
61 0.001013
62 0.001013
63 0.001011
64 0.001007
65 0.000998
66 0.000990
67 0.000979
68 0.000969
69 0.000962
70 0.000954
71 0.000948
72 0.000942
73 0.000934
74 0.000927
75 0.000922
76 0.000916
77 0.000907
78 0.000898
79 0.000887
80 0.000882
81 0.000876
82 0.000870
83 0.000864
84 0.000856
85 0.000849
86 0.000843
87 0.000837
88 0.000834
89 0.000832
90 0.000827
91 0.000823
92 0.000821
93 0.000820
94 0.000817
95 0.000816
96 0.000810
97 0.000806
98 0.000802
99 0.000799
100 0.000800
101 0.000796
102 0.000791
103 0.000788
104 0.000785
105 0.000780
106 0.000775
107 0.000773
108 0.000771
109 0.000766
110 0.000757
111 0.000753
112 0.000751
113 0.000749
114 0.000746
115 0.000748
116 0.000747
117 0.000747
118 0.000746
119 0.000743
120 0.000740
121 0.000737
122 0.000734
123 0.000734
124 0.000734
125 0.000732
126 0.000729
127 0.000723
128 0.000721
129 0.000720
130 0.000716
131 0.000710
132 0.000705
133 0.000704
134 0.000703
135 0.000704
136 0.000702
137 0.000701
138 0.000697
139 0.000692
140 0.000686
141 0.000680
142 0.000675
143 0.000670
144 0.000666
145 0.000655
146 0.000649
147 0.000638
148 0.000630
149 0.000624
150 0.000622
151 0.000621
152 0.000620
153 0.000619
154 0.000620
155 0.000623
156 0.000626
157 0.000628
158 0.000631
159 0.000637
160 0.000640
161 0.000645
162 0.000643
163 0.000639
164 0.000639
165 0.000637
166 0.000636
167 0.000634
168 0.000627
169 0.000620
170 0.000616
171 0.000611
172 0.000603
173 0.000592
174 0.000586
175 0.000584
176 0.000581
177 0.000573
178 0.000561
179 0.000552
180 0.000549
181 0.000552
182 0.000556
183 0.000556
184 0.000558
185 0.000557
186 0.000559
187 0.000562
188 0.000566
189 0.000573
190 0.000574
191 0.000576
192 0.000578
193 0.000578
194 0.000578
195 0.000580
196 0.000582
197 0.000586
198 0.000589
199 0.000586
200 0.000587
201 0.000588
202 0.000590
203 0.000591
204 0.000594
205 0.000595
206 0.000596
207 0.000592
208 0.000590
209 0.000587
210 0.000584
211 0.000577
212 0.000572
213 0.000568
214 0.000560
215 0.000557
216 0.000555
217 0.000556
218 0.000554
219 0.000552
220 0.000548
221 0.000545
222 0.000548
223 0.000546
224 0.000543
225 0.000541
226 0.000536
227 0.000534
228 0.000533
229 0.000530
230 0.000526
231 0.000527
232 0.000528
233 0.000529
234 0.000528
235 0.000525
236 0.000523
237 0.000522
238 0.000519
239 0.000516
240 0.000515
241 0.000513
242 0.000502
243 0.000498
244 0.000495
245 0.000495
246 0.000497
247 0.000499
248 0.000496
249 0.000493
250 0.000496
251 0.000502
252 0.000503
253 0.000503
254 0.000502
255 0.000500
256 0.000497
257 0.000491
258 0.000488
259 0.000486
260 0.000485
261 0.000484
262 0.000482
263 0.000481
264 0.000481
265 0.000476
266 0.000470
267 0.000469
268 0.000469
269 0.000466
270 0.000464
271 0.000459
272 0.000454
273 0.000451
274 0.000455
275 0.000455
276 0.000454
277 0.000455
278 0.000458
279 0.000459
280 0.000459
281 0.000455
282 0.000453
283 0.000453
284 0.000453
285 0.000448
286 0.000446
287 0.000442
288 0.000438
289 0.000436
290 0.000431
291 0.000428
292 0.000423
293 0.000419
294 0.000412
295 0.000409
296 0.000405
297 0.000400
298 0.000399
299 0.000400
300 0.000398
301 0.000394
302 0.000391
303 0.000394
304 0.000394
305 0.000395
306 0.000389
307 0.000383
308 0.000376
309 0.000374
310 0.000374
311 0.000369
312 0.000363
313 0.000358
314 0.000349
315 0.000348
316 0.000344
317 0.000342
318 0.000340
319 0.000338
320 0.000334
321 0.000333
322 0.000333
323 0.000336
324 0.000339
325 0.000344
326 0.000355
327 0.000361
328 0.000366
329 0.000368
330 0.000370
331 0.000371
332 0.000367
333 0.000359
334 0.000353
335 0.000349
336 0.000346
337 0.000339
338 0.000334
339 0.000328
340 0.000326
341 0.000325
342 0.000325
343 0.000325
344 0.000321
345 0.000319
346 0.000318
347 0.000315
348 0.000314
349 0.000314
350 0.000319
351 0.000325
352 0.000328
353 0.000332
354 0.000331
355 0.000331
356 0.000333
357 0.000336
358 0.000340
359 0.000344
360 0.000343
361 0.000341
362 0.000341
363 0.000342
364 0.000343
365 0.000346
366 0.000347
367 0.000348
368 0.000350
369 0.000355
370 0.000355
371 0.000361
372 0.000364
373 0.000365
374 0.000361
375 0.000355
376 0.000352
377 0.000347
378 0.000345
379 0.000344
380 0.000345
381 0.000349
382 0.000349
383 0.000351
384 0.000355
385 0.000359
386 0.000365
387 0.000371
388 0.000375
389 0.000381
390 0.000384
391 0.000392
392 0.000399
393 0.000405
394 0.000408
395 0.000407
396 0.000405
397 0.000407
398 0.000411
399 0.000416
400 0.000417
401 0.000415
402 0.000415
403 0.000415
404 0.000417
405 0.000416
406 0.000416
407 0.000414
408 0.000416
409 0.000414
410 0.000418
411 0.000423
412 0.000428
413 0.000432
414 0.000434
415 0.000436
416 0.000439
417 0.000443
418 0.000444
419 0.000441
420 0.000439
421 0.000439
422 0.000442
423 0.000446
424 0.000446
425 0.000444
426 0.000441
427 0.000443
428 0.000444
429 0.000443
430 0.000440
431 0.000432
432 0.000427
433 0.000423
434 0.000419
435 0.000418
436 0.000413
437 0.000405
438 0.000400
439 0.000398
440 0.000396
441 0.000395
442 0.000397
443 0.000399
444 0.000404
445 0.000409
446 0.000414
447 0.000414
448 0.000414
449 0.000413
450 0.000413
451 0.000413
452 0.000413
453 0.000416
454 0.000419
455 0.000424
456 0.000428
457 0.000429
458 0.000429
459 0.000427
460 0.000426
461 0.000424
462 0.000421
463 0.000417
464 0.000415
465 0.000414
466 0.000413
467 0.000414
468 0.000414
469 0.000414
470 0.000414
471 0.000412
472 0.000409
473 0.000404
474 0.000402
475 0.000400
476 0.000397
477 0.000389
478 0.000383
479 0.000381
480 0.000386
481 0.000388
482 0.000391
483 0.000390
484 0.000394
485 0.000398
486 0.000409
487 0.000421
488 0.000427
489 0.000425
490 0.000423
491 0.000421
492 0.000421
493 0.000421
494 0.000421
495 0.000419
496 0.000418
497 0.000415
498 0.000413
499 0.000410
500 0.000406
501 0.000402
502 0.000398
503 0.000387
504 0.000377
505 0.000371
506 0.000367
507 0.000365
508 0.000364
509 0.000361
510 0.000357
511 0.000356
512 0.000354
513 0.000352
514 0.000350
515 0.000354
516 0.000354
517 0.000358
518 0.000359
519 0.000358
520 0.000356
521 0.000353
522 0.000352
523 0.000352
524 0.000354
525 0.000355
526 0.000356
527 0.000360
528 0.000365
529 0.000370
530 0.000373
531 0.000377
532 0.000379
533 0.000380
534 0.000381
535 0.000380
536 0.000377
537 0.000372
538 0.000364
539 0.000360
540 0.000357
541 0.000354
542 0.000352
543 0.000351
544 0.000348
545 0.000345
546 0.000343
547 0.000343
548 0.000343
549 0.000339
550 0.000337
551 0.000336
552 0.000333
553 0.000336
554 0.000337
555 0.000337
556 0.000337
557 0.000335
558 0.000334
559 0.000333
560 0.000332
561 0.000331
562 0.000332
563 0.000332
564 0.000330
565 0.000326
566 0.000322
567 0.000317
568 0.000312
569 0.000309
570 0.000305
571 0.000301
572 0.000298
573 0.000299
574 0.000298
575 0.000298
576 0.000298
577 0.000301
578 0.000304
579 0.000306
580 0.000307
581 0.000311
582 0.000317
583 0.000322
584 0.000326
585 0.000328
586 0.000331
587 0.000333
588 0.000338
589 0.000343
590 0.000349
591 0.000355
592 0.000359
593 0.000364
594 0.000369
595 0.000373
596 0.000378
597 0.000382
598 0.000385
599 0.000389
600 0.000391
601 0.000391
602 0.000390
603 0.000389
604 0.000391
605 0.000391
606 0.000393
607 0.000394
608 0.000396
609 0.000398
610 0.000399
611 0.000398
612 0.000397
613 0.000395
614 0.000392
615 0.000388
616 0.000384
617 0.000382
618 0.000382
619 0.000381
620 0.000382
621 0.000383
622 0.000386
623 0.000386
624 0.000386
625 0.000386
626 0.000387
627 0.000385
628 0.000383
629 0.000379
630 0.000376
631 0.000375
632 0.000372
633 0.000371
634 0.000369
635 0.000365
636 0.000363
637 0.000364
638 0.000361
639 0.000361
640 0.000359
641 0.000357
642 0.000355
643 0.000353
644 0.000350
645 0.000348
646 0.000349
647 0.000349
648 0.000349
649 0.000347
650 0.000347
651 0.000350
652 0.000355
653 0.000358
654 0.000361
655 0.000368
656 0.000371
657 0.000375
658 0.000378
659 0.000378
660 0.000376
661 0.000378
662 0.000380
663 0.000381
664 0.000381
665 0.000379
666 0.000376
667 0.000375
668 0.000378
669 0.000381
670 0.000382
671 0.000381
672 0.000379
673 0.000377
674 0.000375
675 0.000370
676 0.000365
677 0.000363
678 0.000363
679 0.000363
680 0.000358
681 0.000354
682 0.000354
683 0.000354
684 0.000354
685 0.000352
686 0.000353
687 0.000351
688 0.000350
689 0.000349
690 0.000348
691 0.000348
692 0.000349
693 0.000349
694 0.000348
695 0.000345
696 0.000341
697 0.000341
698 0.000338
699 0.000339
700 0.000336
701 0.000334
702 0.000333
703 0.000333
704 0.000333
705 0.000330
706 0.000329
707 0.000328
708 0.000326
709 0.000324
710 0.000319
711 0.000314
712 0.000309
713 0.000306
714 0.000302
715 0.000299
716 0.000296
717 0.000295
718 0.000292
719 0.000290
720 0.000291
721 0.000291
722 0.000290
723 0.000289
724 0.000288
725 0.000287
726 0.000284
727 0.000280
728 0.000279
729 0.000277
730 0.000275
731 0.000273
732 0.000272
733 0.000270
734 0.000270
735 0.000267
736 0.000262
737 0.000259
738 0.000255
739 0.000254
740 0.000253
741 0.000249
742 0.000246
743 0.000244
744 0.000243
745 0.000241
746 0.000240
747 0.000238
748 0.000239
749 0.000238
750 0.000239
751 0.000242
752 0.000243
753 0.000242
754 0.000243
755 0.000243
756 0.000242
757 0.000240
758 0.000240
759 0.000241
760 0.000242
761 0.000240
762 0.000240
763 0.000240
764 0.000236
765 0.000232
766 0.000230
767 0.000227
768 0.000224
769 0.000221
770 0.000221
771 0.000219
772 0.000217
773 0.000216
774 0.000212
775 0.000210
776 0.000207
777 0.000203
778 0.000200
779 0.000197
780 0.000194
781 0.000192
782 0.000189
783 0.000189
784 0.000190
785 0.000193
786 0.000196
787 0.000199
788 0.000199
789 0.000197
790 0.000195
791 0.000193
792 0.000192
793 0.000190
794 0.000189
795 0.000191
796 0.000187
797 0.000186
798 0.000185
799 0.000183
800 0.000180
801 0.000177
802 0.000171
803 0.000168
804 0.000163
805 0.000158
806 0.000153
807 0.000149
808 0.000145
809 0.000141
