# i correlation
1 0.001571
2 0.001531
3 0.001493
4 0.001463
5 0.001437
6 0.001415
7 0.001391
8 0.001370
9 0.001354
10 0.001339
11 0.001328
12 0.001321
13 0.001315
14 0.001309
15 0.001300
16 0.001294
17 0.001285
18 0.001272
19 0.001263
20 0.001250
21 0.001240
22 0.001230
23 0.001222
24 0.001213
25 0.001206
26 0.001198
27 0.001191
28 0.001185
29 0.001182
30 0.001181
31 0.001179
32 0.001175
33 0.001171
34 0.001167
35 0.001161
36 0.001153
37 0.001145
38 0.001136
39 0.001126
40 0.001119
41 0.001107
42 0.001098
43 0.001088
44 0.001086
45 0.001080
46 0.001079
47 0.001076
48 0.001071
49 0.001067
50 0.001061
51 0.001059
52 0.001052
53 0.001048
54 0.001043
55 0.001036
56 0.001036
57 0.001035
58 0.001032
59 0.001029
60 0.001024
61 0.001019
62 0.001018
63 0.001016
64 0.001016
65 0.001014
66 0.001005
67 0.000994
68 0.000985
69 0.000977
70 0.000970
71 0.000964
72 0.000958
73 0.000953
74 0.000952
75 0.000948
76 0.000947
77 0.000946
78 0.000947
79 0.000946
80 0.000946
81 0.000941
82 0.000935
83 0.000932
84 0.000929
85 0.000924
86 0.000921
87 0.000920
88 0.000922
89 0.000926
90 0.000929
91 0.000934
92 0.000932
93 0.000935
94 0.000938
95 0.000936
96 0.000933
97 0.000931
98 0.000924
99 0.000917
100 0.000910
101 0.000899
102 0.000887
103 0.000878
104 0.000867
105 0.000862
106 0.000855
107 0.000849
108 0.000846
109 0.000845
110 0.000846
111 0.000842
112 0.000837
113 0.000833
114 0.000831
115 0.000832
116 0.000826
117 0.000821
118 0.000818
119 0.000815
120 0.000811
121 0.000808
122 0.000811
123 0.000811
124 0.000812
125 0.000810
126 0.000807
127 0.000805
128 0.000808
129 0.000806
130 0.000801
131 0.000796
132 0.000790
133 0.000782
134 0.000778
135 0.000773
136 0.000767
137 0.000762
138 0.000756
139 0.000753
140 0.000751
141 0.000745
142 0.000737
143 0.000730
144 0.000729
145 0.000727
146 0.000718
147 0.000710
148 0.000704
149 0.000699
150 0.000698
151 0.000694
152 0.000691
153 0.000689
154 0.000690
155 0.000691
156 0.000694
157 0.000699
158 0.000701
159 0.000704
160 0.000702
161 0.000701
162 0.000699
163 0.000696
164 0.000689
165 0.000680
166 0.000671
167 0.000661
168 0.000657
169 0.000653
170 0.000651
171 0.000651
172 0.000656
173 0.000661
174 0.000668
175 0.000674
176 0.000678
177 0.000684
178 0.000682
179 0.000681
180 0.000676
181 0.000670
182 0.000667
183 0.000664
184 0.000666
185 0.000667
186 0.000665
187 0.000662
188 0.000664
189 0.000671
190 0.000679
191 0.000684
192 0.000684
193 0.000682
194 0.000677
195 0.000669
196 0.000661
197 0.000651
198 0.000644
199 0.000639
200 0.000634
201 0.000635
202 0.000636
203 0.000640
204 0.000643
205 0.000644
206 0.000643
207 0.000641
208 0.000640
209 0.000637
210 0.000630
211 0.000620
212 0.000609
213 0.000598
214 0.000591
215 0.000585
216 0.000582
217 0.000579
218 0.000575
219 0.000571
220 0.000566
221 0.000561
222 0.000559
223 0.000558
224 0.000558
225 0.000559
226 0.000555
227 0.000552
228 0.000550
229 0.000548
230 0.000542
231 0.000536
232 0.000529
233 0.000524
234 0.000521
235 0.000517
236 0.000511
237 0.000511
238 0.000511
239 0.000514
240 0.000514
241 0.000515
242 0.000517
243 0.000518
244 0.000517
245 0.000515
246 0.000511
247 0.000506
248 0.000505
249 0.000505
250 0.000507
251 0.000509
252 0.000512
253 0.000514
254 0.000519
255 0.000521
256 0.000523
257 0.000523
258 0.000526
259 0.000528
260 0.000529
261 0.000526
262 0.000524
263 0.000520
264 0.000516
265 0.000517
266 0.000519
267 0.000519
268 0.000520
269 0.000520
270 0.000515
271 0.000509
272 0.000506
273 0.000504
274 0.000502
275 0.000499
276 0.000497
277 0.000492
278 0.000489
279 0.000488
280 0.000488
281 0.000489
282 0.000491
283 0.000489
284 0.000487
285 0.000484
286 0.000479
287 0.000476
288 0.000474
289 0.000471
290 0.000469
291 0.000465
292 0.000465
293 0.000463
294 0.000465
295 0.000466
296 0.000467
297 0.000472
298 0.000477
299 0.000482
300 0.000483
301 0.000483
302 0.000480
303 0.000479
304 0.000479
305 0.000481
306 0.000480
307 0.000480
308 0.000478
309 0.000477
310 0.000470
311 0.000466
312 0.000463
313 0.000464
314 0.000463
315 0.000461
316 0.000463
317 0.000466
318 0.000467
319 0.000466
320 0.000460
321 0.000451
322 0.000443
323 0.000438
324 0.000433
325 0.000425
326 0.000417
327 0.000410
328 0.000405
329 0.000401
330 0.000396
331 0.000393
332 0.000390
333 0.000391
334 0.000396
335 0.000396
336 0.000393
337 0.000389
338 0.000385
339 0.000382
340 0.000377
341 0.000371
342 0.000366
343 0.000363
344 0.000354
345 0.000350
346 0.000346
347 0.000346
348 0.000345
349 0.000343
350 0.000345
351 0.000348
352 0.000349
353 0.000354
354 0.000356
355 0.000357
356 0.000354
357 0.000351
358 0.000345
359 0.000344
360 0.000342
361 0.000341
362 0.000343
363 0.000349
364 0.000351
365 0.000353
366 0.000354
367 0.000357
368 0.000358
369 0.000362
370 0.000360
371 0.000356
372 0.000354
373 0.000353
374 0.000349
375 0.000346
376 0.000340
377 0.000335
378 0.000330
379 0.000326
380 0.000320
381 0.000317
382 0.000315
383 0.000313
384 0.000310
385 0.000307
386 0.000302
387 0.000300
388 0.000299
389 0.000296
390 0.000293
391 0.000292
392 0.000290
393 0.000291
394 0.000297
395 0.000297
396 0.000298
397 0.000297
398 0.000296
399 0.000295
400 0.000294
401 0.000291
402 0.000286
403 0.000281
404 0.000276
405 0.000270
406 0.000263
407 0.000260
408 0.000257
409 0.000258
410 0.000259
411 0.000259
412 0.000257
413 0.000256
414 0.000255
415 0.000253
416 0.000255
417 0.000255
418 0.000255
419 0.000255
420 0.000251
421 0.000246
422 0.000242
423 0.000239
424 0.000237
425 0.000235
426 0.000231
427 0.000227
428 0.000227
429 0.000226
430 0.000226
431 0.000226
432 0.000224
433 0.000224
434 0.000225
435 0.000224
436 0.000224
437 0.000224
438 0.000221
439 0.000221
440 0.000221
441 0.000225
442 0.000229
443 0.000233
444 0.000237
445 0.000243
446 0.000246
447 0.000249
448 0.000249
449 0.000250
450 0.000250
451 0.000252
452 0.000256
453 0.000262
454 0.000261
455 0.000260
456 0.000263
457 0.000268
458 0.000274
459 0.000277
460 0.000278
461 0.000279
462 0.000281
463 0.000282
464 0.000280
465 0.000278
466 0.000276
467 0.000272
468 0.000270
469 0.000267
470 0.000265
471 0.000263
472 0.000265
473 0.000265
474 0.000267
475 0.000270
476 0.000271
477 0.000271
478 0.000272
479 0.000273
480 0.000271
481 0.000271
482 0.000272
483 0.000275
484 0.000277
485 0.000279
486 0.000277
487 0.000279
488 0.000281
489 0.000282
490 0.000286
491 0.000291
492 0.000296
493 0.000301
494 0.000302
495 0.000300
496 0.000299
497 0.000300
498 0.000301
499 0.000304
500 0.000304
501 0.000303
502 0.000302
503 0.000305
504 0.000305
505 0.000304
506 0.000303
507 0.000303
508 0.000304
509 0.000308
510 0.000310
511 0.000312
512 0.000312
513 0.000316
514 0.000316
515 0.000314
516 0.000310
517 0.000307
518 0.000302
519 0.000300
520 0.000295
521 0.000289
522 0.000282
523 0.000278
524 0.000275
525 0.000277
526 0.000276
527 0.000279
528 0.000279
529 0.000277
530 0.000271
531 0.000265
532 0.000261
533 0.000256
534 0.000252
535 0.000245
536 0.000241
537 0.000237
538 0.000239
539 0.000240
540 0.000243
541 0.000245
542 0.000246
543 0.000247
544 0.000250
545 0.000251
546 0.000253
547 0.000254
548 0.000254
549 0.000254
550 0.000254
551 0.000253
552 0.000253
553 0.000253
554 0.000252
555 0.000252
556 0.000254
557 0.000255
558 0.000254
559 0.000253
560 0.000251
561 0.000248
562 0.000248
563 0.000249
564 0.000248
565 0.000244
566 0.000239
567 0.000234
568 0.000232
569 0.000230
570 0.000227
571 0.000227
572 0.000226
573 0.000227
574 0.000227
575 0.000232
576 0.000237
577 0.000242
578 0.000248
579 0.000251
580 0.000254
581 0.000256
582 0.000260
583 0.000260
584 0.000260
585 0.000261
586 0.000260
587 0.000260
588 0.000254
589 0.000251
590 0.000248
591 0.000242
592 0.000238
593 0.000235
594 0.000230
595 0.000223
596 0.000217
597 0.000213
598 0.000210
599 0.000208
600 0.000207
601 0.000205
602 0.000207
603 0.000211
604 0.000211
605 0.000212
606 0.000211
607 0.000210
608 0.000212
609 0.000212
610 0.000212
611 0.000212
612 0.000212
613 0.000212
614 0.000213
615 0.000213
616 0.000216
617 0.000216
618 0.000215
619 0.000215
620 0.000214
621 0.000217
622 0.000221
623 0.000222
624 0.000222
625 0.000221
626 0.000220
627 0.000216
628 0.000215
629 0.000213
630 0.000209
631 0.000205
632 0.000201
633 0.000199
634 0.000198
635 0.000200
636 0.000200
637 0.000200
638 0.000201
639 0.000200
640 0.000197
641 0.000197
642 0.000197
643 0.000197
644 0.000194
645 0.000191
646 0.000189
647 0.000189
648 0.000190
649 0.000192
650 0.000191
651 0.000190
652 0.000189
653 0.000190
654 0.000192
655 0.000191
656 0.000188
657 0.000183
658 0.000177
659 0.000173
660 0.000169
661 0.000166
662 0.000166
663 0.000165
664 0.000164
665 0.000162
666 0.000162
667 0.000162
668 0.000164
669 0.000165
670 0.000169
671 0.000169
672 0.000168
673 0.000168
674 0.000165
675 0.000165
676 0.000167
677 0.000170
678 0.000174
679 0.000177
680 0.000177
681 0.000180
682 0.000181
683 0.000181
684 0.000180
685 0.000180
686 0.000181
687 0.000182
688 0.000181
689 0.000176
690 0.000173
691 0.000169
692 0.000167
693 0.000165
694 0.000162
695 0.000159
696 0.000156
697 0.000153
698 0.000150
699 0.000148
700 0.000149
701 0.000152
702 0.000156
703 0.000158
704 0.000159
705 0.000158
706 0.000159
707 0.000159
708 0.000160
709 0.000159
710 0.000158
711 0.000155
712 0.000151
713 0.000147
714 0.000143
715 0.000138
716 0.000134
717 0.000135
718 0.000135
719 0.000133
720 0.000130
721 0.000127
722 0.000125
723 0.000124
724 0.000121
725 0.000117
726 0.000111
727 0.000106
728 0.000101
729 0.000094
730 0.000089
731 0.000084
732 0.000081
733 0.000080
734 0.000080
735 0.000080
736 0.000080
737 0.000080
738 0.000080
739 0.000081
740 0.000081
741 0.000083
742 0.000086
743 0.000086
744 0.000088
745 0.000086
746 0.000085
747 0.000085
748 0.000085
749 0.000081
750 0.000079
751 0.000075
752 0.000073
753 0.000071
754 0.000069
755 0.000069
756 0.000067
757 0.000069
758 0.000069
759 0.000070
760 0.000070
761 0.000072
762 0.000072
763 0.000071
764 0.000072
765 0.000073
766 0.000075
767 0.000077
768 0.000074
769 0.000074
770 0.000073
771 0.000074
772 0.000073
773 0.000074
774 0.000074
775 0.000073
776 0.000073
777 0.000073
778 0.000073
779 0.000075
780 0.000076
781 0.000078
782 0.000080
783 0.000083
784 0.000084
785 0.000085
786 0.000085
787 0.000083
788 0.000083
789 0.000082
790 0.000080
791 0.000077
792 0.000075
793 0.000075
794 0.000076
795 0.000077
796 0.000078
797 0.000077
798 0.000078
799 0.000076
800 0.000075
801 0.000075
802 0.000075
803 0.000075
804 0.000076
805 0.000076
806 0.000078
807 0.000081
808 0.000083
809 0.000086
