# i correlation
1 0.001619
2 0.001584
3 0.001549
4 0.001519
5 0.001493
6 0.001473
7 0.001451
8 0.001427
9 0.001411
10 0.001395
11 0.001376
12 0.001365
13 0.001351
14 0.001339
15 0.001327
16 0.001316
17 0.001308
18 0.001301
19 0.001292
20 0.001281
21 0.001270
22 0.001259
23 0.001252
24 0.001244
25 0.001235
26 0.001222
27 0.001213
28 0.001204
29 0.001202
30 0.001199
31 0.001201
32 0.001200
33 0.001195
34 0.001187
35 0.001179
36 0.001174
37 0.001172
38 0.001171
39 0.001171
40 0.001171
41 0.001167
42 0.001167
43 0.001167
44 0.001163
45 0.001158
46 0.001150
47 0.001139
48 0.001133
49 0.001124
50 0.001118
51 0.001108
52 0.001101
53 0.001092
54 0.001088
55 0.001083
56 0.001081
57 0.001080
58 0.001078
59 0.001078
60 0.001078
61 0.001078
62 0.001076
63 0.001077
64 0.001075
65 0.001074
66 0.001072
67 0.001072
68 0.001073
69 0.001070
70 0.001064
71 0.001057
72 0.001046
73 0.001033
74 0.001022
75 0.001014
76 0.001008
77 0.001007
78 0.001000
79 0.000994
80 0.000986
81 0.000983
82 0.000983
83 0.000981
84 0.000976
85 0.000965
86 0.000959
87 0.000952
88 0.000945
89 0.000939
90 0.000932
91 0.000925
92 0.000916
93 0.000910
94 0.000908
95 0.000903
96 0.000898
97 0.000893
98 0.000884
99 0.000882
100 0.000881
101 0.000882
102 0.000880
103 0.000880
104 0.000880
105 0.000877
106 0.000880
107 0.000884
108 0.000886
109 0.000890
110 0.000890
111 0.000892
112 0.000892
113 0.000897
114 0.000899
115 0.000896
116 0.000893
117 0.000889
118 0.000886
119 0.000885
120 0.000887
121 0.000890
122 0.000892
123 0.000892
124 0.000893
125 0.000892
126 0.000896
127 0.000896
128 0.000896
129 0.000891
130 0.000885
131 0.000878
132 0.000872
133 0.000868
134 0.000860
135 0.000851
136 0.000844
137 0.000840
138 0.000834
139 0.000827
140 0.000822
141 0.000817
142 0.000813
143 0.000810
144 0.000807
145 0.000802
146 0.000798
147 0.000793
148 0.000786
149 0.000784
150 0.000779
151 0.000779
152 0.000778
153 0.000782
154 0.000780
155 0.000779
156 0.000776
157 0.000770
158 0.000770
159 0.000769
160 0.000766
161 0.000762
162 0.000759
163 0.000755
164 0.000752
165 0.000748
166 0.000741
167 0.000738
168 0.000741
169 0.000743
170 0.000747
171 0.000752
172 0.000756
173 0.000756
174 0.000755
175 0.000751
176 0.000745
177 0.000743
178 0.000743
179 0.000736
180 0.000727
181 0.000719
182 0.000713
183 0.000708
184 0.000704
185 0.000704
186 0.000702
187 0.000702
188 0.000696
189 0.000695
190 0.000693
191 0.000696
192 0.000699
193 0.000703
194 0.000705
195 0.000703
196 0.000700
197 0.000696
198 0.000687
199 0.000678
200 0.000668
201 0.000663
202 0.000659
203 0.000657
204 0.000652
205 0.000647
206 0.000640
207 0.000629
208 0.000619
209 0.000611
210 0.000607
211 0.000604
212 0.000601
213 0.000598
214 0.000598
215 0.000598
216 0.000596
217 0.000596
218 0.000596
219 0.000594
220 0.000593
221 0.000592
222 0.000586
223 0.000584
224 0.000585
225 0.000586
226 0.000589
227 0.000592
228 0.000593
229 0.000593
230 0.000598
231 0.000605
232 0.000610
233 0.000618
234 0.000622
235 0.000630
236 0.000635
237 0.000646
238 0.000653
239 0.000661
240 0.000660
241 0.000662
242 0.000661
243 0.000658
244 0.000658
245 0.000655
246 0.000653
247 0.000649
248 0.000646
249 0.000640
250 0.000633
251 0.000631
252 0.000625
253 0.000621
254 0.000619
255 0.000619
256 0.000621
257 0.000620
258 0.000618
259 0.000615
260 0.000611
261 0.000607
262 0.000607
263 0.000604
264 0.000601
265 0.000599
266 0.000595
267 0.000587
268 0.000578
269 0.000572
270 0.000568
271 0.000566
272 0.000565
273 0.000565
274 0.000563
275 0.000563
276 0.000562
277 0.000561
278 0.000562
279 0.000562
280 0.000563
281 0.000565
282 0.000563
283 0.000564
284 0.000566
285 0.000569
286 0.000571
287 0.000573
288 0.000576
289 0.000579
290 0.000580
291 0.000582
292 0.000579
293 0.000577
294 0.000574
295 0.000573
296 0.000572
297 0.000572
298 0.000569
299 0.000566
300 0.000563
301 0.000558
302 0.000556
303 0.000557
304 0.000553
305 0.000551
306 0.000549
307 0.000549
308 0.000549
309 0.000547
310 0.000542
311 0.000536
312 0.000530
313 0.000524
314 0.000521
315 0.000523
316 0.000520
317 0.000520
318 0.000516
319 0.000511
320 0.000509
321 0.000506
322 0.000502
323 0.000500
324 0.000497
325 0.000493
326 0.000492
327 0.000492
328 0.000493
329 0.000489
330 0.000489
331 0.000487
332 0.000483
333 0.000479
334 0.000475
335 0.000469
336 0.000456
337 0.000445
338 0.000438
339 0.000435
340 0.000437
341 0.000440
342 0.000443
343 0.000446
344 0.000448
345 0.000451
346 0.000455
347 0.000461
348 0.000467
349 0.000473
350 0.000477
351 0.000480
352 0.000483
353 0.000481
354 0.000478
355 0.000476
356 0.000475
357 0.000474
358 0.000476
359 0.000479
360 0.000484
361 0.000487
362 0.000490
363 0.000492
364 0.000497
365 0.000502
366 0.000504
367 0.000502
368 0.000501
369 0.000498
370 0.000495
371 0.000493
372 0.000492
373 0.000488
374 0.000488
375 0.000484
376 0.000477
377 0.000468
378 0.000462
379 0.000454
380 0.000450
381 0.000445
382 0.000441
383 0.000436
384 0.000433
385 0.000427
386 0.000420
387 0.000417
388 0.000414
389 0.000415
390 0.000416
391 0.000415
392 0.000417
393 0.000417
394 0.000417
395 0.000417
396 0.000416
397 0.000416
398 0.000418
399 0.000422
400 0.000424
401 0.000422
402 0.000422
403 0.000420
404 0.000421
405 0.000421
406 0.000420
407 0.000418
408 0.000416
409 0.000417
410 0.000419
411 0.000422
412 0.000431
413 0.000433
414 0.000436
415 0.000434
416 0.000438
417 0.000443
418 0.000447
419 0.000450
420 0.000447
421 0.000444
422 0.000446
423 0.000448
424 0.000452
425 0.000451
426 0.000449
427 0.000448
428 0.000449
429 0.000454
430 0.000457
431 0.000461
432 0.000463
433 0.000465
434 0.000467
435 0.000468
436 0.000469
437 0.000470
438 0.000469
439 0.000467
440 0.000459
441 0.000456
442 0.000454
443 0.000453
444 0.000449
445 0.000445
446 0.000438
447 0.000429
448 0.000426
449 0.000423
450 0.000416
451 0.000410
452 0.000404
453 0.000396
454 0.000390
455 0.000387
456 0.000384
457 0.000382
458 0.000379
459 0.000377
460 0.000374
461 0.000374
462 0.000375
463 0.000373
464 0.000369
465 0.000365
466 0.000363
467 0.000362
468 0.000364
469 0.000365
470 0.000367
471 0.000369
472 0.000375
473 0.000377
474 0.000381
475 0.000383
476 0.000385
477 0.000392
478 0.000398
479 0.000404
480 0.000409
481 0.000415
482 0.000418
483 0.000421
484 0.000421
485 0.000420
486 0.000421
487 0.000419
488 0.000418
489 0.000416
490 0.000414
491 0.000408
492 0.000402
493 0.000399
494 0.000394
495 0.000389
496 0.000385
497 0.000378
498 0.000371
499 0.000368
500 0.000369
501 0.000370
502 0.000375
503 0.000377
504 0.000376
505 0.000378
506 0.000378
507 0.000375
508 0.000373
509 0.000370
510 0.000368
511 0.000368
512 0.000368
513 0.000368
514 0.000368
515 0.000364
516 0.000359
517 0.000358
518 0.000358
519 0.000359
520 0.000364
521 0.000364
522 0.000361
523 0.000360
524 0.000359
525 0.000359
526 0.000359
527 0.000360
528 0.000359
529 0.000354
530 0.000345
531 0.000333
532 0.000329
533 0.000325
534 0.000322
535 0.000319
536 0.000317
537 0.000316
538 0.000320
539 0.000319
540 0.000319
541 0.000317
542 0.000318
543 0.000321
544 0.000323
545 0.000330
546 0.000338
547 0.000339
548 0.000340
549 0.000339
550 0.000339
551 0.000338
552 0.000338
553 0.000337
554 0.000337
555 0.000337
556 0.000338
557 0.000340
558 0.000341
559 0.000342
560 0.000341
561 0.000340
562 0.000340
563 0.000342
564 0.000341
565 0.000344
566 0.000341
567 0.000341
568 0.000341
569 0.000343
570 0.000345
571 0.000345
572 0.000345
573 0.000339
574 0.000335
575 0.000331
576 0.000328
577 0.000327
578 0.000326
579 0.000324
580 0.000321
581 0.000320
582 0.000321
583 0.000321
584 0.000323
585 0.000325
586 0.000329
587 0.000331
588 0.000336
589 0.000338
590 0.000339
591 0.000338
592 0.000337
593 0.000335
594 0.000334
595 0.000336
596 0.000338
597 0.000343
598 0.000345
599 0.000347
600 0.000348
601 0.000352
602 0.000354
603 0.000357
604 0.000359
605 0.000361
606 0.000365
607 0.000370
608 0.000374
609 0.000378
610 0.000379
611 0.000380
612 0.000376
613 0.000372
614 0.000370
615 0.000372
616 0.000371
617 0.000371
618 0.000366
619 0.000361
620 0.000358
621 0.000355
622 0.000350
623 0.000348
624 0.000344
625 0.000338
626 0.000334
627 0.000329
628 0.000327
629 0.000322
630 0.000321
631 0.000318
632 0.000318
633 0.000320
634 0.000321
635 0.000319
636 0.000319
637 0.000319
638 0.000318
639 0.000316
640 0.000318
641 0.000318
642 0.000317
643 0.000315
644 0.000310
645 0.000306
646 0.000303
647 0.000302
648 0.000298
649 0.000298
650 0.000294
651 0.000292
652 0.000290
653 0.000287
654 0.000286
655 0.000287
656 0.000289
657 0.000291
658 0.000294
659 0.000295
660 0.000297
661 0.000299
662 0.000298
663 0.000299
664 0.000301
665 0.000305
666 0.000308
667 0.000311
668 0.000314
669 0.000316
670 0.000318
671 0.000320
672 0.000320
673 0.000321
674 0.000319
675 0.000320
676 0.000322
677 0.000320
678 0.000322
679 0.000321
680 0.000322
681 0.000319
682 0.000317
683 0.000315
684 0.000311
685 0.000306
686 0.000298
687 0.000292
688 0.000287
689 0.000283
690 0.000279
691 0.000275
692 0.000275
693 0.000273
694 0.000271
695 0.000268
696 0.000266
697 0.000267
698 0.000267
699 0.000268
700 0.000266
701 0.000265
702 0.000263
703 0.000260
704 0.000259
705 0.000260
706 0.000258
707 0.000259
708 0.000259
709 0.000259
710 0.000260
711 0.000261
712 0.000261
713 0.000261
714 0.000262
715 0.000266
716 0.000266
717 0.000267
718 0.000267
719 0.000267
720 0.000266
721 0.000266
722 0.000265
723 0.000263
724 0.000262
725 0.000261
726 0.000260
727 0.000259
728 0.000259
729 0.000260
730 0.000260
731 0.000260
732 0.000257
733 0.000255
734 0.000253
735 0.000250
736 0.000246
737 0.000243
738 0.000239
739 0.000240
740 0.000241
741 0.000242
742 0.000243
743 0.000243
744 0.000244
745 0.000240
746 0.000240
747 0.000237
748 0.000234
749 0.000229
750 0.000225
751 0.000219
752 0.000215
753 0.000210
754 0.000203
755 0.000197
756 0.000191
757 0.000186
758 0.000184
759 0.000185
760 0.000187
761 0.000189
762 0.000190
763 0.000190
764 0.000191
765 0.000192
766 0.000194
767 0.000193
768 0.000190
769 0.000188
770 0.000185
771 0.000183
772 0.000181
773 0.000180
774 0.000179
775 0.000179
776 0.000179
777 0.000179
778 0.000177
779 0.000177
780 0.000175
781 0.000174
782 0.000173
783 0.000173
784 0.000171
785 0.000171
786 0.000171
787 0.000171
788 0.000169
789 0.000169
790 0.000169
791 0.000168
792 0.000167
793 0.000166
794 0.000165
795 0.000162
796 0.000161
797 0.000158
798 0.000156
799 0.000153
800 0.000151
801 0.000150
802 0.000151
803 0.000150
804 0.000151
805 0.000151
806 0.000151
807 0.000149
808 0.000148
809 0.000149
