# i correlation
1 0.001538
2 0.001499
3 0.001463
4 0.001432
5 0.001404
6 0.001382
7 0.001356
8 0.001330
9 0.001308
10 0.001287
11 0.001265
12 0.001245
13 0.001226
14 0.001208
15 0.001195
16 0.001187
17 0.001176
18 0.001163
19 0.001155
20 0.001148
21 0.001142
22 0.001135
23 0.001129
24 0.001121
25 0.001111
26 0.001108
27 0.001102
28 0.001095
29 0.001091
30 0.001089
31 0.001085
32 0.001082
33 0.001077
34 0.001072
35 0.001066
36 0.001061
37 0.001054
38 0.001049
39 0.001047
40 0.001047
41 0.001046
42 0.001042
43 0.001035
44 0.001025
45 0.001018
46 0.001015
47 0.001006
48 0.000997
49 0.000988
50 0.000981
51 0.000973
52 0.000965
53 0.000959
54 0.000949
55 0.000941
56 0.000933
57 0.000931
58 0.000932
59 0.000930
60 0.000929
61 0.000929
62 0.000934
63 0.000937
64 0.000938
65 0.000932
66 0.000931
67 0.000929
68 0.000924
69 0.000918
70 0.000910
71 0.000904
72 0.000897
73 0.000887
74 0.000882
75 0.000878
76 0.000872
77 0.000871
78 0.000869
79 0.000866
80 0.000861
81 0.000854
82 0.000849
83 0.000844
84 0.000841
85 0.000839
86 0.000834
87 0.000826
88 0.000823
89 0.000817
90 0.000815
91 0.000814
92 0.000818
93 0.000828
94 0.000835
95 0.000839
96 0.000842
97 0.000839
98 0.000840
99 0.000845
100 0.000849
101 0.000850
102 0.000847
103 0.000845
104 0.000847
105 0.000847
106 0.000848
107 0.000846
108 0.000845
109 0.000843
110 0.000839
111 0.000833
112 0.000830
113 0.000826
114 0.000823
115 0.000823
116 0.000823
117 0.000822
118 0.000823
119 0.000821
120 0.000820
121 0.000818
122 0.000819
123 0.000816
124 0.000811
125 0.000810
126 0.000806
127 0.000801
128 0.000795
129 0.000790
130 0.000785
131 0.000774
132 0.000761
133 0.000753
134 0.000741
135 0.000735
136 0.000727
137 0.000715
138 0.000710
139 0.000708
140 0.000704
141 0.000700
142 0.000701
143 0.000700
144 0.000700
145 0.000698
146 0.000695
147 0.000687
148 0.000682
149 0.000677
150 0.000675
151 0.000673
152 0.000673
153 0.000672
154 0.000672
155 0.000671
156 0.000666
157 0.000664
158 0.000655
159 0.000647
160 0.000642
161 0.000633
162 0.000630
163 0.000628
164 0.000625
165 0.000621
166 0.000619
167 0.000613
168 0.000607
169 0.000599
170 0.000598
171 0.000598
172 0.000598
173 0.000596
174 0.000589
175 0.000581
176 0.000574
177 0.000567
178 0.000559
179 0.000554
180 0.000549
181 0.000542
182 0.000535
183 0.000531
184 0.000527
185 0.000525
186 0.000524
187 0.000519
188 0.000520
189 0.000517
190 0.000516
191 0.000514
192 0.000515
193 0.000512
194 0.000510
195 0.000508
196 0.000505
197 0.000506
198 0.000503
199 0.000499
200 0.000499
201 0.000501
202 0.000503
203 0.000505
204 0.000504
205 0.000506
206 0.000511
207 0.000520
208 0.000526
209 0.000529
210 0.000532
211 0.000533
212 0.000536
213 0.000542
214 0.000546
215 0.000549
216 0.000549
217 0.000554
218 0.000560
219 0.000565
220 0.000565
221 0.000568
222 0.000567
223 0.000570
224 0.000570
225 0.000565
226 0.000558
227 0.000550
228 0.000544
229 0.000541
230 0.000536
231 0.000531
232 0.000527
233 0.000521
234 0.000517
235 0.000511
236 0.000505
237 0.000500
238 0.000496
239 0.000490
240 0.000487
241 0.000484
242 0.000481
243 0.000483
244 0.000486
245 0.000487
246 0.000487
247 0.000488
248 0.000493
249 0.000499
250 0.000507
251 0.000510
252 0.000513
253 0.000510
254 0.000505
255 0.000499
256 0.000493
257 0.000482
258 0.000475
259 0.000469
260 0.000461
261 0.000456
262 0.000445
263 0.000436
264 0.000430
265 0.000426
266 0.000422
267 0.000423
268 0.000425
269 0.000428
270 0.000428
271 0.000431
272 0.000431
273 0.000433
274 0.000435
275 0.000437
276 0.000435
277 0.000435
278 0.000428
279 0.000421
280 0.000417
281 0.000417
282 0.000414
283 0.000411
284 0.000409
285 0.000405
286 0.000400
287 0.000396
288 0.000388
289 0.000381
290 0.000376
291 0.000372
292 0.000368
293 0.000367
294 0.000359
295 0.000357
296 0.000354
297 0.000350
298 0.000346
299 0.000341
300 0.000338
301 0.000339
302 0.000340
303 0.000336
304 0.000331
305 0.000324
306 0.000316
307 0.000315
308 0.000312
309 0.000310
310 0.000309
311 0.000307
312 0.000307
313 0.000312
314 0.000319
315 0.000325
316 0.000331
317 0.000335
318 0.000341
319 0.000343
320 0.000341
321 0.000337
322 0.000337
323 0.000338
324 0.000340
325 0.000344
326 0.000343
327 0.000347
328 0.000349
329 0.000345
330 0.000345
331 0.000344
332 0.000340
333 0.000341
334 0.000341
335 0.000342
336 0.000345
337 0.000348
338 0.000347
339 0.000347
340 0.000346
341 0.000348
342 0.000348
343 0.000349
344 0.000354
345 0.000359
346 0.000363
347 0.000365
348 0.000365
349 0.000363
350 0.000359
351 0.000360
352 0.000357
353 0.000356
354 0.000356
355 0.000352
356 0.000347
357 0.000341
358 0.000335
359 0.000329
360 0.000325
361 0.000322
362 0.000315
363 0.000311
364 0.000310
365 0.000308
366 0.000305
367 0.000309
368 0.000313
369 0.000314
370 0.000316
371 0.000317
372 0.000315
373 0.000316
374 0.000317
375 0.000322
376 0.000327
377 0.000334
378 0.000340
379 0.000342
380 0.000345
381 0.000349
382 0.000347
383 0.000350
384 0.000350
385 0.000350
386 0.000351
387 0.000354
388 0.000351
389 0.000349
390 0.000349
391 0.000346
392 0.000343
393 0.000343
394 0.000345
395 0.000344
396 0.000341
397 0.000339
398 0.000338
399 0.000335
400 0.000334
401 0.000329
402 0.000325
403 0.000324
404 0.000322
405 0.000318
406 0.000314
407 0.000313
408 0.000309
409 0.000313
410 0.000314
411 0.000314
412 0.000312
413 0.000314
414 0.000311
415 0.000310
416 0.000310
417 0.000308
418 0.000305
419 0.000304
420 0.000305
421 0.000306
422 0.000306
423 0.000306
424 0.000304
425 0.000303
426 0.000305
427 0.000306
428 0.000303
429 0.000302
430 0.000302
431 0.000304
432 0.000305
433 0.000306
434 0.000303
435 0.000300
436 0.000298
437 0.000298
438 0.000298
439 0.000302
440 0.000307
441 0.000312
442 0.000314
443 0.000318
444 0.000322
445 0.000327
446 0.000335
447 0.000343
448 0.000347
449 0.000351
450 0.000352
451 0.000353
452 0.000356
453 0.000359
454 0.000362
455 0.000364
456 0.000366
457 0.000368
458 0.000369
459 0.000367
460 0.000362
461 0.000362
462 0.000362
463 0.000360
464 0.000360
465 0.000356
466 0.000350
467 0.000347
468 0.000343
469 0.000340
470 0.000339
471 0.000337
472 0.000337
473 0.000338
474 0.000337
475 0.000337
476 0.000338
477 0.000339
478 0.000340
479 0.000340
480 0.000337
481 0.000334
482 0.000330
483 0.000328
484 0.000325
485 0.000321
486 0.000320
487 0.000322
488 0.000326
489 0.000333
490 0.000339
491 0.000344
492 0.000347
493 0.000355
494 0.000364
495 0.000370
496 0.000376
497 0.000381
498 0.000386
499 0.000393
500 0.000398
501 0.000399
502 0.000397
503 0.000396
504 0.000395
505 0.000392
506 0.000390
507 0.000383
508 0.000379
509 0.000374
510 0.000369
511 0.000369
512 0.000363
513 0.000358
514 0.000351
515 0.000347
516 0.000346
517 0.000344
518 0.000342
519 0.000341
520 0.000340
521 0.000339
522 0.000335
523 0.000332
524 0.000329
525 0.000329
526 0.000327
527 0.000327
528 0.000324
529 0.000322
530 0.000317
531 0.000319
532 0.000318
533 0.000317
534 0.000317
535 0.000315
536 0.000317
537 0.000317
538 0.000317
539 0.000321
540 0.000324
541 0.000325
542 0.000329
543 0.000329
544 0.000326
545 0.000324
546 0.000322
547 0.000320
548 0.000317
549 0.000312
550 0.000308
551 0.000306
552 0.000303
553 0.000300
554 0.000296
555 0.000293
556 0.000290
557 0.000291
558 0.000292
559 0.000293
560 0.000293
561 0.000294
562 0.000294
563 0.000291
564 0.000287
565 0.000283
566 0.000284
567 0.000281
568 0.000283
569 0.000282
570 0.000284
571 0.000284
572 0.000284
573 0.000282
574 0.000281
575 0.000282
576 0.000283
577 0.000287
578 0.000290
579 0.000290
580 0.000287
581 0.000284
582 0.000281
583 0.000282
584 0.000282
585 0.000284
586 0.000284
587 0.000286
588 0.000284
589 0.000283
590 0.000280
591 0.000280
592 0.000279
593 0.000279
594 0.000281
595 0.000282
596 0.000284
597 0.000287
598 0.000290
599 0.000291
600 0.000298
601 0.000303
602 0.000306
603 0.000309
604 0.000315
605 0.000317
606 0.000319
607 0.000319
608 0.000317
609 0.000315
610 0.000314
611 0.000313
612 0.000312
613 0.000309
614 0.000306
615 0.000300
616 0.000299
617 0.000297
618 0.000296
619 0.000294
620 0.000293
621 0.000293
622 0.000290
623 0.000290
624 0.000291
625 0.000290
626 0.000289
627 0.000290
628 0.000291
629 0.000291
630 0.000292
631 0.000289
632 0.000288
633 0.000288
634 0.000286
635 0.000283
636 0.000280
637 0.000278
638 0.000276
639 0.000273
640 0.000273
641 0.000274
642 0.000275
643 0.000273
644 0.000271
645 0.000267
646 0.000268
647 0.000268
648 0.000264
649 0.000264
650 0.000264
651 0.000266
652 0.000266
653 0.000265
654 0.000268
655 0.000268
656 0.000268
657 0.000268
658 0.000270
659 0.000270
660 0.000269
661 0.000270
662 0.000270
663 0.000271
664 0.000274
665 0.000277
666 0.000278
667 0.000280
668 0.000280
669 0.000279
670 0.000278
671 0.000283
672 0.000288
673 0.000290
674 0.000290
675 0.000290
676 0.000288
677 0.000284
678 0.000282
679 0.000282
680 0.000281
681 0.000278
682 0.000276
683 0.000276
684 0.000272
685 0.000270
686 0.000267
687 0.000263
688 0.000259
689 0.000252
690 0.000245
691 0.000243
692 0.000240
693 0.000237
694 0.000234
695 0.000233
696 0.000233
697 0.000233
698 0.000231
699 0.000229
700 0.000231
701 0.000232
702 0.000232
703 0.000231
704 0.000232
705 0.000232
706 0.000230
707 0.000228
708 0.000227
709 0.000224
710 0.000222
711 0.000222
712 0.000225
713 0.000228
714 0.000232
715 0.000233
716 0.000232
717 0.000231
718 0.000231
719 0.000231
720 0.000229
721 0.000229
722 0.000229
723 0.000232
724 0.000233
725 0.000234
726 0.000236
727 0.000235
728 0.000236
729 0.000235
730 0.000236
731 0.000237
732 0.000239
733 0.000238
734 0.000237
735 0.000234
736 0.000231
737 0.000225
738 0.000218
739 0.000214
740 0.000213
741 0.000210
742 0.000208
743 0.000205
744 0.000201
745 0.000200
746 0.000201
747 0.000203
748 0.000202
749 0.000203
750 0.000204
751 0.000206
752 0.000205
753 0.000203
754 0.000201
755 0.000198
756 0.000192
757 0.000189
758 0.000187
759 0.000182
760 0.000180
761 0.000178
762 0.000177
763 0.000173
764 0.000172
765 0.000170
766 0.000168
767 0.000167
768 0.000166
769 0.000164
770 0.000161
771 0.000160
772 0.000157
773 0.000154
774 0.000151
775 0.000146
776 0.000143
777 0.000142
778 0.000137
779 0.000132
780 0.000129
781 0.000127
782 0.000123
783 0.000116
784 0.000112
785 0.000105
786 0.000100
787 0.000095
788 0.000092
789 0.000088
790 0.000087
791 0.000084
792 0.000083
793 0.000084
794 0.000088
795 0.000089
796 0.000092
797 0.000095
798 0.000096
799 0.000094
800 0.000097
801 0.000099
802 0.000100
803 0.000100
804 0.000101
805 0.000097
806 0.000095
807 0.000093
808 0.000094
809 0.000093
