# i correlation
1 0.001606
2 0.001565
3 0.001530
4 0.001499
5 0.001471
6 0.001450
7 0.001430
8 0.001414
9 0.001401
10 0.001391
11 0.001384
12 0.001371
13 0.001355
14 0.001341
15 0.001332
16 0.001329
17 0.001321
18 0.001314
19 0.001306
20 0.001301
21 0.001294
22 0.001285
23 0.001274
24 0.001264
25 0.001252
26 0.001239
27 0.001231
28 0.001221
29 0.001212
30 0.001202
31 0.001194
32 0.001193
33 0.001193
34 0.001190
35 0.001184
36 0.001178
37 0.001176
38 0.001170
39 0.001166
40 0.001160
41 0.001157
42 0.001153
43 0.001152
44 0.001147
45 0.001143
46 0.001134
47 0.001122
48 0.001115
49 0.001113
50 0.001111
51 0.001109
52 0.001108
53 0.001111
54 0.001113
55 0.001110
56 0.001105
57 0.001102
58 0.001099
59 0.001094
60 0.001090
61 0.001087
62 0.001081
63 0.001077
64 0.001076
65 0.001072
66 0.001065
67 0.001066
68 0.001061
69 0.001062
70 0.001064
71 0.001059
72 0.001058
73 0.001052
74 0.001048
75 0.001041
76 0.001036
77 0.001030
78 0.001029
79 0.001020
80 0.001013
81 0.001005
82 0.000993
83 0.000981
84 0.000972
85 0.000962
86 0.000954
87 0.000947
88 0.000943
89 0.000937
90 0.000928
91 0.000922
92 0.000918
93 0.000913
94 0.000909
95 0.000903
96 0.000901
97 0.000901
98 0.000895
99 0.000887
100 0.000879
101 0.000874
102 0.000872
103 0.000871
104 0.000875
105 0.000876
106 0.000873
107 0.000871
108 0.000872
109 0.000870
110 0.000864
111 0.000856
112 0.000848
113 0.000846
114 0.000848
115 0.000851
116 0.000852
117 0.000850
118 0.000845
119 0.000838
120 0.000830
121 0.000828
122 0.000826
123 0.000825
124 0.000826
125 0.000829
126 0.000829
127 0.000827
128 0.000824
129 0.000823
130 0.000822
131 0.000822
132 0.000822
133 0.000822
134 0.000824
135 0.000827
136 0.000829
137 0.000830
138 0.000828
139 0.000829
140 0.000831
141 0.000833
142 0.000831
143 0.000826
144 0.000818
145 0.000815
146 0.000813
147 0.000812
148 0.000809
149 0.000805
150 0.000806
151 0.000807
152 0.000807
153 0.000806
154 0.000804
155 0.000799
156 0.000798
157 0.000799
158 0.000806
159 0.000812
160 0.000815
161 0.000819
162 0.000820
163 0.000823
164 0.000821
165 0.000811
166 0.000803
167 0.000795
168 0.000790
169 0.000789
170 0.000787
171 0.000785
172 0.000779
173 0.000775
174 0.000772
175 0.000769
176 0.000767
177 0.000761
178 0.000758
179 0.000759
180 0.000756
181 0.000753
182 0.000754
183 0.000751
184 0.000744
185 0.000741
186 0.000736
187 0.000727
188 0.000717
189 0.000703
190 0.000696
191 0.000691
192 0.000686
193 0.000688
194 0.000688
195 0.000689
196 0.000692
197 0.000693
198 0.000690
199 0.000689
200 0.000686
201 0.000684
202 0.000685
203 0.000684
204 0.000678
205 0.000674
206 0.000671
207 0.000670
208 0.000670
209 0.000667
210 0.000670
211 0.000670
212 0.000665
213 0.000661
214 0.000662
215 0.000661
216 0.000658
217 0.000658
218 0.000658
219 0.000660
220 0.000657
221 0.000654
222 0.000648
223 0.000643
224 0.000637
225 0.000632
226 0.000627
227 0.000624
228 0.000625
229 0.000626
230 0.000630
231 0.000635
232 0.000638
233 0.000640
234 0.000641
235 0.000645
236 0.000649
237 0.000651
238 0.000655
239 0.000657
240 0.000655
241 0.000653
242 0.000650
243 0.000645
244 0.000642
245 0.000637
246 0.000628
247 0.000625
248 0.000626
249 0.000623
250 0.000623
251 0.000627
252 0.000629
253 0.000627
254 0.000625
255 0.000624
256 0.000621
257 0.000618
258 0.000614
259 0.000605
260 0.000602
261 0.000596
262 0.000587
263 0.000580
264 0.000573
265 0.000564
266 0.000557
267 0.000552
268 0.000550
269 0.000546
270 0.000540
271 0.000536
272 0.000536
273 0.000534
274 0.000535
275 0.000539
276 0.000536
277 0.000534
278 0.000537
279 0.000541
280 0.000543
281 0.000542
282 0.000537
283 0.000531
284 0.000529
285 0.000525
286 0.000522
287 0.000520
288 0.000520
289 0.000520
290 0.000522
291 0.000526
292 0.000529
293 0.000530
294 0.000529
295 0.000527
296 0.000526
297 0.000525
298 0.000525
299 0.000530
300 0.000533
301 0.000537
302 0.000543
303 0.000548
304 0.000554
305 0.000559
306 0.000563
307 0.000566
308 0.000567
309 0.000568
310 0.000569
311 0.000574
312 0.000580
313 0.000581
314 0.000577
315 0.000572
316 0.000565
317 0.000558
318 0.000550
319 0.000542
320 0.000532
321 0.000525
322 0.000523
323 0.000523
324 0.000526
325 0.000529
326 0.000531
327 0.000529
328 0.000525
329 0.000517
330 0.000505
331 0.000490
332 0.000481
333 0.000473
334 0.000465
335 0.000458
336 0.000453
337 0.000447
338 0.000445
339 0.000444
340 0.000439
341 0.000437
342 0.000437
343 0.000436
344 0.000440
345 0.000446
346 0.000449
347 0.000445
348 0.000443
349 0.000441
350 0.000440
351 0.000441
352 0.000440
353 0.000441
354 0.000441
355 0.000446
356 0.000451
357 0.000456
358 0.000456
359 0.000457
360 0.000460
361 0.000460
362 0.000462
363 0.000461
364 0.000460
365 0.000461
366 0.000465
367 0.000469
368 0.000470
369 0.000470
370 0.000471
371 0.000471
372 0.000471
373 0.000471
374 0.000466
375 0.000460
376 0.000456
377 0.000454
378 0.000454
379 0.000456
380 0.000459
381 0.000461
382 0.000464
383 0.000466
384 0.000471
385 0.000473
386 0.000471
387 0.000471
388 0.000474
389 0.000479
390 0.000481
391 0.000478
392 0.000475
393 0.000473
394 0.000472
395 0.000469
396 0.000471
397 0.000470
398 0.000469
399 0.000465
400 0.000461
401 0.000458
402 0.000451
403 0.000445
404 0.000441
405 0.000436
406 0.000432
407 0.000428
408 0.000426
409 0.000425
410 0.000427
411 0.000426
412 0.000426
413 0.000423
414 0.000424
415 0.000426
416 0.000426
417 0.000423
418 0.000422
419 0.000417
420 0.000413
421 0.000416
422 0.000419
423 0.000420
424 0.000420
425 0.000417
426 0.000415
427 0.000412
428 0.000405
429 0.000402
430 0.000402
431 0.000400
432 0.000399
433 0.000399
434 0.000398
435 0.000396
436 0.000393
437 0.000392
438 0.000395
439 0.000397
440 0.000398
441 0.000401
442 0.000404
443 0.000404
444 0.000402
445 0.000396
446 0.000391
447 0.000387
448 0.000384
449 0.000382
450 0.000381
451 0.000381
452 0.000379
453 0.000380
454 0.000380
455 0.000380
456 0.000373
457 0.000369
458 0.000364
459 0.000360
460 0.000359
461 0.000361
462 0.000365
463 0.000371
464 0.000373
465 0.000372
466 0.000373
467 0.000377
468 0.000376
469 0.000374
470 0.000371
471 0.000371
472 0.000369
473 0.000368
474 0.000368
475 0.000368
476 0.000368
477 0.000367
478 0.000364
479 0.000359
480 0.000354
481 0.000350
482 0.000349
483 0.000347
484 0.000345
485 0.000345
486 0.000346
487 0.000349
488 0.000349
489 0.000348
490 0.000349
491 0.000349
492 0.000351
493 0.000352
494 0.000352
495 0.000352
496 0.000354
497 0.000355
498 0.000354
499 0.000353
500 0.000351
501 0.000347
502 0.000345
503 0.000344
504 0.000342
505 0.000339
506 0.000339
507 0.000340
508 0.000343
509 0.000345
510 0.000345
511 0.000346
512 0.000345
513 0.000344
514 0.000341
515 0.000340
516 0.000335
517 0.000332
518 0.000329
519 0.000328
520 0.000332
521 0.000332
522 0.000333
523 0.000329
524 0.000327
525 0.000324
526 0.000323
527 0.000322
528 0.000321
529 0.000319
530 0.000321
531 0.000324
532 0.000325
533 0.000321
534 0.000319
535 0.000319
536 0.000319
537 0.000317
538 0.000315
539 0.000312
540 0.000308
541 0.000308
542 0.000308
543 0.000311
544 0.000314
545 0.000317
546 0.000320
547 0.000325
548 0.000328
549 0.000329
550 0.000327
551 0.000324
552 0.000321
553 0.000317
554 0.000317
555 0.000320
556 0.000323
557 0.000327
558 0.000327
559 0.000331
560 0.000334
561 0.000337
562 0.000336
563 0.000338
564 0.000340
565 0.000345
566 0.000347
567 0.000349
568 0.000351
569 0.000351
570 0.000352
571 0.000353
572 0.000355
573 0.000352
574 0.000348
575 0.000344
576 0.000341
577 0.000340
578 0.000338
579 0.000334
580 0.000334
581 0.000333
582 0.000329
583 0.000327
584 0.000326
585 0.000322
586 0.000319
587 0.000315
588 0.000309
589 0.000306
590 0.000303
591 0.000298
592 0.000295
593 0.000291
594 0.000287
595 0.000282
596 0.000279
597 0.000275
598 0.000273
599 0.000271
600 0.000271
601 0.000271
602 0.000270
603 0.000271
604 0.000273
605 0.000275
606 0.000280
607 0.000282
608 0.000285
609 0.000285
610 0.000281
611 0.000279
612 0.000276
613 0.000273
614 0.000274
615 0.000273
616 0.000270
617 0.000270
618 0.000273
619 0.000273
620 0.000273
621 0.000270
622 0.000267
623 0.000266
624 0.000269
625 0.000273
626 0.000282
627 0.000287
628 0.000288
629 0.000291
630 0.000293
631 0.000289
632 0.000285
633 0.000280
634 0.000279
635 0.000281
636 0.000281
637 0.000283
638 0.000281
639 0.000278
640 0.000275
641 0.000271
642 0.000266
643 0.000261
644 0.000255
645 0.000253
646 0.000253
647 0.000252
648 0.000251
649 0.000251
650 0.000251
651 0.000253
652 0.000255
653 0.000257
654 0.000257
655 0.000254
656 0.000251
657 0.000245
658 0.000241
659 0.000237
660 0.000233
661 0.000230
662 0.000229
663 0.000228
664 0.000228
665 0.000229
666 0.000226
667 0.000225
668 0.000226
669 0.000229
670 0.000233
671 0.000238
672 0.000242
673 0.000246
674 0.000247
675 0.000245
676 0.000245
677 0.000243
678 0.000245
679 0.000244
680 0.000244
681 0.000245
682 0.000243
683 0.000242
684 0.000241
685 0.000240
686 0.000237
687 0.000232
688 0.000226
689 0.000220
690 0.000217
691 0.000212
692 0.000207
693 0.000205
694 0.000204
695 0.000204
696 0.000204
697 0.000204
698 0.000203
699 0.000201
700 0.000198
701 0.000195
702 0.000192
703 0.000190
704 0.000188
705 0.000188
706 0.000189
707 0.000189
708 0.000189
709 0.000186
710 0.000183
711 0.000179
712 0.000174
713 0.000170
714 0.000167
715 0.000166
716 0.000166
717 0.000166
718 0.000166
719 0.000162
720 0.000157
721 0.000154
722 0.000154
723 0.000157
724 0.000157
725 0.000158
726 0.000158
727 0.000159
728 0.000157
729 0.000155
730 0.000153
731 0.000150
732 0.000146
733 0.000143
734 0.000141
735 0.000139
736 0.000138
737 0.000135
738 0.000133
739 0.000133
740 0.000132
741 0.000132
742 0.000134
743 0.000139
744 0.000141
745 0.000145
746 0.000145
747 0.000144
748 0.000146
749 0.000146
750 0.000146
751 0.000148
752 0.000148
753 0.000147
754 0.000147
755 0.000145
756 0.000145
757 0.000141
758 0.000136
759 0.000131
760 0.000127
761 0.000123
762 0.000119
763 0.000113
764 0.000105
765 0.000101
766 0.000099
767 0.000099
768 0.000098
769 0.000097
770 0.000095
771 0.000095
772 0.000091
773 0.000087
774 0.000082
775 0.000077
776 0.000074
777 0.000071
778 0.000071
779 0.000070
780 0.000070
781 0.000068
782 0.000068
783 0.000066
784 0.000062
785 0.000059
786 0.000059
787 0.000060
788 0.000061
789 0.000062
790 0.000061
791 0.000058
792 0.000054
793 0.000049
794 0.000046
795 0.000044
796 0.000042
797 0.000040
798 0.000038
799 0.000037
800 0.000036
801 0.000036
802 0.000034
803 0.000033
804 0.000032
805 0.000033
806 0.000036
807 0.000038
808 0.000041
809 0.000042
