# i correlation
1 0.001409
2 0.001368
3 0.001332
4 0.001299
5 0.001275
6 0.001254
7 0.001239
8 0.001227
9 0.001212
10 0.001199
11 0.001185
12 0.001173
13 0.001164
14 0.001151
15 0.001140
16 0.001133
17 0.001122
18 0.001111
19 0.001095
20 0.001076
21 0.001062
22 0.001049
23 0.001042
24 0.001039
25 0.001035
26 0.001029
27 0.001022
28 0.001020
29 0.001012
30 0.001000
31 0.000990
32 0.000980
33 0.000972
34 0.000968
35 0.000964
36 0.000956
37 0.000947
38 0.000935
39 0.000923
40 0.000911
41 0.000901
42 0.000891
43 0.000882
44 0.000875
45 0.000872
46 0.000869
47 0.000862
48 0.000853
49 0.000841
50 0.000836
51 0.000832
52 0.000826
53 0.000821
54 0.000818
55 0.000813
56 0.000809
57 0.000808
58 0.000808
59 0.000811
60 0.000811
61 0.000805
62 0.000798
63 0.000792
64 0.000788
65 0.000783
66 0.000776
67 0.000771
68 0.000766
69 0.000761
70 0.000755
71 0.000754
72 0.000752
73 0.000749
74 0.000747
75 0.000745
76 0.000744
77 0.000739
78 0.000731
79 0.000723
80 0.000717
81 0.000710
82 0.000705
83 0.000701
84 0.000696
85 0.000689
86 0.000680
87 0.000676
88 0.000676
89 0.000677
90 0.000676
91 0.000677
92 0.000674
93 0.000669
94 0.000662
95 0.000655
96 0.000648
97 0.000648
98 0.000647
99 0.000648
100 0.000647
101 0.000646
102 0.000648
103 0.000643
104 0.000638
105 0.000631
106 0.000628
107 0.000624
108 0.000616
109 0.000611
110 0.000606
111 0.000607
112 0.000609
113 0.000614
114 0.000619
115 0.000623
116 0.000626
117 0.000628
118 0.000631
119 0.000635
120 0.000638
121 0.000639
122 0.000642
123 0.000644
124 0.000645
125 0.000645
126 0.000646
127 0.000644
128 0.000640
129 0.000637
130 0.000643
131 0.000645
132 0.000646
133 0.000645
134 0.000649
135 0.000656
136 0.000656
137 0.000659
138 0.000663
139 0.000662
140 0.000662
141 0.000659
142 0.000656
143 0.000650
144 0.000645
145 0.000643
146 0.000644
147 0.000644
148 0.000651
149 0.000651
150 0.000653
151 0.000655
152 0.000653
153 0.000651
154 0.000642
155 0.000633
156 0.000628
157 0.000622
158 0.000621
159 0.000617
160 0.000614
161 0.000612
162 0.000607
163 0.000604
164 0.000605
165 0.000602
166 0.000601
167 0.000596
168 0.000587
169 0.000583
170 0.000578
171 0.000573
172 0.000569
173 0.000570
174 0.000572
175 0.000575
176 0.000574
177 0.000573
178 0.000566
179 0.000558
180 0.000551
181 0.000546
182 0.000548
183 0.000552
184 0.000554
185 0.000557
186 0.000557
187 0.000556
188 0.000551
189 0.000546
190 0.000541
191 0.000537
192 0.000533
193 0.000532
194 0.000531
195 0.000529
196 0.000523
197 0.000516
198 0.000511
199 0.000507
200 0.000503
201 0.000502
202 0.000502
203 0.000504
204 0.000506
205 0.000504
206 0.000503
207 0.000499
208 0.000492
209 0.000488
210 0.000486
211 0.000486
212 0.000485
213 0.000479
214 0.000472
215 0.000468
216 0.000459
217 0.000452
218 0.000449
219 0.000447
220 0.000448
221 0.000448
222 0.000445
223 0.000442
224 0.000439
225 0.000433
226 0.000423
227 0.000414
228 0.000411
229 0.000410
230 0.000407
231 0.000406
232 0.000407
233 0.000409
234 0.000409
235 0.000411
236 0.000409
237 0.000408
238 0.000406
239 0.000403
240 0.000399
241 0.000396
242 0.000390
243 0.000384
244 0.000383
245 0.000384
246 0.000384
247 0.000385
248 0.000383
249 0.000382
250 0.000378
251 0.000375
252 0.000374
253 0.000376
254 0.000375
255 0.000375
256 0.000373
257 0.000373
258 0.000372
259 0.000370
260 0.000368
261 0.000370
262 0.000375
263 0.000380
264 0.000382
265 0.000386
266 0.000388
267 0.000386
268 0.000384
269 0.000384
270 0.000385
271 0.000388
272 0.000396
273 0.000399
274 0.000401
275 0.000401
276 0.000400
277 0.000400
278 0.000398
279 0.000398
280 0.000395
281 0.000390
282 0.000383
283 0.000378
284 0.000374
285 0.000368
286 0.000366
287 0.000361
288 0.000359
289 0.000359
290 0.000359
291 0.000358
292 0.000357
293 0.000355
294 0.000354
295 0.000353
296 0.000353
297 0.000351
298 0.000350
299 0.000355
300 0.000362
301 0.000367
302 0.000368
303 0.000368
304 0.000367
305 0.000364
306 0.000362
307 0.000363
308 0.000363
309 0.000367
310 0.000370
311 0.000367
312 0.000369
313 0.000369
314 0.000366
315 0.000361
316 0.000356
317 0.000353
318 0.000348
319 0.000340
320 0.000335
321 0.000332
322 0.000329
323 0.000330
324 0.000333
325 0.000336
326 0.000339
327 0.000343
328 0.000347
329 0.000351
330 0.000356
331 0.000359
332 0.000360
333 0.000362
334 0.000365
335 0.000371
336 0.000376
337 0.000378
338 0.000379
339 0.000377
340 0.000375
341 0.000375
342 0.000374
343 0.000371
344 0.000368
345 0.000367
346 0.000372
347 0.000374
348 0.000377
349 0.000378
350 0.000378
351 0.000378
352 0.000380
353 0.000380
354 0.000381
355 0.000384
356 0.000380
357 0.000376
358 0.000374
359 0.000375
360 0.000377
361 0.000375
362 0.000373
363 0.000372
364 0.000368
365 0.000363
366 0.000360
367 0.000356
368 0.000353
369 0.000354
370 0.000355
371 0.000358
372 0.000357
373 0.000354
374 0.000350
375 0.000347
376 0.000346
377 0.000349
378 0.000347
379 0.000349
380 0.000344
381 0.000338
382 0.000333
383 0.000333
384 0.000330
385 0.000327
386 0.000329
387 0.000331
388 0.000335
389 0.000336
390 0.000337
391 0.000335
392 0.000337
393 0.000338
394 0.000337
395 0.000339
396 0.000340
397 0.000340
398 0.000340
399 0.000336
400 0.000331
401 0.000324
402 0.000320
403 0.000315
404 0.000315
405 0.000315
406 0.000316
407 0.000320
408 0.000322
409 0.000322
410 0.000319
411 0.000318
412 0.000315
413 0.000311
414 0.000311
415 0.000312
416 0.000306
417 0.000299
418 0.000290
419 0.000281
420 0.000277
421 0.000270
422 0.000266
423 0.000270
424 0.000273
425 0.000276
426 0.000279
427 0.000282
428 0.000282
429 0.000279
430 0.000283
431 0.000283
432 0.000283
433 0.000283
434 0.000281
435 0.000280
436 0.000280
437 0.000280
438 0.000281
439 0.000284
440 0.000283
441 0.000277
442 0.000273
443 0.000271
444 0.000269
445 0.000263
446 0.000259
447 0.000254
448 0.000254
449 0.000254
450 0.000254
451 0.000255
452 0.000257
453 0.000257
454 0.000258
455 0.000260
456 0.000262
457 0.000260
458 0.000257
459 0.000256
460 0.000259
461 0.000263
462 0.000267
463 0.000268
464 0.000269
465 0.000271
466 0.000271
467 0.000276
468 0.000281
469 0.000284
470 0.000285
471 0.000283
472 0.000277
473 0.000274
474 0.000272
475 0.000267
476 0.000266
477 0.000266
478 0.000266
479 0.000266
480 0.000266
481 0.000266
482 0.000264
483 0.000268
484 0.000272
485 0.000276
486 0.000280
487 0.000282
488 0.000280
489 0.000276
490 0.000274
491 0.000273
492 0.000273
493 0.000272
494 0.000273
495 0.000276
496 0.000280
497 0.000286
498 0.000291
499 0.000297
500 0.000299
501 0.000297
502 0.000294
503 0.000291
504 0.000287
505 0.000284
506 0.000283
507 0.000284
508 0.000285
509 0.000287
510 0.000289
511 0.000292
512 0.000295
513 0.000299
514 0.000302
515 0.000305
516 0.000306
517 0.000306
518 0.000304
519 0.000303
520 0.000301
521 0.000301
522 0.000297
523 0.000294
524 0.000293
525 0.000293
526 0.000289
527 0.000289
528 0.000291
529 0.000292
530 0.000292
531 0.000290
532 0.000287
533 0.000284
534 0.000280
535 0.000278
536 0.000274
537 0.000270
538 0.000267
539 0.000262
540 0.000256
541 0.000252
542 0.000248
543 0.000244
544 0.000242
545 0.000246
546 0.000247
547 0.000246
548 0.000244
549 0.000242
550 0.000241
551 0.000236
552 0.000232
553 0.000230
554 0.000227
555 0.000223
556 0.000218
557 0.000214
558 0.000214
559 0.000213
560 0.000214
561 0.000214
562 0.000215
563 0.000216
564 0.000212
565 0.000211
566 0.000209
567 0.000205
568 0.000203
569 0.000198
570 0.000192
571 0.000189
572 0.000187
573 0.000189
574 0.000191
575 0.000194
576 0.000196
577 0.000192
578 0.000189
579 0.000185
580 0.000181
581 0.000179
582 0.000173
583 0.000168
584 0.000163
585 0.000158
586 0.000158
587 0.000158
588 0.000159
589 0.000161
590 0.000163
591 0.000165
592 0.000165
593 0.000165
594 0.000166
595 0.000163
596 0.000160
597 0.000157
598 0.000154
599 0.000154
600 0.000157
601 0.000157
602 0.000156
603 0.000154
604 0.000153
605 0.000152
606 0.000149
607 0.000147
608 0.000149
609 0.000149
610 0.000149
611 0.000148
612 0.000148
613 0.000151
614 0.000152
615 0.000153
616 0.000153
617 0.000153
618 0.000154
619 0.000156
620 0.000156
621 0.000157
622 0.000159
623 0.000158
624 0.000160
625 0.000161
626 0.000165
627 0.000168
628 0.000170
629 0.000173
630 0.000174
631 0.000176
632 0.000181
633 0.000185
634 0.000186
635 0.000188
636 0.000190
637 0.000193
638 0.000195
639 0.000198
640 0.000201
641 0.000202
642 0.000201
643 0.000201
644 0.000202
645 0.000204
646 0.000203
647 0.000203
648 0.000203
649 0.000203
650 0.000204
651 0.000206
652 0.000206
653 0.000206
654 0.000205
655 0.000203
656 0.000200
657 0.000195
658 0.000193
659 0.000193
660 0.000195
661 0.000198
662 0.000201
663 0.000203
664 0.000205
665 0.000206
666 0.000204
667 0.000205
668 0.000203
669 0.000203
670 0.000203
671 0.000203
672 0.000206
673 0.000206
674 0.000204
675 0.000202
676 0.000200
677 0.000198
678 0.000198
679 0.000196
680 0.000195
681 0.000190
682 0.000186
683 0.000182
684 0.000179
685 0.000177
686 0.000176
687 0.000177
688 0.000178
689 0.000179
690 0.000182
691 0.000185
692 0.000186
693 0.000187
694 0.000184
695 0.000183
696 0.000183
697 0.000181
698 0.000182
699 0.000182
700 0.000183
701 0.000184
702 0.000184
703 0.000184
704 0.000186
705 0.000185
706 0.000188
707 0.000189
708 0.000190
709 0.000190
710 0.000188
711 0.000188
712 0.000188
713 0.000187
714 0.000187
715 0.000187
716 0.000187
717 0.000187
718 0.000184
719 0.000182
720 0.000179
721 0.000176
722 0.000171
723 0.000167
724 0.000165
725 0.000164
726 0.000163
727 0.000161
728 0.000159
729 0.000158
730 0.000155
731 0.000151
732 0.000151
733 0.000150
734 0.000148
735 0.000146
736 0.000144
737 0.000141
738 0.000139
739 0.000138
740 0.000137
741 0.000136
742 0.000135
743 0.000133
744 0.000132
745 0.000131
746 0.000129
747 0.000126
748 0.000123
749 0.000118
750 0.000116
751 0.000112
752 0.000110
753 0.000106
754 0.000103
755 0.000099
756 0.000096
757 0.000092
758 0.000086
759 0.000082
760 0.000079
761 0.000078
762 0.000079
763 0.000081
764 0.000085
765 0.000086
766 0.000088
767 0.000090
768 0.000090
769 0.000091
770 0.000091
771 0.000092
772 0.000091
773 0.000087
774 0.000086
775 0.000085
776 0.000082
777 0.000080
778 0.000081
779 0.000083
780 0.000085
781 0.000086
782 0.000086
783 0.000085
784 0.000085
785 0.000086
786 0.000087
787 0.000088
788 0.000087
789 0.000083
790 0.000083
791 0.000083
792 0.000083
793 0.000082
794 0.000081
795 0.000079
796 0.000078
797 0.000078
798 0.000080
799 0.000082
800 0.000082
801 0.000084
802 0.000085
803 0.000086
804 0.000086
805 0.000084
806 0.000084
807 0.000085
808 0.000086
809 0.000088
