# i correlation
1 0.001694
2 0.001657
3 0.001627
4 0.001599
5 0.001572
6 0.001549
7 0.001526
8 0.001509
9 0.001495
10 0.001485
11 0.001475
12 0.001464
13 0.001454
14 0.001440
15 0.001429
16 0.001419
17 0.001408
18 0.001400
19 0.001387
20 0.001373
21 0.001362
22 0.001355
23 0.001347
24 0.001339
25 0.001335
26 0.001335
27 0.001330
28 0.001324
29 0.001316
30 0.001311
31 0.001306
32 0.001299
33 0.001293
34 0.001286
35 0.001278
36 0.001267
37 0.001255
38 0.001242
39 0.001231
40 0.001219
41 0.001210
42 0.001202
43 0.001197
44 0.001192
45 0.001186
46 0.001183
47 0.001178
48 0.001169
49 0.001162
50 0.001154
51 0.001150
52 0.001150
53 0.001151
54 0.001149
55 0.001143
56 0.001144
57 0.001149
58 0.001149
59 0.001144
60 0.001138
61 0.001134
62 0.001130
63 0.001125
64 0.001119
65 0.001113
66 0.001107
67 0.001098
68 0.001094
69 0.001090
70 0.001082
71 0.001075
72 0.001066
73 0.001056
74 0.001048
75 0.001041
76 0.001035
77 0.001027
78 0.001020
79 0.001019
80 0.001017
81 0.001012
82 0.001005
83 0.001002
84 0.001001
85 0.000996
86 0.000987
87 0.000982
88 0.000979
89 0.000976
90 0.000973
91 0.000972
92 0.000969
93 0.000968
94 0.000965
95 0.000961
96 0.000956
97 0.000951
98 0.000948
99 0.000943
100 0.000939
101 0.000937
102 0.000933
103 0.000930
104 0.000927
105 0.000924
106 0.000920
107 0.000915
108 0.000910
109 0.000907
110 0.000902
111 0.000898
112 0.000888
113 0.000883
114 0.000876
115 0.000875
116 0.000877
117 0.000877
118 0.000876
119 0.000879
120 0.000879
121 0.000877
122 0.000874
123 0.000869
124 0.000864
125 0.000863
126 0.000865
127 0.000868
128 0.000868
129 0.000867
130 0.000866
131 0.000866
132 0.000867
133 0.000866
134 0.000864
135 0.000858
136 0.000857
137 0.000859
138 0.000858
139 0.000855
140 0.000848
141 0.000848
142 0.000854
143 0.000857
144 0.000862
145 0.000866
146 0.000869
147 0.000868
148 0.000866
149 0.000862
150 0.000858
151 0.000851
152 0.000852
153 0.000853
154 0.000852
155 0.000849
156 0.000845
157 0.000842
158 0.000840
159 0.000839
160 0.000837
161 0.000835
162 0.000832
163 0.000827
164 0.000820
165 0.000809
166 0.000802
167 0.000791
168 0.000780
169 0.000767
170 0.000756
171 0.000744
172 0.000742
173 0.000741
174 0.000737
175 0.000735
176 0.000732
177 0.000731
178 0.000736
179 0.000738
180 0.000739
181 0.000734
182 0.000725
183 0.000716
184 0.000710
185 0.000707
186 0.000703
187 0.000699
188 0.000698
189 0.000698
190 0.000699
191 0.000702
192 0.000701
193 0.000699
194 0.000694
195 0.000687
196 0.000680
197 0.000671
198 0.000666
199 0.000662
200 0.000658
201 0.000659
202 0.000661
203 0.000663
204 0.000664
205 0.000668
206 0.000672
207 0.000675
208 0.000676
209 0.000677
210 0.000681
211 0.000685
212 0.000690
213 0.000689
214 0.000686
215 0.000686
216 0.000681
217 0.000680
218 0.000679
219 0.000678
220 0.000677
221 0.000677
222 0.000674
223 0.000671
224 0.000669
225 0.000664
226 0.000664
227 0.000660
228 0.000656
229 0.000651
230 0.000643
231 0.000636
232 0.000632
233 0.000627
234 0.000622
235 0.000618
236 0.000621
237 0.000626
238 0.000627
239 0.000627
240 0.000620
241 0.000614
242 0.000609
243 0.000605
244 0.000599
245 0.000596
246 0.000593
247 0.000593
248 0.000592
249 0.000592
250 0.000591
251 0.000590
252 0.000588
253 0.000585
254 0.000582
255 0.000580
256 0.000577
257 0.000576
258 0.000575
259 0.000574
260 0.000571
261 0.000575
262 0.000576
263 0.000582
264 0.000589
265 0.000595
266 0.000599
267 0.000602
268 0.000603
269 0.000606
270 0.000604
271 0.000606
272 0.000605
273 0.000607
274 0.000610
275 0.000611
276 0.000611
277 0.000607
278 0.000605
279 0.000603
280 0.000606
281 0.000607
282 0.000609
283 0.000612
284 0.000614
285 0.000616
286 0.000621
287 0.000621
288 0.000616
289 0.000618
290 0.000616
291 0.000613
292 0.000608
293 0.000602
294 0.000597
295 0.000597
296 0.000597
297 0.000595
298 0.000594
299 0.000591
300 0.000593
301 0.000592
302 0.000590
303 0.000586
304 0.000584
305 0.000581
306 0.000579
307 0.000577
308 0.000578
309 0.000573
310 0.000568
311 0.000564
312 0.000560
313 0.000553
314 0.000547
315 0.000541
316 0.000536
317 0.000533
318 0.000530
319 0.000525
320 0.000523
321 0.000520
322 0.000518
323 0.000516
324 0.000512
325 0.000511
326 0.000508
327 0.000508
328 0.000506
329 0.000502
330 0.000499
331 0.000492
332 0.000490
333 0.000487
334 0.000482
335 0.000477
336 0.000472
337 0.000471
338 0.000472
339 0.000474
340 0.000475
341 0.000474
342 0.000473
343 0.000474
344 0.000472
345 0.000471
346 0.000468
347 0.000466
348 0.000466
349 0.000462
350 0.000457
351 0.000454
352 0.000450
353 0.000446
354 0.000447
355 0.000450
356 0.000450
357 0.000450
358 0.000452
359 0.000451
360 0.000448
361 0.000444
362 0.000437
363 0.000432
364 0.000431
365 0.000433
366 0.000438
367 0.000440
368 0.000436
369 0.000433
370 0.000429
371 0.000428
372 0.000425
373 0.000420
374 0.000417
375 0.000412
376 0.000408
377 0.000402
378 0.000398
379 0.000397
380 0.000396
381 0.000396
382 0.000397
383 0.000398
384 0.000401
385 0.000404
386 0.000402
387 0.000400
388 0.000396
389 0.000395
390 0.000394
391 0.000395
392 0.000396
393 0.000395
394 0.000394
395 0.000394
396 0.000393
397 0.000393
398 0.000394
399 0.000397
400 0.000401
401 0.000405
402 0.000408
403 0.000409
404 0.000407
405 0.000405
406 0.000403
407 0.000399
408 0.000394
409 0.000393
410 0.000393
411 0.000399
412 0.000400
413 0.000406
414 0.000408
415 0.000409
416 0.000411
417 0.000417
418 0.000419
419 0.000420
420 0.000419
421 0.000414
422 0.000409
423 0.000406
424 0.000404
425 0.000403
426 0.000404
427 0.000406
428 0.000408
429 0.000411
430 0.000410
431 0.000408
432 0.000407
433 0.000405
434 0.000403
435 0.000400
436 0.000399
437 0.000398
438 0.000395
439 0.000395
440 0.000389
441 0.000384
442 0.000382
443 0.000382
444 0.000382
445 0.000384
446 0.000386
447 0.000389
448 0.000391
449 0.000394
450 0.000396
451 0.000395
452 0.000392
453 0.000389
454 0.000387
455 0.000384
456 0.000380
457 0.000374
458 0.000368
459 0.000364
460 0.000360
461 0.000353
462 0.000347
463 0.000344
464 0.000344
465 0.000340
466 0.000335
467 0.000330
468 0.000325
469 0.000322
470 0.000320
471 0.000317
472 0.000312
473 0.000308
474 0.000306
475 0.000305
476 0.000303
477 0.000298
478 0.000294
479 0.000288
480 0.000284
481 0.000283
482 0.000282
483 0.000280
484 0.000278
485 0.000277
486 0.000279
487 0.000281
488 0.000281
489 0.000280
490 0.000280
491 0.000279
492 0.000282
493 0.000286
494 0.000287
495 0.000288
496 0.000288
497 0.000289
498 0.000292
499 0.000290
500 0.000288
501 0.000286
502 0.000286
503 0.000287
504 0.000288
505 0.000287
506 0.000284
507 0.000281
508 0.000280
509 0.000279
510 0.000279
511 0.000280
512 0.000282
513 0.000283
514 0.000279
515 0.000279
516 0.000279
517 0.000280
518 0.000281
519 0.000281
520 0.000280
521 0.000283
522 0.000284
523 0.000284
524 0.000283
525 0.000278
526 0.000273
527 0.000271
528 0.000269
529 0.000263
530 0.000259
531 0.000255
532 0.000251
533 0.000249
534 0.000248
535 0.000247
536 0.000246
537 0.000248
538 0.000248
539 0.000252
540 0.000257
541 0.000258
542 0.000258
543 0.000257
544 0.000260
545 0.000265
546 0.000266
547 0.000269
548 0.000271
549 0.000273
550 0.000274
551 0.000276
552 0.000277
553 0.000280
554 0.000281
555 0.000282
556 0.000282
557 0.000281
558 0.000281
559 0.000283
560 0.000281
561 0.000279
562 0.000278
563 0.000276
564 0.000274
565 0.000271
566 0.000268
567 0.000266
568 0.000261
569 0.000261
570 0.000261
571 0.000263
572 0.000267
573 0.000271
574 0.000276
575 0.000284
576 0.000289
577 0.000293
578 0.000296
579 0.000297
580 0.000296
581 0.000298
582 0.000297
583 0.000298
584 0.000299
585 0.000298
586 0.000295
587 0.000293
588 0.000288
589 0.000282
590 0.000278
591 0.000277
592 0.000279
593 0.000280
594 0.000279
595 0.000276
596 0.000273
597 0.000271
598 0.000268
599 0.000263
600 0.000258
601 0.000254
602 0.000254
603 0.000259
604 0.000262
605 0.000267
606 0.000275
607 0.000280
608 0.000285
609 0.000290
610 0.000293
611 0.000295
612 0.000297
613 0.000299
614 0.000300
615 0.000301
616 0.000304
617 0.000303
618 0.000301
619 0.000300
620 0.000296
621 0.000294
622 0.000289
623 0.000284
624 0.000279
625 0.000273
626 0.000267
627 0.000263
628 0.000261
629 0.000261
630 0.000261
631 0.000262
632 0.000264
633 0.000262
634 0.000262
635 0.000261
636 0.000260
637 0.000261
638 0.000263
639 0.000266
640 0.000270
641 0.000276
642 0.000281
643 0.000284
644 0.000286
645 0.000286
646 0.000285
647 0.000285
648 0.000284
649 0.000283
650 0.000284
651 0.000282
652 0.000280
653 0.000278
654 0.000276
655 0.000275
656 0.000275
657 0.000274
658 0.000272
659 0.000267
660 0.000265
661 0.000262
662 0.000259
663 0.000254
664 0.000250
665 0.000249
666 0.000248
667 0.000246
668 0.000244
669 0.000241
670 0.000238
671 0.000236
672 0.000233
673 0.000229
674 0.000226
675 0.000225
676 0.000223
677 0.000222
678 0.000221
679 0.000220
680 0.000219
681 0.000215
682 0.000210
683 0.000208
684 0.000207
685 0.000206
686 0.000203
687 0.000202
688 0.000200
689 0.000197
690 0.000194
691 0.000192
692 0.000188
693 0.000184
694 0.000181
695 0.000177
696 0.000175
697 0.000174
698 0.000171
699 0.000167
700 0.000166
701 0.000165
702 0.000164
703 0.000167
704 0.000166
705 0.000165
706 0.000167
707 0.000168
708 0.000168
709 0.000167
710 0.000167
711 0.000166
712 0.000165
713 0.000164
714 0.000165
715 0.000166
716 0.000166
717 0.000167
718 0.000166
719 0.000166
720 0.000166
721 0.000166
722 0.000166
723 0.000167
724 0.000166
725 0.000166
726 0.000166
727 0.000163
728 0.000159
729 0.000156
730 0.000153
731 0.000150
732 0.000149
733 0.000149
734 0.000147
735 0.000146
736 0.000148
737 0.000149
738 0.000151
739 0.000151
740 0.000150
741 0.000150
742 0.000148
743 0.000144
744 0.000139
745 0.000136
746 0.000133
747 0.000130
748 0.000127
749 0.000125
750 0.000125
751 0.000124
752 0.000122
753 0.000121
754 0.000120
755 0.000121
756 0.000122
757 0.000122
758 0.000121
759 0.000122
760 0.000126
761 0.000126
762 0.000126
763 0.000126
764 0.000128
765 0.000128
766 0.000129
767 0.000131
768 0.000132
769 0.000133
770 0.000132
771 0.000132
772 0.000132
773 0.000132
774 0.000129
775 0.000127
776 0.000125
777 0.000123
778 0.000122
779 0.000119
780 0.000114
781 0.000107
782 0.000103
783 0.000100
784 0.000096
785 0.000094
786 0.000093
787 0.000093
788 0.000092
789 0.000090
790 0.000091
791 0.000091
792 0.000090
793 0.000091
794 0.000090
795 0.000090
796 0.000090
797 0.000089
798 0.000088
799 0.000087
800 0.000085
801 0.000085
802 0.000086
803 0.000087
804 0.000090
805 0.000091
806 0.000091
807 0.000088
808 0.000086
809 0.000084
