# i correlation
1 0.001701
2 0.001661
3 0.001627
4 0.001603
5 0.001577
6 0.001553
7 0.001537
8 0.001522
9 0.001505
10 0.001484
11 0.001466
12 0.001452
13 0.001442
14 0.001426
15 0.001415
16 0.001404
17 0.001393
18 0.001375
19 0.001359
20 0.001348
21 0.001337
22 0.001327
23 0.001316
24 0.001311
25 0.001306
26 0.001305
27 0.001304
28 0.001304
29 0.001304
30 0.001304
31 0.001298
32 0.001287
33 0.001278
34 0.001270
35 0.001265
36 0.001257
37 0.001251
38 0.001242
39 0.001232
40 0.001223
41 0.001216
42 0.001206
43 0.001197
44 0.001191
45 0.001186
46 0.001181
47 0.001172
48 0.001165
49 0.001155
50 0.001151
51 0.001151
52 0.001150
53 0.001147
54 0.001143
55 0.001138
56 0.001136
57 0.001137
58 0.001133
59 0.001131
60 0.001128
61 0.001124
62 0.001115
63 0.001104
64 0.001096
65 0.001091
66 0.001087
67 0.001082
68 0.001078
69 0.001071
70 0.001064
71 0.001055
72 0.001044
73 0.001034
74 0.001023
75 0.001011
76 0.001000
77 0.000992
78 0.000983
79 0.000973
80 0.000961
81 0.000952
82 0.000945
83 0.000938
84 0.000929
85 0.000919
86 0.000915
87 0.000910
88 0.000910
89 0.000912
90 0.000915
91 0.000915
92 0.000914
93 0.000909
94 0.000907
95 0.000905
96 0.000905
97 0.000903
98 0.000903
99 0.000899
100 0.000891
101 0.000882
102 0.000874
103 0.000868
104 0.000863
105 0.000860
106 0.000855
107 0.000851
108 0.000843
109 0.000834
110 0.000830
111 0.000824
112 0.000817
113 0.000811
114 0.000807
115 0.000803
116 0.000800
117 0.000800
118 0.000802
119 0.000805
120 0.000811
121 0.000818
122 0.000822
123 0.000824
124 0.000826
125 0.000826
126 0.000825
127 0.000825
128 0.000825
129 0.000824
130 0.000825
131 0.000827
132 0.000826
133 0.000827
134 0.000828
135 0.000831
136 0.000832
137 0.000830
138 0.000826
139 0.000822
140 0.000819
141 0.000816
142 0.000812
143 0.000808
144 0.000800
145 0.000794
146 0.000790
147 0.000786
148 0.000784
149 0.000782
150 0.000780
151 0.000783
152 0.000782
153 0.000780
154 0.000777
155 0.000781
156 0.000785
157 0.000791
158 0.000791
159 0.000789
160 0.000788
161 0.000784
162 0.000777
163 0.000774
164 0.000771
165 0.000768
166 0.000764
167 0.000755
168 0.000750
169 0.000745
170 0.000739
171 0.000730
172 0.000725
173 0.000723
174 0.000722
175 0.000720
176 0.000717
177 0.000712
178 0.000709
179 0.000706
180 0.000698
181 0.000696
182 0.000696
183 0.000698
184 0.000698
185 0.000698
186 0.000706
187 0.000715
188 0.000721
189 0.000726
190 0.000733
191 0.000745
192 0.000752
193 0.000756
194 0.000762
195 0.000765
196 0.000766
197 0.000762
198 0.000758
199 0.000757
200 0.000758
201 0.000753
202 0.000748
203 0.000746
204 0.000743
205 0.000739
206 0.000736
207 0.000732
208 0.000729
209 0.000728
210 0.000728
211 0.000727
212 0.000723
213 0.000719
214 0.000714
215 0.000709
216 0.000708
217 0.000708
218 0.000708
219 0.000704
220 0.000703
221 0.000701
222 0.000696
223 0.000688
224 0.000680
225 0.000676
226 0.000671
227 0.000668
228 0.000663
229 0.000660
230 0.000654
231 0.000646
232 0.000638
233 0.000629
234 0.000623
235 0.000621
236 0.000620
237 0.000616
238 0.000610
239 0.000601
240 0.000598
241 0.000592
242 0.000586
243 0.000584
244 0.000584
245 0.000587
246 0.000589
247 0.000594
248 0.000602
249 0.000606
250 0.000605
251 0.000607
252 0.000610
253 0.000610
254 0.000607
255 0.000607
256 0.000610
257 0.000619
258 0.000622
259 0.000625
260 0.000627
261 0.000628
262 0.000630
263 0.000632
264 0.000633
265 0.000637
266 0.000640
267 0.000642
268 0.000642
269 0.000642
270 0.000640
271 0.000637
272 0.000631
273 0.000628
274 0.000622
275 0.000618
276 0.000612
277 0.000607
278 0.000604
279 0.000603
280 0.000600
281 0.000598
282 0.000593
283 0.000589
284 0.000583
285 0.000579
286 0.000580
287 0.000585
288 0.000591
289 0.000595
290 0.000598
291 0.000596
292 0.000596
293 0.000596
294 0.000597
295 0.000598
296 0.000603
297 0.000606
298 0.000609
299 0.000608
300 0.000608
301 0.000605
302 0.000604
303 0.000600
304 0.000599
305 0.000598
306 0.000598
307 0.000597
308 0.000599
309 0.000601
310 0.000598
311 0.000594
312 0.000590
313 0.000587
314 0.000585
315 0.000585
316 0.000588
317 0.000592
318 0.000596
319 0.000598
320 0.000599
321 0.000596
322 0.000594
323 0.000594
324 0.000597
325 0.000603
326 0.000610
327 0.000618
328 0.000621
329 0.000622
330 0.000624
331 0.000624
332 0.000625
333 0.000626
334 0.000627
335 0.000627
336 0.000627
337 0.000624
338 0.000621
339 0.000623
340 0.000618
341 0.000613
342 0.000610
343 0.000609
344 0.000607
345 0.000604
346 0.000603
347 0.000604
348 0.000606
349 0.000604
350 0.000601
351 0.000600
352 0.000596
353 0.000590
354 0.000583
355 0.000575
356 0.000568
357 0.000563
358 0.000557
359 0.000552
360 0.000550
361 0.000549
362 0.000548
363 0.000546
364 0.000546
365 0.000547
366 0.000546
367 0.000545
368 0.000543
369 0.000545
370 0.000546
371 0.000544
372 0.000539
373 0.000536
374 0.000532
375 0.000528
376 0.000526
377 0.000527
378 0.000531
379 0.000534
380 0.000534
381 0.000535
382 0.000533
383 0.000533
384 0.000531
385 0.000531
386 0.000537
387 0.000538
388 0.000535
389 0.000528
390 0.000525
391 0.000523
392 0.000523
393 0.000521
394 0.000520
395 0.000518
396 0.000516
397 0.000515
398 0.000513
399 0.000512
400 0.000514
401 0.000513
402 0.000510
403 0.000508
404 0.000507
405 0.000504
406 0.000503
407 0.000502
408 0.000503
409 0.000502
410 0.000502
411 0.000500
412 0.000496
413 0.000491
414 0.000489
415 0.000486
416 0.000487
417 0.000488
418 0.000486
419 0.000482
420 0.000478
421 0.000477
422 0.000479
423 0.000482
424 0.000485
425 0.000487
426 0.000487
427 0.000489
428 0.000488
429 0.000487
430 0.000486
431 0.000487
432 0.000487
433 0.000483
434 0.000479
435 0.000476
436 0.000471
437 0.000467
438 0.000464
439 0.000464
440 0.000462
441 0.000458
442 0.000451
443 0.000445
444 0.000441
445 0.000436
446 0.000431
447 0.000429
448 0.000430
449 0.000431
450 0.000428
451 0.000428
452 0.000425
453 0.000426
454 0.000427
455 0.000426
456 0.000428
457 0.000429
458 0.000430
459 0.000432
460 0.000432
461 0.000434
462 0.000437
463 0.000439
464 0.000442
465 0.000447
466 0.000452
467 0.000454
468 0.000457
469 0.000461
470 0.000465
471 0.000466
472 0.000469
473 0.000471
474 0.000476
475 0.000481
476 0.000481
477 0.000480
478 0.000479
479 0.000478
480 0.000475
481 0.000473
482 0.000472
483 0.000474
484 0.000479
485 0.000481
486 0.000480
487 0.000478
488 0.000477
489 0.000475
490 0.000473
491 0.000469
492 0.000465
493 0.000461
494 0.000455
495 0.000450
496 0.000445
497 0.000441
498 0.000436
499 0.000432
500 0.000430
501 0.000427
502 0.000423
503 0.000418
504 0.000414
505 0.000411
506 0.000407
507 0.000404
508 0.000403
509 0.000400
510 0.000396
511 0.000394
512 0.000390
513 0.000389
514 0.000385
515 0.000383
516 0.000383
517 0.000386
518 0.000392
519 0.000395
520 0.000394
521 0.000396
522 0.000400
523 0.000403
524 0.000404
525 0.000408
526 0.000412
527 0.000415
528 0.000415
529 0.000412
530 0.000411
531 0.000410
532 0.000407
533 0.000404
534 0.000402
535 0.000402
536 0.000404
537 0.000402
538 0.000403
539 0.000403
540 0.000403
541 0.000401
542 0.000398
543 0.000395
544 0.000392
545 0.000390
546 0.000387
547 0.000383
548 0.000381
549 0.000380
550 0.000377
551 0.000374
552 0.000370
553 0.000368
554 0.000366
555 0.000366
556 0.000367
557 0.000368
558 0.000368
559 0.000366
560 0.000363
561 0.000358
562 0.000352
563 0.000349
564 0.000351
565 0.000354
566 0.000355
567 0.000356
568 0.000356
569 0.000358
570 0.000358
571 0.000357
572 0.000355
573 0.000355
574 0.000355
575 0.000355
576 0.000355
577 0.000355
578 0.000353
579 0.000352
580 0.000352
581 0.000352
582 0.000353
583 0.000352
584 0.000354
585 0.000358
586 0.000363
587 0.000366
588 0.000369
589 0.000371
590 0.000374
591 0.000378
592 0.000383
593 0.000386
594 0.000391
595 0.000397
596 0.000404
597 0.000409
598 0.000411
599 0.000412
600 0.000412
601 0.000412
602 0.000411
603 0.000408
604 0.000406
605 0.000404
606 0.000404
607 0.000404
608 0.000405
609 0.000403
610 0.000402
611 0.000401
612 0.000396
613 0.000391
614 0.000389
615 0.000389
616 0.000389
617 0.000391
618 0.000393
619 0.000392
620 0.000388
621 0.000389
622 0.000389
623 0.000392
624 0.000393
625 0.000395
626 0.000398
627 0.000401
628 0.000399
629 0.000394
630 0.000393
631 0.000389
632 0.000388
633 0.000385
634 0.000383
635 0.000384
636 0.000383
637 0.000382
638 0.000381
639 0.000382
640 0.000379
641 0.000377
642 0.000373
643 0.000374
644 0.000371
645 0.000368
646 0.000366
647 0.000365
648 0.000363
649 0.000359
650 0.000358
651 0.000356
652 0.000356
653 0.000354
654 0.000353
655 0.000348
656 0.000346
657 0.000343
658 0.000340
659 0.000342
660 0.000342
661 0.000343
662 0.000342
663 0.000344
664 0.000344
665 0.000344
666 0.000346
667 0.000348
668 0.000350
669 0.000354
670 0.000357
671 0.000360
672 0.000361
673 0.000363
674 0.000367
675 0.000371
676 0.000373
677 0.000375
678 0.000378
679 0.000380
680 0.000383
681 0.000385
682 0.000386
683 0.000386
684 0.000386
685 0.000384
686 0.000382
687 0.000383
688 0.000380
689 0.000377
690 0.000372
691 0.000371
692 0.000370
693 0.000366
694 0.000366
695 0.000366
696 0.000367
697 0.000368
698 0.000366
699 0.000364
700 0.000363
701 0.000360
702 0.000354
703 0.000344
704 0.000339
705 0.000335
706 0.000330
707 0.000325
708 0.000320
709 0.000316
710 0.000309
711 0.000306
712 0.000301
713 0.000297
714 0.000294
715 0.000291
716 0.000289
717 0.000288
718 0.000287
719 0.000284
720 0.000282
721 0.000279
722 0.000279
723 0.000276
724 0.000274
725 0.000272
726 0.000269
727 0.000266
728 0.000265
729 0.000265
730 0.000265
731 0.000266
732 0.000268
733 0.000270
734 0.000272
735 0.000273
736 0.000274
737 0.000278
738 0.000280
739 0.000279
740 0.000276
741 0.000274
742 0.000274
743 0.000272
744 0.000270
745 0.000269
746 0.000269
747 0.000267
748 0.000266
749 0.000264
750 0.000261
751 0.000260
752 0.000261
753 0.000260
754 0.000257
755 0.000255
756 0.000251
757 0.000247
758 0.000244
759 0.000243
760 0.000240
761 0.000237
762 0.000234
763 0.000233
764 0.000233
765 0.000232
766 0.000231
767 0.000231
768 0.000231
769 0.000230
770 0.000230
771 0.000230
772 0.000227
773 0.000223
774 0.000221
775 0.000219
776 0.000216
777 0.000215
778 0.000214
779 0.000213
780 0.000212
781 0.000210
782 0.000209
783 0.000210
784 0.000209
785 0.000208
786 0.000207
787 0.000207
788 0.000206
789 0.000205
790 0.000205
791 0.000203
792 0.000204
793 0.000204
794 0.000205
795 0.000203
796 0.000200
797 0.000197
798 0.000193
799 0.000190
800 0.000188
801 0.000186
802 0.000188
803 0.000188
804 0.000187
805 0.000187
806 0.000187
807 0.000185
808 0.000183
809 0.000180
