# i correlation
1 0.001611
2 0.001566
3 0.001528
4 0.001493
5 0.001465
6 0.001444
7 0.001427
8 0.001410
9 0.001396
10 0.001381
11 0.001373
12 0.001363
13 0.001351
14 0.001342
15 0.001332
16 0.001320
17 0.001307
18 0.001298
19 0.001289
20 0.001275
21 0.001268
22 0.001264
23 0.001255
24 0.001243
25 0.001236
26 0.001229
27 0.001225
28 0.001221
29 0.001216
30 0.001205
31 0.001200
32 0.001194
33 0.001192
34 0.001187
35 0.001184
36 0.001181
37 0.001175
38 0.001169
39 0.001154
40 0.001138
41 0.001123
42 0.001111
43 0.001103
44 0.001099
45 0.001096
46 0.001097
47 0.001098
48 0.001098
49 0.001097
50 0.001091
51 0.001082
52 0.001069
53 0.001052
54 0.001040
55 0.001032
56 0.001024
57 0.001019
58 0.001018
59 0.001014
60 0.001010
61 0.001009
62 0.001006
63 0.001007
64 0.001009
65 0.001006
66 0.001004
67 0.000997
68 0.000986
69 0.000976
70 0.000970
71 0.000961
72 0.000953
73 0.000949
74 0.000945
75 0.000941
76 0.000934
77 0.000931
78 0.000931
79 0.000928
80 0.000925
81 0.000925
82 0.000925
83 0.000922
84 0.000923
85 0.000928
86 0.000932
87 0.000932
88 0.000929
89 0.000929
90 0.000930
91 0.000929
92 0.000931
93 0.000930
94 0.000929
95 0.000924
96 0.000924
97 0.000924
98 0.000924
99 0.000921
100 0.000918
101 0.000914
102 0.000909
103 0.000903
104 0.000897
105 0.000891
106 0.000886
107 0.000887
108 0.000884
109 0.000883
110 0.000887
111 0.000896
112 0.000901
113 0.000906
114 0.000907
115 0.000907
116 0.000906
117 0.000902
118 0.000898
119 0.000892
120 0.000884
121 0.000878
122 0.000877
123 0.000874
124 0.000872
125 0.000875
126 0.000875
127 0.000873
128 0.000872
129 0.000874
130 0.000878
131 0.000876
132 0.000873
133 0.000868
134 0.000862
135 0.000854
136 0.000853
137 0.000848
138 0.000842
139 0.000836
140 0.000831
141 0.000823
142 0.000811
143 0.000800
144 0.000791
145 0.000787
146 0.000782
147 0.000779
148 0.000780
149 0.000780
150 0.000777
151 0.000772
152 0.000766
153 0.000758
154 0.000754
155 0.000752
156 0.000752
157 0.000752
158 0.000755
159 0.000763
160 0.000769
161 0.000774
162 0.000777
163 0.000785
164 0.000788
165 0.000790
166 0.000790
167 0.000789
168 0.000784
169 0.000778
170 0.000774
171 0.000772
172 0.000767
173 0.000762
174 0.000758
175 0.000757
176 0.000759
177 0.000760
178 0.000760
179 0.000758
180 0.000757
181 0.000757
182 0.000757
183 0.000752
184 0.000747
185 0.000743
186 0.000741
187 0.000739
188 0.000744
189 0.000744
190 0.000740
191 0.000736
192 0.000733
193 0.000728
194 0.000725
195 0.000727
196 0.000730
197 0.000733
198 0.000731
199 0.000729
200 0.000725
201 0.000719
202 0.000714
203 0.000712
204 0.000712
205 0.000711
206 0.000709
207 0.000708
208 0.000705
209 0.000705
210 0.000706
211 0.000704
212 0.000699
213 0.000698
214 0.000697
215 0.000696
216 0.000695
217 0.000694
218 0.000696
219 0.000697
220 0.000697
221 0.000697
222 0.000694
223 0.000689
224 0.000686
225 0.000680
226 0.000675
227 0.000672
228 0.000669
229 0.000665
230 0.000657
231 0.000642
232 0.000632
233 0.000627
234 0.000620
235 0.000613
236 0.000606
237 0.000596
238 0.000589
239 0.000583
240 0.000577
241 0.000574
242 0.000572
243 0.000572
244 0.000575
245 0.000577
246 0.000581
247 0.000583
248 0.000583
249 0.000582
250 0.000580
251 0.000580
252 0.000584
253 0.000585
254 0.000585
255 0.000587
256 0.000588
257 0.000589
258 0.000589
259 0.000585
260 0.000579
261 0.000577
262 0.000573
263 0.000570
264 0.000566
265 0.000564
266 0.000561
267 0.000561
268 0.000557
269 0.000554
270 0.000550
271 0.000545
272 0.000536
273 0.000529
274 0.000526
275 0.000526
276 0.000528
277 0.000530
278 0.000531
279 0.000535
280 0.000536
281 0.000537
282 0.000538
283 0.000533
284 0.000529
285 0.000522
286 0.000519
287 0.000514
288 0.000516
289 0.000518
290 0.000522
291 0.000524
292 0.000528
293 0.000535
294 0.000537
295 0.000541
296 0.000544
297 0.000547
298 0.000543
299 0.000538
300 0.000537
301 0.000534
302 0.000532
303 0.000531
304 0.000530
305 0.000524
306 0.000518
307 0.000515
308 0.000510
309 0.000506
310 0.000503
311 0.000502
312 0.000502
313 0.000503
314 0.000503
315 0.000504
316 0.000502
317 0.000494
318 0.000486
319 0.000478
320 0.000468
321 0.000458
322 0.000446
323 0.000431
324 0.000420
325 0.000415
326 0.000417
327 0.000417
328 0.000419
329 0.000416
330 0.000413
331 0.000413
332 0.000410
333 0.000409
334 0.000406
335 0.000404
336 0.000402
337 0.000402
338 0.000398
339 0.000396
340 0.000399
341 0.000399
342 0.000401
343 0.000402
344 0.000402
345 0.000401
346 0.000400
347 0.000400
348 0.000400
349 0.000399
350 0.000400
351 0.000401
352 0.000400
353 0.000396
354 0.000398
355 0.000399
356 0.000400
357 0.000400
358 0.000405
359 0.000411
360 0.000414
361 0.000415
362 0.000417
363 0.000418
364 0.000423
365 0.000425
366 0.000426
367 0.000428
368 0.000427
369 0.000426
370 0.000427
371 0.000426
372 0.000424
373 0.000420
374 0.000417
375 0.000413
376 0.000414
377 0.000419
378 0.000428
379 0.000440
380 0.000448
381 0.000452
382 0.000457
383 0.000463
384 0.000467
385 0.000470
386 0.000478
387 0.000485
388 0.000490
389 0.000496
390 0.000496
391 0.000499
392 0.000500
393 0.000502
394 0.000507
395 0.000512
396 0.000512
397 0.000508
398 0.000503
399 0.000495
400 0.000490
401 0.000488
402 0.000484
403 0.000476
404 0.000470
405 0.000469
406 0.000471
407 0.000477
408 0.000483
409 0.000485
410 0.000485
411 0.000482
412 0.000478
413 0.000476
414 0.000473
415 0.000473
416 0.000475
417 0.000477
418 0.000477
419 0.000473
420 0.000469
421 0.000462
422 0.000458
423 0.000457
424 0.000455
425 0.000453
426 0.000453
427 0.000455
428 0.000457
429 0.000459
430 0.000460
431 0.000456
432 0.000449
433 0.000442
434 0.000436
435 0.000426
436 0.000415
437 0.000404
438 0.000396
439 0.000386
440 0.000382
441 0.000381
442 0.000383
443 0.000383
444 0.000384
445 0.000383
446 0.000379
447 0.000372
448 0.000365
449 0.000362
450 0.000356
451 0.000353
452 0.000354
453 0.000353
454 0.000349
455 0.000346
456 0.000347
457 0.000348
458 0.000349
459 0.000351
460 0.000348
461 0.000346
462 0.000341
463 0.000336
464 0.000334
465 0.000328
466 0.000321
467 0.000315
468 0.000313
469 0.000307
470 0.000301
471 0.000299
472 0.000298
473 0.000298
474 0.000299
475 0.000297
476 0.000298
477 0.000299
478 0.000301
479 0.000304
480 0.000307
481 0.000307
482 0.000303
483 0.000297
484 0.000290
485 0.000289
486 0.000285
487 0.000282
488 0.000279
489 0.000276
490 0.000278
491 0.000283
492 0.000286
493 0.000289
494 0.000290
495 0.000289
496 0.000289
497 0.000292
498 0.000293
499 0.000294
500 0.000295
501 0.000296
502 0.000297
503 0.000296
504 0.000297
505 0.000299
506 0.000302
507 0.000307
508 0.000311
509 0.000314
510 0.000318
511 0.000319
512 0.000316
513 0.000314
514 0.000311
515 0.000309
516 0.000311
517 0.000311
518 0.000314
519 0.000319
520 0.000323
521 0.000324
522 0.000327
523 0.000333
524 0.000340
525 0.000344
526 0.000345
527 0.000346
528 0.000347
529 0.000345
530 0.000343
531 0.000339
532 0.000334
533 0.000323
534 0.000316
535 0.000312
536 0.000307
537 0.000303
538 0.000301
539 0.000299
540 0.000297
541 0.000294
542 0.000291
543 0.000287
544 0.000283
545 0.000282
546 0.000285
547 0.000288
548 0.000289
549 0.000289
550 0.000288
551 0.000287
552 0.000285
553 0.000283
554 0.000285
555 0.000287
556 0.000293
557 0.000296
558 0.000301
559 0.000307
560 0.000313
561 0.000317
562 0.000319
563 0.000319
564 0.000316
565 0.000313
566 0.000313
567 0.000311
568 0.000308
569 0.000302
570 0.000297
571 0.000292
572 0.000291
573 0.000289
574 0.000291
575 0.000294
576 0.000295
577 0.000296
578 0.000297
579 0.000295
580 0.000291
581 0.000288
582 0.000283
583 0.000283
584 0.000286
585 0.000283
586 0.000280
587 0.000278
588 0.000277
589 0.000278
590 0.000278
591 0.000276
592 0.000274
593 0.000275
594 0.000276
595 0.000276
596 0.000275
597 0.000277
598 0.000278
599 0.000276
600 0.000274
601 0.000268
602 0.000261
603 0.000254
604 0.000252
605 0.000253
606 0.000254
607 0.000255
608 0.000260
609 0.000265
610 0.000269
611 0.000274
612 0.000282
613 0.000286
614 0.000286
615 0.000286
616 0.000288
617 0.000288
618 0.000286
619 0.000284
620 0.000280
621 0.000278
622 0.000279
623 0.000281
624 0.000280
625 0.000280
626 0.000280
627 0.000277
628 0.000273
629 0.000266
630 0.000261
631 0.000256
632 0.000249
633 0.000243
634 0.000240
635 0.000238
636 0.000235
637 0.000234
638 0.000234
639 0.000233
640 0.000234
641 0.000235
642 0.000234
643 0.000233
644 0.000232
645 0.000230
646 0.000230
647 0.000232
648 0.000234
649 0.000233
650 0.000232
651 0.000229
652 0.000226
653 0.000225
654 0.000223
655 0.000217
656 0.000213
657 0.000211
658 0.000208
659 0.000208
660 0.000209
661 0.000210
662 0.000212
663 0.000211
664 0.000208
665 0.000203
666 0.000201
667 0.000197
668 0.000193
669 0.000191
670 0.000191
671 0.000189
672 0.000187
673 0.000190
674 0.000191
675 0.000194
676 0.000199
677 0.000204
678 0.000207
679 0.000208
680 0.000209
681 0.000207
682 0.000207
683 0.000206
684 0.000206
685 0.000208
686 0.000211
687 0.000213
688 0.000212
689 0.000210
690 0.000206
691 0.000200
692 0.000197
693 0.000191
694 0.000185
695 0.000183
696 0.000179
697 0.000179
698 0.000181
699 0.000181
700 0.000178
701 0.000177
702 0.000172
703 0.000167
704 0.000161
705 0.000154
706 0.000150
707 0.000146
708 0.000145
709 0.000143
710 0.000142
711 0.000142
712 0.000142
713 0.000141
714 0.000137
715 0.000134
716 0.000131
717 0.000127
718 0.000121
719 0.000116
720 0.000114
721 0.000111
722 0.000109
723 0.000110
724 0.000113
725 0.000113
726 0.000114
727 0.000113
728 0.000111
729 0.000108
730 0.000104
731 0.000100
732 0.000093
733 0.000088
734 0.000087
735 0.000088
736 0.000086
737 0.000086
738 0.000088
739 0.000089
740 0.000090
741 0.000089
742 0.000086
743 0.000086
744 0.000088
745 0.000090
746 0.000093
747 0.000096
748 0.000099
749 0.000101
750 0.000102
751 0.000102
752 0.000103
753 0.000102
754 0.000100
755 0.000098
756 0.000098
757 0.000097
758 0.000097
759 0.000098
760 0.000100
761 0.000100
762 0.000098
763 0.000095
764 0.000092
765 0.000088
766 0.000084
767 0.000084
768 0.000083
769 0.000080
770 0.000078
771 0.000074
772 0.000072
773 0.000071
774 0.000073
775 0.000077
776 0.000080
777 0.000085
778 0.000088
779 0.000090
780 0.000092
781 0.000093
782 0.000094
783 0.000094
784 0.000096
785 0.000097
786 0.000100
787 0.000103
788 0.000106
789 0.000111
790 0.000112
791 0.000111
792 0.000109
793 0.000108
794 0.000109
795 0.000109
796 0.000111
797 0.000111
798 0.000110
799 0.000111
800 0.000110
801 0.000110
802 0.000113
803 0.000115
804 0.000117
805 0.000119
806 0.000121
807 0.000122
808 0.000124
809 0.000125
