# i correlation
1 0.001505
2 0.001466
3 0.001433
4 0.001406
5 0.001381
6 0.001355
7 0.001333
8 0.001314
9 0.001304
10 0.001292
11 0.001280
12 0.001268
13 0.001254
14 0.001246
15 0.001235
16 0.001223
17 0.001215
18 0.001213
19 0.001211
20 0.001202
21 0.001191
22 0.001186
23 0.001180
24 0.001174
25 0.001166
26 0.001163
27 0.001158
28 0.001154
29 0.001150
30 0.001150
31 0.001149
32 0.001144
33 0.001141
34 0.001137
35 0.001133
36 0.001125
37 0.001122
38 0.001122
39 0.001120
40 0.001119
41 0.001117
42 0.001118
43 0.001111
44 0.001103
45 0.001096
46 0.001091
47 0.001087
48 0.001081
49 0.001075
50 0.001069
51 0.001063
52 0.001058
53 0.001055
54 0.001052
55 0.001043
56 0.001037
57 0.001032
58 0.001027
59 0.001017
60 0.001013
61 0.001010
62 0.001007
63 0.000999
64 0.000992
65 0.000983
66 0.000976
67 0.000969
68 0.000965
69 0.000958
70 0.000949
71 0.000943
72 0.000938
73 0.000930
74 0.000921
75 0.000913
76 0.000907
77 0.000904
78 0.000899
79 0.000897
80 0.000899
81 0.000900
82 0.000898
83 0.000894
84 0.000893
85 0.000889
86 0.000888
87 0.000889
88 0.000888
89 0.000885
90 0.000881
91 0.000880
92 0.000877
93 0.000872
94 0.000867
95 0.000866
96 0.000865
97 0.000860
98 0.000857
99 0.000856
100 0.000855
101 0.000856
102 0.000854
103 0.000854
104 0.000853
105 0.000848
106 0.000844
107 0.000839
108 0.000830
109 0.000819
110 0.000813
111 0.000804
112 0.000791
113 0.000775
114 0.000762
115 0.000753
116 0.000746
117 0.000738
118 0.000731
119 0.000728
120 0.000721
121 0.000717
122 0.000715
123 0.000715
124 0.000713
125 0.000711
126 0.000709
127 0.000707
128 0.000705
129 0.000705
130 0.000705
131 0.000702
132 0.000701
133 0.000703
134 0.000710
135 0.000715
136 0.000717
137 0.000724
138 0.000732
139 0.000742
140 0.000744
141 0.000747
142 0.000752
143 0.000754
144 0.000755
145 0.000755
146 0.000752
147 0.000747
148 0.000747
149 0.000748
150 0.000746
151 0.000741
152 0.000729
153 0.000721
154 0.000715
155 0.000708
156 0.000702
157 0.000692
158 0.000686
159 0.000680
160 0.000674
161 0.000672
162 0.000665
163 0.000659
164 0.000655
165 0.000656
166 0.000657
167 0.000657
168 0.000659
169 0.000661
170 0.000657
171 0.000652
172 0.000649
173 0.000649
174 0.000648
175 0.000648
176 0.000650
177 0.000654
178 0.000655
179 0.000657
180 0.000656
181 0.000656
182 0.000653
183 0.000652
184 0.000649
185 0.000645
186 0.000642
187 0.000646
188 0.000651
189 0.000650
190 0.000646
191 0.000647
192 0.000647
193 0.000646
194 0.000644
195 0.000644
196 0.000650
197 0.000653
198 0.000655
199 0.000659
200 0.000657
201 0.000653
202 0.000648
203 0.000641
204 0.000631
205 0.000624
206 0.000616
207 0.000615
208 0.000613
209 0.000610
210 0.000605
211 0.000603
212 0.000597
213 0.000596
214 0.000598
215 0.000595
216 0.000591
217 0.000590
218 0.000587
219 0.000585
220 0.000584
221 0.000580
222 0.000579
223 0.000579
224 0.000576
225 0.000577
226 0.000581
227 0.000583
228 0.000583
229 0.000586
230 0.000591
231 0.000595
232 0.000596
233 0.000597
234 0.000595
235 0.000593
236 0.000592
237 0.000594
238 0.000597
239 0.000599
240 0.000603
241 0.000602
242 0.000602
243 0.000598
244 0.000595
245 0.000593
246 0.000593
247 0.000592
248 0.000594
249 0.000601
250 0.000606
251 0.000609
252 0.000608
253 0.000604
254 0.000601
255 0.000597
256 0.000594
257 0.000591
258 0.000584
259 0.000581
260 0.000579
261 0.000580
262 0.000579
263 0.000576
264 0.000573
265 0.000571
266 0.000570
267 0.000569
268 0.000567
269 0.000563
270 0.000554
271 0.000549
272 0.000548
273 0.000545
274 0.000544
275 0.000544
276 0.000547
277 0.000549
278 0.000553
279 0.000557
280 0.000562
281 0.000565
282 0.000567
283 0.000569
284 0.000571
285 0.000573
286 0.000574
287 0.000574
288 0.000575
289 0.000577
290 0.000580
291 0.000583
292 0.000584
293 0.000587
294 0.000589
295 0.000590
296 0.000586
297 0.000578
298 0.000575
299 0.000571
300 0.000571
301 0.000564
302 0.000558
303 0.000554
304 0.000550
305 0.000545
306 0.000541
307 0.000536
308 0.000531
309 0.000525
310 0.000520
311 0.000517
312 0.000514
313 0.000508
314 0.000499
315 0.000494
316 0.000488
317 0.000489
318 0.000492
319 0.000492
320 0.000495
321 0.000500
322 0.000505
323 0.000506
324 0.000506
325 0.000505
326 0.000502
327 0.000499
328 0.000494
329 0.000487
330 0.000485
331 0.000486
332 0.000485
333 0.000485
334 0.000485
335 0.000484
336 0.000488
337 0.000490
338 0.000493
339 0.000494
340 0.000495
341 0.000497
342 0.000499
343 0.000501
344 0.000501
345 0.000499
346 0.000500
347 0.000502
348 0.000502
349 0.000499
350 0.000496
351 0.000492
352 0.000487
353 0.000485
354 0.000480
355 0.000477
356 0.000475
357 0.000472
358 0.000470
359 0.000464
360 0.000458
361 0.000451
362 0.000448
363 0.000442
364 0.000438
365 0.000439
366 0.000433
367 0.000430
368 0.000427
369 0.000426
370 0.000422
371 0.000421
372 0.000418
373 0.000417
374 0.000414
375 0.000411
376 0.000412
377 0.000411
378 0.000411
379 0.000409
380 0.000406
381 0.000404
382 0.000400
383 0.000397
384 0.000396
385 0.000396
386 0.000394
387 0.000393
388 0.000396
389 0.000399
390 0.000401
391 0.000405
392 0.000404
393 0.000402
394 0.000404
395 0.000406
396 0.000410
397 0.000411
398 0.000410
399 0.000409
400 0.000407
401 0.000408
402 0.000409
403 0.000409
404 0.000410
405 0.000410
406 0.000409
407 0.000408
408 0.000405
409 0.000403
410 0.000402
411 0.000400
412 0.000394
413 0.000388
414 0.000380
415 0.000378
416 0.000372
417 0.000366
418 0.000363
419 0.000360
420 0.000355
421 0.000349
422 0.000345
423 0.000345
424 0.000341
425 0.000340
426 0.000337
427 0.000338
428 0.000340
429 0.000345
430 0.000346
431 0.000343
432 0.000341
433 0.000341
434 0.000342
435 0.000341
436 0.000341
437 0.000340
438 0.000341
439 0.000346
440 0.000349
441 0.000352
442 0.000357
443 0.000360
444 0.000362
445 0.000367
446 0.000371
447 0.000372
448 0.000373
449 0.000376
450 0.000376
451 0.000374
452 0.000372
453 0.000370
454 0.000367
455 0.000362
456 0.000359
457 0.000356
458 0.000353
459 0.000352
460 0.000353
461 0.000352
462 0.000347
463 0.000345
464 0.000340
465 0.000337
466 0.000332
467 0.000329
468 0.000328
469 0.000326
470 0.000322
471 0.000319
472 0.000318
473 0.000317
474 0.000316
475 0.000315
476 0.000315
477 0.000315
478 0.000317
479 0.000319
480 0.000320
481 0.000326
482 0.000328
483 0.000334
484 0.000335
485 0.000333
486 0.000334
487 0.000337
488 0.000339
489 0.000340
490 0.000342
491 0.000343
492 0.000345
493 0.000342
494 0.000340
495 0.000340
496 0.000339
497 0.000339
498 0.000339
499 0.000338
500 0.000338
501 0.000335
502 0.000335
503 0.000333
504 0.000332
505 0.000327
506 0.000323
507 0.000324
508 0.000325
509 0.000326
510 0.000326
511 0.000327
512 0.000327
513 0.000328
514 0.000330
515 0.000329
516 0.000330
517 0.000328
518 0.000326
519 0.000318
520 0.000313
521 0.000309
522 0.000303
523 0.000298
524 0.000290
525 0.000282
526 0.000281
527 0.000277
528 0.000274
529 0.000271
530 0.000270
531 0.000269
532 0.000268
533 0.000269
534 0.000268
535 0.000270
536 0.000270
537 0.000270
538 0.000269
539 0.000268
540 0.000268
541 0.000266
542 0.000265
543 0.000263
544 0.000267
545 0.000273
546 0.000277
547 0.000278
548 0.000277
549 0.000276
550 0.000278
551 0.000278
552 0.000279
553 0.000277
554 0.000277
555 0.000277
556 0.000276
557 0.000276
558 0.000275
559 0.000271
560 0.000266
561 0.000261
562 0.000257
563 0.000253
564 0.000253
565 0.000248
566 0.000241
567 0.000235
568 0.000231
569 0.000231
570 0.000232
571 0.000231
572 0.000232
573 0.000233
574 0.000232
575 0.000232
576 0.000233
577 0.000234
578 0.000235
579 0.000238
580 0.000238
581 0.000236
582 0.000237
583 0.000237
584 0.000242
585 0.000245
586 0.000247
587 0.000251
588 0.000256
589 0.000256
590 0.000258
591 0.000256
592 0.000253
593 0.000251
594 0.000251
595 0.000254
596 0.000255
597 0.000254
598 0.000256
599 0.000257
600 0.000255
601 0.000251
602 0.000249
603 0.000245
604 0.000243
605 0.000239
606 0.000238
607 0.000236
608 0.000231
609 0.000224
610 0.000219
611 0.000214
612 0.000212
613 0.000207
614 0.000202
615 0.000198
616 0.000194
617 0.000194
618 0.000198
619 0.000199
620 0.000199
621 0.000201
622 0.000205
623 0.000209
624 0.000211
625 0.000212
626 0.000215
627 0.000218
628 0.000221
629 0.000223
630 0.000226
631 0.000225
632 0.000228
633 0.000232
634 0.000236
635 0.000237
636 0.000238
637 0.000243
638 0.000247
639 0.000248
640 0.000247
641 0.000248
642 0.000252
643 0.000253
644 0.000251
645 0.000253
646 0.000254
647 0.000256
648 0.000257
649 0.000256
650 0.000253
651 0.000252
652 0.000251
653 0.000250
654 0.000246
655 0.000243
656 0.000244
657 0.000244
658 0.000244
659 0.000244
660 0.000245
661 0.000244
662 0.000239
663 0.000235
664 0.000230
665 0.000226
666 0.000222
667 0.000218
668 0.000218
669 0.000216
670 0.000213
671 0.000210
672 0.000207
673 0.000204
674 0.000202
675 0.000199
676 0.000196
677 0.000193
678 0.000192
679 0.000192
680 0.000189
681 0.000185
682 0.000181
683 0.000179
684 0.000179
685 0.000179
686 0.000180
687 0.000183
688 0.000185
689 0.000189
690 0.000190
691 0.000194
692 0.000194
693 0.000191
694 0.000190
695 0.000189
696 0.000188
697 0.000185
698 0.000183
699 0.000182
700 0.000180
701 0.000180
702 0.000178
703 0.000177
704 0.000173
705 0.000171
706 0.000170
707 0.000169
708 0.000166
709 0.000166
710 0.000165
711 0.000161
712 0.000159
713 0.000159
714 0.000161
715 0.000161
716 0.000158
717 0.000155
718 0.000152
719 0.000149
720 0.000145
721 0.000144
722 0.000143
723 0.000143
724 0.000143
725 0.000144
726 0.000144
727 0.000145
728 0.000148
729 0.000151
730 0.000152
731 0.000152
732 0.000153
733 0.000157
734 0.000160
735 0.000164
736 0.000169
737 0.000174
738 0.000179
739 0.000179
740 0.000180
741 0.000180
742 0.000177
743 0.000173
744 0.000170
745 0.000166
746 0.000165
747 0.000165
748 0.000162
749 0.000161
750 0.000159
751 0.000157
752 0.000155
753 0.000153
754 0.000151
755 0.000148
756 0.000147
757 0.000147
758 0.000144
759 0.000142
760 0.000141
761 0.000140
762 0.000136
763 0.000135
764 0.000133
765 0.000132
766 0.000132
767 0.000133
768 0.000136
769 0.000138
770 0.000139
771 0.000141
772 0.000144
773 0.000146
774 0.000146
775 0.000147
776 0.000146
777 0.000146
778 0.000148
779 0.000150
780 0.000151
781 0.000152
782 0.000151
783 0.000152
784 0.000153
785 0.000151
786 0.000150
787 0.000151
788 0.000150
789 0.000151
790 0.000150
791 0.000150
792 0.000150
793 0.000150
794 0.000152
795 0.000155
796 0.000157
797 0.000157
798 0.000157
799 0.000155
800 0.000154
801 0.000155
802 0.000156
803 0.000159
804 0.000159
805 0.000157
806 0.000155
807 0.000153
808 0.000151
809 0.000149
