# i correlation
1 0.001585
2 0.001547
3 0.001514
4 0.001483
5 0.001455
6 0.001430
7 0.001412
8 0.001394
9 0.001379
10 0.001365
11 0.001353
12 0.001340
13 0.001326
14 0.001310
15 0.001295
16 0.001280
17 0.001267
18 0.001255
19 0.001246
20 0.001236
21 0.001232
22 0.001226
23 0.001219
24 0.001216
25 0.001210
26 0.001207
27 0.001207
28 0.001208
29 0.001208
30 0.001210
31 0.001210
32 0.001208
33 0.001207
34 0.001204
35 0.001202
36 0.001199
37 0.001196
38 0.001194
39 0.001194
40 0.001193
41 0.001191
42 0.001189
43 0.001188
44 0.001187
45 0.001184
46 0.001180
47 0.001176
48 0.001172
49 0.001166
50 0.001163
51 0.001159
52 0.001151
53 0.001147
54 0.001143
55 0.001140
56 0.001136
57 0.001131
58 0.001130
59 0.001126
60 0.001125
61 0.001123
62 0.001119
63 0.001113
64 0.001106
65 0.001098
66 0.001089
67 0.001083
68 0.001075
69 0.001066
70 0.001057
71 0.001048
72 0.001041
73 0.001035
74 0.001029
75 0.001025
76 0.001023
77 0.001017
78 0.001007
79 0.000999
80 0.000998
81 0.000999
82 0.000998
83 0.001003
84 0.001004
85 0.001005
86 0.001008
87 0.001004
88 0.001000
89 0.000997
90 0.000995
91 0.000994
92 0.000989
93 0.000985
94 0.000981
95 0.000971
96 0.000963
97 0.000956
98 0.000954
99 0.000949
100 0.000945
101 0.000940
102 0.000937
103 0.000935
104 0.000936
105 0.000937
106 0.000934
107 0.000933
108 0.000930
109 0.000926
110 0.000924
111 0.000919
112 0.000916
113 0.000912
114 0.000902
115 0.000891
116 0.000882
117 0.000873
118 0.000863
119 0.000855
120 0.000850
121 0.000847
122 0.000843
123 0.000835
124 0.000827
125 0.000822
126 0.000820
127 0.000818
128 0.000812
129 0.000807
130 0.000798
131 0.000789
132 0.000781
133 0.000775
134 0.000777
135 0.000779
136 0.000780
137 0.000785
138 0.000786
139 0.000786
140 0.000784
141 0.000785
142 0.000786
143 0.000787
144 0.000791
145 0.000789
146 0.000789
147 0.000786
148 0.000785
149 0.000784
150 0.000784
151 0.000782
152 0.000781
153 0.000782
154 0.000779
155 0.000780
156 0.000780
157 0.000779
158 0.000775
159 0.000770
160 0.000767
161 0.000764
162 0.000756
163 0.000749
164 0.000742
165 0.000738
166 0.000741
167 0.000744
168 0.000752
169 0.000752
170 0.000755
171 0.000759
172 0.000757
173 0.000754
174 0.000755
175 0.000755
176 0.000755
177 0.000752
178 0.000747
179 0.000746
180 0.000743
181 0.000740
182 0.000736
183 0.000735
184 0.000731
185 0.000731
186 0.000730
187 0.000729
188 0.000726
189 0.000722
190 0.000719
191 0.000716
192 0.000713
193 0.000710
194 0.000706
195 0.000705
196 0.000703
197 0.000707
198 0.000713
199 0.000716
200 0.000715
201 0.000713
202 0.000711
203 0.000710
204 0.000710
205 0.000708
206 0.000705
207 0.000704
208 0.000700
209 0.000698
210 0.000696
211 0.000698
212 0.000699
213 0.000700
214 0.000699
215 0.000696
216 0.000694
217 0.000692
218 0.000691
219 0.000687
220 0.000688
221 0.000685
222 0.000680
223 0.000671
224 0.000664
225 0.000658
226 0.000654
227 0.000647
228 0.000644
229 0.000642
230 0.000641
231 0.000640
232 0.000639
233 0.000641
234 0.000639
235 0.000639
236 0.000637
237 0.000632
238 0.000628
239 0.000625
240 0.000621
241 0.000621
242 0.000624
243 0.000626
244 0.000629
245 0.000629
246 0.000630
247 0.000633
248 0.000633
249 0.000629
250 0.000625
251 0.000623
252 0.000619
253 0.000619
254 0.000623
255 0.000625
256 0.000630
257 0.000635
258 0.000636
259 0.000641
260 0.000645
261 0.000649
262 0.000652
263 0.000654
264 0.000656
265 0.000658
266 0.000659
267 0.000657
268 0.000657
269 0.000657
270 0.000657
271 0.000658
272 0.000660
273 0.000663
274 0.000664
275 0.000664
276 0.000660
277 0.000654
278 0.000648
279 0.000641
280 0.000637
281 0.000637
282 0.000632
283 0.000628
284 0.000627
285 0.000625
286 0.000621
287 0.000618
288 0.000615
289 0.000614
290 0.000613
291 0.000609
292 0.000605
293 0.000600
294 0.000599
295 0.000595
296 0.000594
297 0.000596
298 0.000599
299 0.000599
300 0.000596
301 0.000596
302 0.000594
303 0.000595
304 0.000596
305 0.000600
306 0.000605
307 0.000610
308 0.000615
309 0.000620
310 0.000624
311 0.000627
312 0.000632
313 0.000632
314 0.000631
315 0.000629
316 0.000628
317 0.000623
318 0.000620
319 0.000619
320 0.000617
321 0.000617
322 0.000616
323 0.000614
324 0.000612
325 0.000611
326 0.000608
327 0.000607
328 0.000603
329 0.000598
330 0.000590
331 0.000585
332 0.000578
333 0.000572
334 0.000565
335 0.000557
336 0.000551
337 0.000546
338 0.000541
339 0.000537
340 0.000536
341 0.000532
342 0.000533
343 0.000532
344 0.000530
345 0.000529
346 0.000527
347 0.000525
348 0.000524
349 0.000522
350 0.000522
351 0.000524
352 0.000528
353 0.000531
354 0.000536
355 0.000544
356 0.000550
357 0.000555
358 0.000557
359 0.000563
360 0.000565
361 0.000569
362 0.000569
363 0.000567
364 0.000561
365 0.000559
366 0.000555
367 0.000552
368 0.000550
369 0.000551
370 0.000555
371 0.000559
372 0.000562
373 0.000567
374 0.000571
375 0.000572
376 0.000566
377 0.000558
378 0.000554
379 0.000550
380 0.000544
381 0.000539
382 0.000537
383 0.000538
384 0.000538
385 0.000538
386 0.000539
387 0.000533
388 0.000532
389 0.000533
390 0.000532
391 0.000531
392 0.000531
393 0.000529
394 0.000524
395 0.000520
396 0.000519
397 0.000519
398 0.000520
399 0.000520
400 0.000517
401 0.000515
402 0.000512
403 0.000512
404 0.000510
405 0.000505
406 0.000499
407 0.000492
408 0.000486
409 0.000483
410 0.000485
411 0.000486
412 0.000492
413 0.000495
414 0.000497
415 0.000496
416 0.000494
417 0.000492
418 0.000490
419 0.000489
420 0.000484
421 0.000479
422 0.000475
423 0.000471
424 0.000466
425 0.000463
426 0.000459
427 0.000456
428 0.000454
429 0.000452
430 0.000451
431 0.000450
432 0.000449
433 0.000451
434 0.000455
435 0.000457
436 0.000459
437 0.000459
438 0.000458
439 0.000456
440 0.000454
441 0.000451
442 0.000450
443 0.000448
444 0.000448
445 0.000447
446 0.000449
447 0.000451
448 0.000448
449 0.000448
450 0.000446
451 0.000443
452 0.000440
453 0.000435
454 0.000433
455 0.000430
456 0.000430
457 0.000430
458 0.000429
459 0.000429
460 0.000429
461 0.000429
462 0.000427
463 0.000424
464 0.000424
465 0.000426
466 0.000428
467 0.000428
468 0.000431
469 0.000434
470 0.000433
471 0.000432
472 0.000431
473 0.000434
474 0.000436
475 0.000435
476 0.000433
477 0.000432
478 0.000431
479 0.000430
480 0.000431
481 0.000432
482 0.000436
483 0.000440
484 0.000442
485 0.000440
486 0.000435
487 0.000431
488 0.000424
489 0.000419
490 0.000414
491 0.000410
492 0.000404
493 0.000400
494 0.000398
495 0.000399
496 0.000400
497 0.000400
498 0.000401
499 0.000401
500 0.000401
501 0.000401
502 0.000403
503 0.000404
504 0.000407
505 0.000413
506 0.000414
507 0.000414
508 0.000414
509 0.000411
510 0.000411
511 0.000411
512 0.000411
513 0.000411
514 0.000409
515 0.000407
516 0.000403
517 0.000399
518 0.000396
519 0.000393
520 0.000388
521 0.000382
522 0.000377
523 0.000373
524 0.000369
525 0.000364
526 0.000362
527 0.000361
528 0.000359
529 0.000356
530 0.000353
531 0.000350
532 0.000350
533 0.000347
534 0.000345
535 0.000344
536 0.000343
537 0.000344
538 0.000346
539 0.000349
540 0.000353
541 0.000359
542 0.000366
543 0.000372
544 0.000374
545 0.000379
546 0.000383
547 0.000386
548 0.000387
549 0.000390
550 0.000394
551 0.000396
552 0.000396
553 0.000396
554 0.000399
555 0.000399
556 0.000398
557 0.000397
558 0.000397
559 0.000396
560 0.000396
561 0.000390
562 0.000386
563 0.000383
564 0.000379
565 0.000375
566 0.000373
567 0.000370
568 0.000363
569 0.000359
570 0.000356
571 0.000355
572 0.000354
573 0.000352
574 0.000350
575 0.000350
576 0.000349
577 0.000349
578 0.000350
579 0.000349
580 0.000347
581 0.000346
582 0.000346
583 0.000345
584 0.000342
585 0.000340
586 0.000342
587 0.000345
588 0.000349
589 0.000351
590 0.000352
591 0.000356
592 0.000354
593 0.000354
594 0.000353
595 0.000352
596 0.000351
597 0.000346
598 0.000340
599 0.000338
600 0.000333
601 0.000328
602 0.000325
603 0.000323
604 0.000322
605 0.000321
606 0.000318
607 0.000315
608 0.000312
609 0.000310
610 0.000308
611 0.000305
612 0.000301
613 0.000296
614 0.000290
615 0.000286
616 0.000285
617 0.000286
618 0.000288
619 0.000288
620 0.000287
621 0.000287
622 0.000285
623 0.000280
624 0.000276
625 0.000275
626 0.000275
627 0.000277
628 0.000279
629 0.000280
630 0.000278
631 0.000279
632 0.000281
633 0.000283
634 0.000287
635 0.000287
636 0.000288
637 0.000286
638 0.000284
639 0.000284
640 0.000283
641 0.000280
642 0.000275
643 0.000271
644 0.000272
645 0.000272
646 0.000274
647 0.000276
648 0.000277
649 0.000280
650 0.000283
651 0.000284
652 0.000286
653 0.000288
654 0.000289
655 0.000289
656 0.000290
657 0.000289
658 0.000291
659 0.000291
660 0.000294
661 0.000294
662 0.000292
663 0.000293
664 0.000291
665 0.000290
666 0.000289
667 0.000288
668 0.000287
669 0.000285
670 0.000282
671 0.000278
672 0.000275
673 0.000273
674 0.000269
675 0.000264
676 0.000260
677 0.000255
678 0.000251
679 0.000251
680 0.000253
681 0.000254
682 0.000257
683 0.000259
684 0.000261
685 0.000262
686 0.000261
687 0.000263
688 0.000263
689 0.000261
690 0.000259
691 0.000257
692 0.000255
693 0.000255
694 0.000257
695 0.000257
696 0.000256
697 0.000251
698 0.000249
699 0.000247
700 0.000245
701 0.000244
702 0.000243
703 0.000243
704 0.000242
705 0.000241
706 0.000237
707 0.000233
708 0.000230
709 0.000228
710 0.000226
711 0.000227
712 0.000228
713 0.000231
714 0.000232
715 0.000237
716 0.000237
717 0.000238
718 0.000236
719 0.000233
720 0.000232
721 0.000230
722 0.000229
723 0.000228
724 0.000228
725 0.000230
726 0.000233
727 0.000233
728 0.000232
729 0.000229
730 0.000229
731 0.000227
732 0.000224
733 0.000221
734 0.000218
735 0.000214
736 0.000210
737 0.000208
738 0.000206
739 0.000205
740 0.000203
741 0.000200
742 0.000199
743 0.000199
744 0.000199
745 0.000199
746 0.000202
747 0.000203
748 0.000204
749 0.000207
750 0.000208
751 0.000207
752 0.000207
753 0.000206
754 0.000206
755 0.000207
756 0.000208
757 0.000210
758 0.000212
759 0.000213
760 0.000213
761 0.000213
762 0.000212
763 0.000213
764 0.000211
765 0.000210
766 0.000209
767 0.000208
768 0.000208
769 0.000206
770 0.000208
771 0.000210
772 0.000213
773 0.000216
774 0.000218
775 0.000220
776 0.000223
777 0.000224
778 0.000226
779 0.000224
780 0.000222
781 0.000219
782 0.000216
783 0.000211
784 0.000206
785 0.000202
786 0.000199
787 0.000196
788 0.000193
789 0.000191
790 0.000188
791 0.000185
792 0.000184
793 0.000181
794 0.000180
795 0.000179
796 0.000180
797 0.000182
798 0.000181
799 0.000180
800 0.000178
801 0.000178
802 0.000177
803 0.000176
804 0.000177
805 0.000175
806 0.000173
807 0.000174
808 0.000175
809 0.000174
