# i correlation
1 0.001929
2 0.001883
3 0.001846
4 0.001815
5 0.001785
6 0.001756
7 0.001728
8 0.001703
9 0.001679
10 0.001657
11 0.001642
12 0.001625
13 0.001613
14 0.001598
15 0.001585
16 0.001571
17 0.001560
18 0.001548
19 0.001533
20 0.001515
21 0.001497
22 0.001485
23 0.001475
24 0.001459
25 0.001445
26 0.001433
27 0.001425
28 0.001420
29 0.001416
30 0.001408
31 0.001400
32 0.001393
33 0.001388
34 0.001385
35 0.001381
36 0.001375
37 0.001370
38 0.001357
39 0.001348
40 0.001344
41 0.001341
42 0.001334
43 0.001328
44 0.001320
45 0.001316
46 0.001314
47 0.001313
48 0.001311
49 0.001306
50 0.001306
51 0.001306
52 0.001307
53 0.001302
54 0.001294
55 0.001286
56 0.001277
57 0.001272
58 0.001269
59 0.001263
60 0.001259
61 0.001255
62 0.001243
63 0.001238
64 0.001234
65 0.001229
66 0.001229
67 0.001228
68 0.001222
69 0.001214
70 0.001205
71 0.001194
72 0.001182
73 0.001172
74 0.001163
75 0.001154
76 0.001147
77 0.001141
78 0.001137
79 0.001134
80 0.001129
81 0.001126
82 0.001123
83 0.001125
84 0.001126
85 0.001130
86 0.001131
87 0.001132
88 0.001129
89 0.001130
90 0.001132
91 0.001134
92 0.001133
93 0.001131
94 0.001133
95 0.001134
96 0.001134
97 0.001133
98 0.001132
99 0.001126
100 0.001123
101 0.001117
102 0.001112
103 0.001111
104 0.001110
105 0.001107
106 0.001102
107 0.001100
108 0.001096
109 0.001088
110 0.001080
111 0.001075
112 0.001068
113 0.001063
114 0.001060
115 0.001054
116 0.001049
117 0.001043
118 0.001039
119 0.001035
120 0.001034
121 0.001031
122 0.001030
123 0.001027
124 0.001024
125 0.001019
126 0.001015
127 0.001015
128 0.001012
129 0.001010
130 0.001006
131 0.001004
132 0.001003
133 0.001002
134 0.001003
135 0.000999
136 0.000993
137 0.000990
138 0.000988
139 0.000984
140 0.000977
141 0.000966
142 0.000956
143 0.000950
144 0.000944
145 0.000940
146 0.000935
147 0.000929
148 0.000921
149 0.000915
150 0.000909
151 0.000905
152 0.000898
153 0.000889
154 0.000888
155 0.000883
156 0.000872
157 0.000863
158 0.000855
159 0.000848
160 0.000842
161 0.000837
162 0.000832
163 0.000832
164 0.000830
165 0.000826
166 0.000823
167 0.000819
168 0.000816
169 0.000818
170 0.000819
171 0.000821
172 0.000825
173 0.000829
174 0.000835
175 0.000836
176 0.000832
177 0.000831
178 0.000832
179 0.000837
180 0.000842
181 0.000848
182 0.000852
183 0.000855
184 0.000858
185 0.000858
186 0.000859
187 0.000860
188 0.000861
189 0.000861
190 0.000861
191 0.000859
192 0.000856
193 0.000852
194 0.000851
195 0.000848
196 0.000843
197 0.000834
198 0.000830
199 0.000824
200 0.000818
201 0.000815
202 0.000811
203 0.000809
204 0.000804
205 0.000797
206 0.000790
207 0.000782
208 0.000775
209 0.000766
210 0.000757
211 0.000743
212 0.000735
213 0.000729
214 0.000724
215 0.000722
216 0.000723
217 0.000720
218 0.000722
219 0.000718
220 0.000713
221 0.000710
222 0.000704
223 0.000701
224 0.000699
225 0.000694
226 0.000689
227 0.000689
228 0.000689
229 0.000687
230 0.000689
231 0.000690
232 0.000694
233 0.000697
234 0.000700
235 0.000703
236 0.000709
237 0.000712
238 0.000713
239 0.000711
240 0.000711
241 0.000711
242 0.000711
243 0.000707
244 0.000702
245 0.000698
246 0.000696
247 0.000693
248 0.000692
249 0.000695
250 0.000701
251 0.000704
252 0.000701
253 0.000699
254 0.000694
255 0.000693
256 0.000687
257 0.000681
258 0.000679
259 0.000682
260 0.000679
261 0.000677
262 0.000673
263 0.000669
264 0.000665
265 0.000657
266 0.000645
267 0.000634
268 0.000626
269 0.000622
270 0.000623
271 0.000618
272 0.000609
273 0.000601
274 0.000596
275 0.000589
276 0.000582
277 0.000580
278 0.000580
279 0.000584
280 0.000581
281 0.000578
282 0.000576
283 0.000574
284 0.000576
285 0.000578
286 0.000579
287 0.000585
288 0.000592
289 0.000594
290 0.000592
291 0.000588
292 0.000588
293 0.000591
294 0.000590
295 0.000588
296 0.000583
297 0.000575
298 0.000568
299 0.000563
300 0.000558
301 0.000557
302 0.000554
303 0.000550
304 0.000547
305 0.000544
306 0.000547
307 0.000551
308 0.000552
309 0.000551
310 0.000554
311 0.000554
312 0.000555
313 0.000549
314 0.000544
315 0.000540
316 0.000541
317 0.000539
318 0.000537
319 0.000532
320 0.000528
321 0.000526
322 0.000526
323 0.000527
324 0.000528
325 0.000525
326 0.000522
327 0.000518
328 0.000520
329 0.000521
330 0.000517
331 0.000509
332 0.000500
333 0.000487
334 0.000476
335 0.000469
336 0.000462
337 0.000459
338 0.000456
339 0.000451
340 0.000448
341 0.000445
342 0.000446
343 0.000444
344 0.000443
345 0.000442
346 0.000442
347 0.000438
348 0.000434
349 0.000430
350 0.000427
351 0.000423
352 0.000420
353 0.000421
354 0.000421
355 0.000422
356 0.000424
357 0.000427
358 0.000431
359 0.000433
360 0.000432
361 0.000433
362 0.000432
363 0.000428
364 0.000429
365 0.000430
366 0.000428
367 0.000427
368 0.000429
369 0.000430
370 0.000427
371 0.000422
372 0.000417
373 0.000416
374 0.000412
375 0.000411
376 0.000408
377 0.000407
378 0.000408
379 0.000412
380 0.000412
381 0.000409
382 0.000408
383 0.000406
384 0.000405
385 0.000404
386 0.000403
387 0.000406
388 0.000410
389 0.000413
390 0.000420
391 0.000423
392 0.000425
393 0.000425
394 0.000424
395 0.000423
396 0.000425
397 0.000428
398 0.000429
399 0.000428
400 0.000426
401 0.000424
402 0.000424
403 0.000423
404 0.000423
405 0.000420
406 0.000417
407 0.000412
408 0.000411
409 0.000409
410 0.000412
411 0.000412
412 0.000411
413 0.000416
414 0.000419
415 0.000421
416 0.000428
417 0.000435
418 0.000436
419 0.000444
420 0.000445
421 0.000446
422 0.000446
423 0.000445
424 0.000447
425 0.000448
426 0.000447
427 0.000445
428 0.000442
429 0.000436
430 0.000430
431 0.000427
432 0.000424
433 0.000422
434 0.000423
435 0.000420
436 0.000419
437 0.000414
438 0.000408
439 0.000404
440 0.000401
441 0.000394
442 0.000391
443 0.000386
444 0.000381
445 0.000373
446 0.000365
447 0.000357
448 0.000349
449 0.000341
450 0.000337
451 0.000331
452 0.000323
453 0.000318
454 0.000314
455 0.000305
456 0.000299
457 0.000293
458 0.000289
459 0.000281
460 0.000274
461 0.000267
462 0.000263
463 0.000258
464 0.000256
465 0.000255
466 0.000255
467 0.000253
468 0.000253
469 0.000251
470 0.000244
471 0.000238
472 0.000231
473 0.000222
474 0.000210
475 0.000205
476 0.000203
477 0.000203
478 0.000200
479 0.000203
480 0.000206
481 0.000208
482 0.000210
483 0.000216
484 0.000222
485 0.000227
486 0.000232
487 0.000237
488 0.000242
489 0.000246
490 0.000251
491 0.000256
492 0.000263
493 0.000269
494 0.000272
495 0.000276
496 0.000279
497 0.000288
498 0.000292
499 0.000293
500 0.000298
501 0.000300
502 0.000306
503 0.000308
504 0.000307
505 0.000305
506 0.000302
507 0.000299
508 0.000297
509 0.000295
510 0.000295
511 0.000296
512 0.000296
513 0.000295
514 0.000291
515 0.000288
516 0.000291
517 0.000293
518 0.000292
519 0.000291
520 0.000290
521 0.000286
522 0.000282
523 0.000275
524 0.000272
525 0.000269
526 0.000262
527 0.000255
528 0.000250
529 0.000249
530 0.000249
531 0.000250
532 0.000251
533 0.000252
534 0.000252
535 0.000252
536 0.000249
537 0.000247
538 0.000248
539 0.000250
540 0.000251
541 0.000250
542 0.000247
543 0.000245
544 0.000246
545 0.000248
546 0.000249
547 0.000253
548 0.000259
549 0.000261
550 0.000263
551 0.000267
552 0.000273
553 0.000277
554 0.000280
555 0.000278
556 0.000275
557 0.000275
558 0.000279
559 0.000279
560 0.000277
561 0.000275
562 0.000272
563 0.000270
564 0.000266
565 0.000265
566 0.000262
567 0.000259
568 0.000254
569 0.000249
570 0.000248
571 0.000249
572 0.000245
573 0.000238
574 0.000235
575 0.000230
576 0.000226
577 0.000222
578 0.000216
579 0.000212
580 0.000210
581 0.000209
582 0.000212
583 0.000215
584 0.000211
585 0.000211
586 0.000213
587 0.000215
588 0.000218
589 0.000221
590 0.000221
591 0.000223
592 0.000224
593 0.000228
594 0.000230
595 0.000232
596 0.000235
597 0.000238
598 0.000240
599 0.000245
600 0.000253
601 0.000260
602 0.000263
603 0.000261
604 0.000259
605 0.000261
606 0.000263
607 0.000264
608 0.000265
609 0.000265
610 0.000261
611 0.000260
612 0.000259
613 0.000257
614 0.000256
615 0.000253
616 0.000253
617 0.000259
618 0.000265
619 0.000269
620 0.000272
621 0.000271
622 0.000272
623 0.000273
624 0.000277
625 0.000279
626 0.000277
627 0.000273
628 0.000271
629 0.000271
630 0.000271
631 0.000272
632 0.000272
633 0.000268
634 0.000265
635 0.000263
636 0.000260
637 0.000258
638 0.000259
639 0.000260
640 0.000262
641 0.000262
642 0.000261
643 0.000259
644 0.000257
645 0.000252
646 0.000249
647 0.000247
648 0.000244
649 0.000243
650 0.000241
651 0.000242
652 0.000245
653 0.000248
654 0.000250
655 0.000251
656 0.000250
657 0.000248
658 0.000245
659 0.000241
660 0.000236
661 0.000232
662 0.000226
663 0.000223
664 0.000218
665 0.000214
666 0.000212
667 0.000209
668 0.000207
669 0.000208
670 0.000206
671 0.000205
672 0.000206
673 0.000203
674 0.000204
675 0.000204
676 0.000206
677 0.000205
678 0.000205
679 0.000204
680 0.000201
681 0.000201
682 0.000203
683 0.000207
684 0.000212
685 0.000218
686 0.000223
687 0.000229
688 0.000232
689 0.000233
690 0.000234
691 0.000238
692 0.000241
693 0.000241
694 0.000238
695 0.000234
696 0.000232
697 0.000229
698 0.000226
699 0.000222
700 0.000215
701 0.000210
702 0.000200
703 0.000196
704 0.000193
705 0.000187
706 0.000182
707 0.000177
708 0.000171
709 0.000167
710 0.000162
711 0.000158
712 0.000155
713 0.000152
714 0.000150
715 0.000149
716 0.000148
717 0.000145
718 0.000138
719 0.000133
720 0.000130
721 0.000128
722 0.000126
723 0.000119
724 0.000113
725 0.000108
726 0.000104
727 0.000100
728 0.000099
729 0.000098
730 0.000096
731 0.000094
732 0.000096
733 0.000098
734 0.000099
735 0.000102
736 0.000104
737 0.000106
738 0.000105
739 0.000106
740 0.000108
741 0.000110
742 0.000109
743 0.000110
744 0.000112
745 0.000114
746 0.000117
747 0.000119
748 0.000124
749 0.000127
750 0.000130
751 0.000135
752 0.000140
753 0.000143
754 0.000145
755 0.000146
756 0.000148
757 0.000148
758 0.000143
759 0.000138
760 0.000132
761 0.000127
762 0.000123
763 0.000119
764 0.000114
765 0.000108
766 0.000102
767 0.000098
768 0.000095
769 0.000093
770 0.000092
771 0.000092
772 0.000091
773 0.000089
774 0.000086
775 0.000086
776 0.000085
777 0.000082
778 0.000082
779 0.000081
780 0.000080
781 0.000080
782 0.000080
783 0.000081
784 0.000080
785 0.000078
786 0.000078
787 0.000077
788 0.000078
789 0.000077
790 0.000077
791 0.000076
792 0.000074
793 0.000072
794 0.000071
795 0.000072
796 0.000075
797 0.000073
798 0.000074
799 0.000075
800 0.000074
801 0.000075
802 0.000073
803 0.000073
804 0.000077
805 0.000079
806 0.000078
807 0.000080
808 0.000084
809 0.000090
