# i correlation
1 0.001553
2 0.001510
3 0.001474
4 0.001439
5 0.001414
6 0.001394
7 0.001379
8 0.001368
9 0.001356
10 0.001344
11 0.001334
12 0.001323
13 0.001321
14 0.001316
15 0.001310
16 0.001302
17 0.001291
18 0.001282
19 0.001273
20 0.001266
21 0.001258
22 0.001247
23 0.001237
24 0.001231
25 0.001229
26 0.001227
27 0.001226
28 0.001227
29 0.001223
30 0.001218
31 0.001215
32 0.001215
33 0.001212
34 0.001213
35 0.001211
36 0.001206
37 0.001201
38 0.001195
39 0.001187
40 0.001177
41 0.001166
42 0.001158
43 0.001151
44 0.001140
45 0.001134
46 0.001123
47 0.001112
48 0.001108
49 0.001099
50 0.001093
51 0.001086
52 0.001079
53 0.001077
54 0.001073
55 0.001068
56 0.001061
57 0.001057
58 0.001055
59 0.001052
60 0.001047
61 0.001045
62 0.001046
63 0.001049
64 0.001045
65 0.001044
66 0.001043
67 0.001042
68 0.001039
69 0.001030
70 0.001025
71 0.001015
72 0.001008
73 0.001003
74 0.000994
75 0.000987
76 0.000985
77 0.000979
78 0.000976
79 0.000970
80 0.000964
81 0.000960
82 0.000954
83 0.000947
84 0.000941
85 0.000937
86 0.000931
87 0.000921
88 0.000915
89 0.000909
90 0.000903
91 0.000905
92 0.000902
93 0.000901
94 0.000899
95 0.000901
96 0.000904
97 0.000904
98 0.000908
99 0.000911
100 0.000914
101 0.000913
102 0.000910
103 0.000905
104 0.000902
105 0.000901
106 0.000900
107 0.000897
108 0.000891
109 0.000890
110 0.000889
111 0.000887
112 0.000881
113 0.000877
114 0.000874
115 0.000869
116 0.000864
117 0.000856
118 0.000853
119 0.000849
120 0.000842
121 0.000835
122 0.000824
123 0.000812
124 0.000801
125 0.000794
126 0.000792
127 0.000792
128 0.000794
129 0.000793
130 0.000793
131 0.000791
132 0.000786
133 0.000782
134 0.000783
135 0.000786
136 0.000791
137 0.000796
138 0.000795
139 0.000793
140 0.000788
141 0.000786
142 0.000784
143 0.000787
144 0.000788
145 0.000787
146 0.000781
147 0.000775
148 0.000768
149 0.000761
150 0.000756
151 0.000754
152 0.000755
153 0.000758
154 0.000761
155 0.000759
156 0.000753
157 0.000748
158 0.000740
159 0.000732
160 0.000722
161 0.000717
162 0.000709
163 0.000708
164 0.000713
165 0.000712
166 0.000715
167 0.000716
168 0.000718
169 0.000720
170 0.000720
171 0.000721
172 0.000721
173 0.000720
174 0.000718
175 0.000713
176 0.000710
177 0.000711
178 0.000709
179 0.000711
180 0.000714
181 0.000717
182 0.000720
183 0.000717
184 0.000709
185 0.000705
186 0.000702
187 0.000698
188 0.000697
189 0.000698
190 0.000699
191 0.000703
192 0.000704
193 0.000704
194 0.000697
195 0.000695
196 0.000693
197 0.000691
198 0.000687
199 0.000682
200 0.000679
201 0.000676
202 0.000673
203 0.000670
204 0.000664
205 0.000660
206 0.000657
207 0.000659
208 0.000656
209 0.000657
210 0.000659
211 0.000662
212 0.000660
213 0.000654
214 0.000653
215 0.000649
216 0.000648
217 0.000649
218 0.000643
219 0.000639
220 0.000637
221 0.000636
222 0.000637
223 0.000636
224 0.000638
225 0.000639
226 0.000635
227 0.000633
228 0.000630
229 0.000628
230 0.000630
231 0.000629
232 0.000627
233 0.000626
234 0.000626
235 0.000625
236 0.000624
237 0.000623
238 0.000621
239 0.000622
240 0.000621
241 0.000622
242 0.000624
243 0.000623
244 0.000620
245 0.000619
246 0.000613
247 0.000611
248 0.000611
249 0.000614
250 0.000619
251 0.000619
252 0.000617
253 0.000615
254 0.000613
255 0.000616
256 0.000621
257 0.000622
258 0.000623
259 0.000623
260 0.000619
261 0.000612
262 0.000608
263 0.000601
264 0.000599
265 0.000601
266 0.000599
267 0.000597
268 0.000597
269 0.000599
270 0.000603
271 0.000605
272 0.000602
273 0.000605
274 0.000605
275 0.000603
276 0.000596
277 0.000594
278 0.000585
279 0.000580
280 0.000578
281 0.000577
282 0.000577
283 0.000579
284 0.000579
285 0.000577
286 0.000573
287 0.000570
288 0.000567
289 0.000564
290 0.000568
291 0.000572
292 0.000574
293 0.000573
294 0.000565
295 0.000559
296 0.000554
297 0.000547
298 0.000547
299 0.000545
300 0.000542
301 0.000543
302 0.000545
303 0.000544
304 0.000540
305 0.000535
306 0.000530
307 0.000530
308 0.000529
309 0.000526
310 0.000526
311 0.000523
312 0.000520
313 0.000515
314 0.000509
315 0.000507
316 0.000509
317 0.000511
318 0.000513
319 0.000512
320 0.000514
321 0.000515
322 0.000518
323 0.000524
324 0.000528
325 0.000531
326 0.000531
327 0.000531
328 0.000531
329 0.000530
330 0.000530
331 0.000531
332 0.000531
333 0.000532
334 0.000534
335 0.000536
336 0.000540
337 0.000543
338 0.000542
339 0.000536
340 0.000532
341 0.000526
342 0.000518
343 0.000514
344 0.000514
345 0.000513
346 0.000513
347 0.000512
348 0.000513
349 0.000510
350 0.000511
351 0.000509
352 0.000508
353 0.000510
354 0.000511
355 0.000512
356 0.000515
357 0.000515
358 0.000511
359 0.000508
360 0.000509
361 0.000512
362 0.000515
363 0.000516
364 0.000517
365 0.000519
366 0.000521
367 0.000517
368 0.000517
369 0.000519
370 0.000520
371 0.000522
372 0.000520
373 0.000515
374 0.000509
375 0.000505
376 0.000496
377 0.000491
378 0.000489
379 0.000490
380 0.000488
381 0.000487
382 0.000486
383 0.000484
384 0.000486
385 0.000484
386 0.000485
387 0.000481
388 0.000480
389 0.000481
390 0.000479
391 0.000475
392 0.000472
393 0.000471
394 0.000470
395 0.000467
396 0.000468
397 0.000465
398 0.000465
399 0.000465
400 0.000466
401 0.000469
402 0.000473
403 0.000473
404 0.000476
405 0.000476
406 0.000470
407 0.000464
408 0.000457
409 0.000449
410 0.000444
411 0.000440
412 0.000433
413 0.000428
414 0.000426
415 0.000419
416 0.000415
417 0.000413
418 0.000414
419 0.000415
420 0.000416
421 0.000419
422 0.000422
423 0.000421
424 0.000420
425 0.000412
426 0.000405
427 0.000399
428 0.000397
429 0.000397
430 0.000396
431 0.000395
432 0.000394
433 0.000390
434 0.000387
435 0.000386
436 0.000386
437 0.000387
438 0.000391
439 0.000392
440 0.000389
441 0.000385
442 0.000382
443 0.000377
444 0.000372
445 0.000369
446 0.000368
447 0.000367
448 0.000366
449 0.000365
450 0.000362
451 0.000360
452 0.000360
453 0.000359
454 0.000357
455 0.000356
456 0.000355
457 0.000353
458 0.000352
459 0.000354
460 0.000352
461 0.000351
462 0.000356
463 0.000358
464 0.000360
465 0.000360
466 0.000363
467 0.000367
468 0.000366
469 0.000361
470 0.000354
471 0.000348
472 0.000348
473 0.000345
474 0.000344
475 0.000346
476 0.000345
477 0.000346
478 0.000341
479 0.000338
480 0.000339
481 0.000341
482 0.000342
483 0.000343
484 0.000346
485 0.000346
486 0.000342
487 0.000338
488 0.000334
489 0.000330
490 0.000323
491 0.000320
492 0.000316
493 0.000309
494 0.000304
495 0.000296
496 0.000289
497 0.000287
498 0.000287
499 0.000290
500 0.000292
501 0.000294
502 0.000295
503 0.000294
504 0.000294
505 0.000296
506 0.000295
507 0.000298
508 0.000298
509 0.000298
510 0.000297
511 0.000292
512 0.000291
513 0.000288
514 0.000285
515 0.000285
516 0.000285
517 0.000290
518 0.000295
519 0.000299
520 0.000303
521 0.000304
522 0.000303
523 0.000301
524 0.000299
525 0.000299
526 0.000301
527 0.000302
528 0.000301
529 0.000301
530 0.000301
531 0.000299
532 0.000300
533 0.000303
534 0.000304
535 0.000307
536 0.000307
537 0.000306
538 0.000306
539 0.000308
540 0.000308
541 0.000309
542 0.000309
543 0.000306
544 0.000304
545 0.000304
546 0.000304
547 0.000309
548 0.000314
549 0.000316
550 0.000317
551 0.000315
552 0.000313
553 0.000310
554 0.000307
555 0.000304
556 0.000303
557 0.000305
558 0.000307
559 0.000306
560 0.000305
561 0.000307
562 0.000306
563 0.000304
564 0.000300
565 0.000297
566 0.000295
567 0.000295
568 0.000292
569 0.000286
570 0.000281
571 0.000275
572 0.000275
573 0.000279
574 0.000283
575 0.000285
576 0.000286
577 0.000286
578 0.000287
579 0.000282
580 0.000279
581 0.000276
582 0.000276
583 0.000276
584 0.000275
585 0.000277
586 0.000280
587 0.000284
588 0.000286
589 0.000286
590 0.000283
591 0.000279
592 0.000274
593 0.000273
594 0.000271
595 0.000270
596 0.000266
597 0.000260
598 0.000253
599 0.000250
600 0.000247
601 0.000245
602 0.000244
603 0.000247
604 0.000248
605 0.000248
606 0.000247
607 0.000246
608 0.000244
609 0.000242
610 0.000238
611 0.000236
612 0.000233
613 0.000230
614 0.000228
615 0.000230
616 0.000231
617 0.000234
618 0.000236
619 0.000236
620 0.000239
621 0.000240
622 0.000243
623 0.000243
624 0.000242
625 0.000242
626 0.000242
627 0.000239
628 0.000240
629 0.000240
630 0.000239
631 0.000236
632 0.000229
633 0.000226
634 0.000221
635 0.000218
636 0.000215
637 0.000210
638 0.000205
639 0.000202
640 0.000199
641 0.000196
642 0.000191
643 0.000188
644 0.000184
645 0.000180
646 0.000178
647 0.000175
648 0.000172
649 0.000171
650 0.000168
651 0.000163
652 0.000162
653 0.000160
654 0.000160
655 0.000162
656 0.000162
657 0.000164
658 0.000166
659 0.000165
660 0.000162
661 0.000155
662 0.000152
663 0.000153
664 0.000150
665 0.000149
666 0.000148
667 0.000145
668 0.000140
669 0.000134
670 0.000131
671 0.000127
672 0.000123
673 0.000123
674 0.000121
675 0.000118
676 0.000115
677 0.000113
678 0.000113
679 0.000116
680 0.000115
681 0.000114
682 0.000110
683 0.000106
684 0.000105
685 0.000104
686 0.000104
687 0.000107
688 0.000108
689 0.000110
690 0.000110
691 0.000111
692 0.000114
693 0.000118
694 0.000124
695 0.000128
696 0.000130
697 0.000130
698 0.000129
699 0.000125
700 0.000123
701 0.000122
702 0.000121
703 0.000121
704 0.000120
705 0.000118
706 0.000118
707 0.000118
708 0.000119
709 0.000121
710 0.000121
711 0.000118
712 0.000116
713 0.000112
714 0.000110
715 0.000111
716 0.000110
717 0.000112
718 0.000113
719 0.000115
720 0.000117
721 0.000121
722 0.000126
723 0.000127
724 0.000132
725 0.000136
726 0.000139
727 0.000141
728 0.000146
729 0.000153
730 0.000160
731 0.000165
732 0.000174
733 0.000179
734 0.000183
735 0.000185
736 0.000184
737 0.000184
738 0.000183
739 0.000184
740 0.000185
741 0.000186
742 0.000187
743 0.000189
744 0.000189
745 0.000187
746 0.000184
747 0.000182
748 0.000178
749 0.000175
750 0.000171
751 0.000167
752 0.000164
753 0.000160
754 0.000156
755 0.000155
756 0.000152
757 0.000151
758 0.000151
759 0.000153
760 0.000153
761 0.000150
762 0.000147
763 0.000144
764 0.000141
765 0.000141
766 0.000138
767 0.000137
768 0.000137
769 0.000136
770 0.000138
771 0.000138
772 0.000137
773 0.000135
774 0.000133
775 0.000132
776 0.000132
777 0.000130
778 0.000130
779 0.000131
780 0.000129
781 0.000126
782 0.000120
783 0.000116
784 0.000114
785 0.000112
786 0.000109
787 0.000108
788 0.000106
789 0.000102
790 0.000102
791 0.000102
792 0.000104
793 0.000106
794 0.000107
795 0.000107
796 0.000106
797 0.000107
798 0.000105
799 0.000105
800 0.000108
801 0.000107
802 0.000107
803 0.000107
804 0.000105
805 0.000104
806 0.000102
807 0.000100
808 0.000100
809 0.000098
