# i correlation
1 0.001742
2 0.001685
3 0.001634
4 0.001591
5 0.001560
6 0.001537
7 0.001513
8 0.001490
9 0.001462
10 0.001441
11 0.001423
12 0.001407
13 0.001390
14 0.001373
15 0.001358
16 0.001346
17 0.001336
18 0.001331
19 0.001323
20 0.001311
21 0.001307
22 0.001303
23 0.001302
24 0.001300
25 0.001296
26 0.001287
27 0.001275
28 0.001265
29 0.001259
30 0.001255
31 0.001248
32 0.001238
33 0.001220
34 0.001202
35 0.001193
36 0.001183
37 0.001174
38 0.001169
39 0.001164
40 0.001156
41 0.001145
42 0.001134
43 0.001121
44 0.001116
45 0.001111
46 0.001107
47 0.001108
48 0.001106
49 0.001100
50 0.001094
51 0.001092
52 0.001091
53 0.001087
54 0.001087
55 0.001085
56 0.001084
57 0.001083
58 0.001075
59 0.001065
60 0.001055
61 0.001047
62 0.001043
63 0.001040
64 0.001029
65 0.001021
66 0.001011
67 0.001001
68 0.000991
69 0.000983
70 0.000978
71 0.000974
72 0.000970
73 0.000968
74 0.000964
75 0.000962
76 0.000967
77 0.000972
78 0.000975
79 0.000975
80 0.000978
81 0.000982
82 0.000986
83 0.000989
84 0.000995
85 0.000996
86 0.000991
87 0.000992
88 0.000993
89 0.000994
90 0.000995
91 0.000992
92 0.000989
93 0.000984
94 0.000980
95 0.000977
96 0.000976
97 0.000973
98 0.000969
99 0.000963
100 0.000953
101 0.000947
102 0.000946
103 0.000950
104 0.000947
105 0.000941
106 0.000932
107 0.000925
108 0.000923
109 0.000921
110 0.000921
111 0.000921
112 0.000918
113 0.000921
114 0.000920
115 0.000923
116 0.000918
117 0.000915
118 0.000912
119 0.000910
120 0.000914
121 0.000916
122 0.000914
123 0.000915
124 0.000914
125 0.000912
126 0.000907
127 0.000903
128 0.000899
129 0.000890
130 0.000882
131 0.000872
132 0.000865
133 0.000861
134 0.000854
135 0.000843
136 0.000834
137 0.000823
138 0.000813
139 0.000809
140 0.000805
141 0.000807
142 0.000809
143 0.000809
144 0.000807
145 0.000798
146 0.000789
147 0.000781
148 0.000774
149 0.000769
150 0.000767
151 0.000763
152 0.000759
153 0.000753
154 0.000750
155 0.000751
156 0.000749
157 0.000748
158 0.000747
159 0.000747
160 0.000752
161 0.000754
162 0.000751
163 0.000745
164 0.000736
165 0.000730
166 0.000727
167 0.000727
168 0.000726
169 0.000721
170 0.000716
171 0.000710
172 0.000711
173 0.000709
174 0.000708
175 0.000706
176 0.000701
177 0.000700
178 0.000699
179 0.000702
180 0.000704
181 0.000708
182 0.000706
183 0.000702
184 0.000701
185 0.000697
186 0.000694
187 0.000694
188 0.000692
189 0.000692
190 0.000686
191 0.000682
192 0.000677
193 0.000670
194 0.000659
195 0.000652
196 0.000644
197 0.000643
198 0.000647
199 0.000652
200 0.000657
201 0.000656
202 0.000659
203 0.000666
204 0.000675
205 0.000680
206 0.000687
207 0.000689
208 0.000689
209 0.000684
210 0.000674
211 0.000672
212 0.000671
213 0.000668
214 0.000666
215 0.000664
216 0.000661
217 0.000656
218 0.000652
219 0.000646
220 0.000640
221 0.000634
222 0.000632
223 0.000630
224 0.000630
225 0.000629
226 0.000630
227 0.000631
228 0.000632
229 0.000627
230 0.000623
231 0.000621
232 0.000616
233 0.000614
234 0.000610
235 0.000606
236 0.000604
237 0.000599
238 0.000592
239 0.000586
240 0.000578
241 0.000571
242 0.000561
243 0.000557
244 0.000556
245 0.000552
246 0.000550
247 0.000549
248 0.000542
249 0.000537
250 0.000531
251 0.000529
252 0.000530
253 0.000528
254 0.000530
255 0.000534
256 0.000537
257 0.000541
258 0.000542
259 0.000537
260 0.000533
261 0.000530
262 0.000529
263 0.000526
264 0.000524
265 0.000522
266 0.000522
267 0.000522
268 0.000522
269 0.000527
270 0.000530
271 0.000533
272 0.000531
273 0.000527
274 0.000525
275 0.000530
276 0.000531
277 0.000529
278 0.000528
279 0.000527
280 0.000528
281 0.000535
282 0.000542
283 0.000546
284 0.000548
285 0.000551
286 0.000551
287 0.000558
288 0.000567
289 0.000574
290 0.000579
291 0.000582
292 0.000581
293 0.000576
294 0.000574
295 0.000564
296 0.000558
297 0.000549
298 0.000542
299 0.000538
300 0.000537
301 0.000537
302 0.000542
303 0.000545
304 0.000549
305 0.000551
306 0.000555
307 0.000556
308 0.000560
309 0.000565
310 0.000570
311 0.000572
312 0.000578
313 0.000582
314 0.000585
315 0.000584
316 0.000580
317 0.000576
318 0.000573
319 0.000567
320 0.000566
321 0.000561
322 0.000555
323 0.000551
324 0.000546
325 0.000542
326 0.000542
327 0.000541
328 0.000541
329 0.000539
330 0.000535
331 0.000534
332 0.000536
333 0.000537
334 0.000535
335 0.000533
336 0.000533
337 0.000528
338 0.000522
339 0.000521
340 0.000516
341 0.000513
342 0.000513
343 0.000509
344 0.000507
345 0.000503
346 0.000501
347 0.000501
348 0.000503
349 0.000505
350 0.000504
351 0.000502
352 0.000496
353 0.000485
354 0.000477
355 0.000469
356 0.000459
357 0.000450
358 0.000444
359 0.000442
360 0.000440
361 0.000437
362 0.000428
363 0.000421
364 0.000415
365 0.000412
366 0.000408
367 0.000406
368 0.000402
369 0.000398
370 0.000395
371 0.000392
372 0.000393
373 0.000394
374 0.000396
375 0.000395
376 0.000391
377 0.000385
378 0.000378
379 0.000374
380 0.000372
381 0.000370
382 0.000366
383 0.000366
384 0.000364
385 0.000366
386 0.000372
387 0.000377
388 0.000378
389 0.000376
390 0.000377
391 0.000377
392 0.000377
393 0.000382
394 0.000382
395 0.000381
396 0.000382
397 0.000386
398 0.000393
399 0.000402
400 0.000408
401 0.000408
402 0.000407
403 0.000405
404 0.000404
405 0.000404
406 0.000405
407 0.000404
408 0.000406
409 0.000409
410 0.000407
411 0.000412
412 0.000415
413 0.000416
414 0.000419
415 0.000422
416 0.000423
417 0.000429
418 0.000432
419 0.000431
420 0.000427
421 0.000422
422 0.000419
423 0.000421
424 0.000424
425 0.000425
426 0.000425
427 0.000427
428 0.000426
429 0.000428
430 0.000434
431 0.000442
432 0.000451
433 0.000456
434 0.000457
435 0.000460
436 0.000462
437 0.000466
438 0.000467
439 0.000467
440 0.000461
441 0.000453
442 0.000444
443 0.000436
444 0.000432
445 0.000432
446 0.000428
447 0.000423
448 0.000417
449 0.000412
450 0.000409
451 0.000407
452 0.000405
453 0.000405
454 0.000403
455 0.000402
456 0.000403
457 0.000401
458 0.000399
459 0.000398
460 0.000396
461 0.000395
462 0.000397
463 0.000399
464 0.000399
465 0.000390
466 0.000377
467 0.000368
468 0.000359
469 0.000354
470 0.000354
471 0.000353
472 0.000352
473 0.000346
474 0.000341
475 0.000337
476 0.000333
477 0.000328
478 0.000324
479 0.000323
480 0.000322
481 0.000323
482 0.000321
483 0.000322
484 0.000319
485 0.000317
486 0.000316
487 0.000315
488 0.000318
489 0.000326
490 0.000333
491 0.000339
492 0.000342
493 0.000347
494 0.000353
495 0.000355
496 0.000359
497 0.000360
498 0.000358
499 0.000352
500 0.000342
501 0.000334
502 0.000330
503 0.000329
504 0.000328
505 0.000326
506 0.000323
507 0.000324
508 0.000328
509 0.000330
510 0.000331
511 0.000335
512 0.000338
513 0.000341
514 0.000347
515 0.000351
516 0.000355
517 0.000357
518 0.000356
519 0.000356
520 0.000358
521 0.000365
522 0.000365
523 0.000363
524 0.000355
525 0.000345
526 0.000340
527 0.000341
528 0.000341
529 0.000342
530 0.000339
531 0.000334
532 0.000329
533 0.000325
534 0.000321
535 0.000320
536 0.000316
537 0.000315
538 0.000314
539 0.000309
540 0.000308
541 0.000305
542 0.000305
543 0.000308
544 0.000314
545 0.000314
546 0.000314
547 0.000314
548 0.000313
549 0.000310
550 0.000310
551 0.000310
552 0.000309
553 0.000308
554 0.000304
555 0.000303
556 0.000305
557 0.000303
558 0.000303
559 0.000305
560 0.000308
561 0.000310
562 0.000307
563 0.000304
564 0.000300
565 0.000294
566 0.000293
567 0.000293
568 0.000291
569 0.000287
570 0.000284
571 0.000280
572 0.000274
573 0.000270
574 0.000267
575 0.000266
576 0.000262
577 0.000261
578 0.000260
579 0.000259
580 0.000256
581 0.000250
582 0.000246
583 0.000241
584 0.000236
585 0.000234
586 0.000233
587 0.000231
588 0.000231
589 0.000231
590 0.000231
591 0.000232
592 0.000235
593 0.000234
594 0.000233
595 0.000233
596 0.000235
597 0.000238
598 0.000242
599 0.000244
600 0.000247
601 0.000248
602 0.000246
603 0.000246
604 0.000247
605 0.000247
606 0.000250
607 0.000250
608 0.000247
609 0.000241
610 0.000234
611 0.000231
612 0.000230
613 0.000231
614 0.000236
615 0.000239
616 0.000240
617 0.000244
618 0.000249
619 0.000252
620 0.000254
621 0.000259
622 0.000264
623 0.000268
624 0.000272
625 0.000278
626 0.000280
627 0.000282
628 0.000278
629 0.000273
630 0.000271
631 0.000270
632 0.000267
633 0.000264
634 0.000262
635 0.000262
636 0.000264
637 0.000266
638 0.000265
639 0.000261
640 0.000258
641 0.000253
642 0.000249
643 0.000246
644 0.000246
645 0.000246
646 0.000246
647 0.000246
648 0.000249
649 0.000249
650 0.000245
651 0.000245
652 0.000240
653 0.000236
654 0.000230
655 0.000225
656 0.000220
657 0.000214
658 0.000207
659 0.000199
660 0.000190
661 0.000182
662 0.000176
663 0.000171
664 0.000169
665 0.000169
666 0.000166
667 0.000163
668 0.000159
669 0.000155
670 0.000150
671 0.000143
672 0.000136
673 0.000131
674 0.000130
675 0.000129
676 0.000133
677 0.000136
678 0.000137
679 0.000138
680 0.000137
681 0.000135
682 0.000131
683 0.000126
684 0.000121
685 0.000116
686 0.000114
687 0.000113
688 0.000113
689 0.000114
690 0.000115
691 0.000111
692 0.000108
693 0.000104
694 0.000104
695 0.000105
696 0.000106
697 0.000104
698 0.000103
699 0.000103
700 0.000104
701 0.000104
702 0.000105
703 0.000108
704 0.000108
705 0.000111
706 0.000112
707 0.000115
708 0.000117
709 0.000119
710 0.000120
711 0.000123
712 0.000123
713 0.000123
714 0.000125
715 0.000127
716 0.000133
717 0.000136
718 0.000138
719 0.000141
720 0.000145
721 0.000152
722 0.000154
723 0.000153
724 0.000152
725 0.000153
726 0.000156
727 0.000160
728 0.000164
729 0.000167
730 0.000170
731 0.000170
732 0.000170
733 0.000170
734 0.000172
735 0.000173
736 0.000172
737 0.000170
738 0.000168
739 0.000165
740 0.000163
741 0.000165
742 0.000168
743 0.000171
744 0.000171
745 0.000172
746 0.000173
747 0.000179
748 0.000185
749 0.000190
750 0.000197
751 0.000204
752 0.000210
753 0.000213
754 0.000212
755 0.000210
756 0.000207
757 0.000204
758 0.000202
759 0.000202
760 0.000203
761 0.000202
762 0.000202
763 0.000201
764 0.000202
765 0.000200
766 0.000200
767 0.000200
768 0.000201
769 0.000200
770 0.000197
771 0.000193
772 0.000191
773 0.000190
774 0.000190
775 0.000186
776 0.000183
777 0.000179
778 0.000179
779 0.000180
780 0.000179
781 0.000177
782 0.000176
783 0.000175
784 0.000175
785 0.000174
786 0.000170
787 0.000167
788 0.000161
789 0.000158
790 0.000152
791 0.000147
792 0.000144
793 0.000136
794 0.000126
795 0.000119
796 0.000111
797 0.000109
798 0.000108
799 0.000111
800 0.000114
801 0.000113
802 0.000113
803 0.000114
804 0.000118
805 0.000119
806 0.000119
807 0.000119
808 0.000120
809 0.000117
