# i correlation
1 0.001563
2 0.001520
3 0.001486
4 0.001458
5 0.001438
6 0.001419
7 0.001408
8 0.001397
9 0.001381
10 0.001366
11 0.001347
12 0.001331
13 0.001312
14 0.001296
15 0.001285
16 0.001275
17 0.001263
18 0.001252
19 0.001242
20 0.001232
21 0.001223
22 0.001216
23 0.001209
24 0.001202
25 0.001194
26 0.001185
27 0.001173
28 0.001161
29 0.001147
30 0.001136
31 0.001128
32 0.001121
33 0.001109
34 0.001099
35 0.001087
36 0.001076
37 0.001066
38 0.001059
39 0.001048
40 0.001039
41 0.001031
42 0.001023
43 0.001015
44 0.001005
45 0.000997
46 0.000995
47 0.000992
48 0.000991
49 0.000991
50 0.000995
51 0.000997
52 0.000993
53 0.000989
54 0.000987
55 0.000983
56 0.000975
57 0.000967
58 0.000963
59 0.000956
60 0.000945
61 0.000935
62 0.000934
63 0.000937
64 0.000939
65 0.000932
66 0.000927
67 0.000922
68 0.000914
69 0.000908
70 0.000903
71 0.000896
72 0.000891
73 0.000889
74 0.000888
75 0.000884
76 0.000880
77 0.000877
78 0.000871
79 0.000862
80 0.000859
81 0.000856
82 0.000855
83 0.000852
84 0.000849
85 0.000842
86 0.000838
87 0.000833
88 0.000830
89 0.000830
90 0.000831
91 0.000828
92 0.000826
93 0.000822
94 0.000821
95 0.000818
96 0.000815
97 0.000811
98 0.000813
99 0.000816
100 0.000819
101 0.000820
102 0.000815
103 0.000809
104 0.000804
105 0.000800
106 0.000795
107 0.000791
108 0.000788
109 0.000785
110 0.000781
111 0.000778
112 0.000777
113 0.000774
114 0.000769
115 0.000765
116 0.000760
117 0.000755
118 0.000748
119 0.000747
120 0.000749
121 0.000753
122 0.000756
123 0.000758
124 0.000757
125 0.000754
126 0.000750
127 0.000750
128 0.000749
129 0.000744
130 0.000739
131 0.000737
132 0.000741
133 0.000742
134 0.000742
135 0.000739
136 0.000736
137 0.000733
138 0.000732
139 0.000728
140 0.000729
141 0.000729
142 0.000729
143 0.000729
144 0.000728
145 0.000726
146 0.000723
147 0.000726
148 0.000730
149 0.000731
150 0.000734
151 0.000738
152 0.000739
153 0.000738
154 0.000737
155 0.000735
156 0.000730
157 0.000723
158 0.000719
159 0.000717
160 0.000713
161 0.000705
162 0.000701
163 0.000698
164 0.000696
165 0.000696
166 0.000696
167 0.000696
168 0.000694
169 0.000693
170 0.000694
171 0.000698
172 0.000697
173 0.000693
174 0.000694
175 0.000695
176 0.000696
177 0.000695
178 0.000695
179 0.000695
180 0.000690
181 0.000687
182 0.000684
183 0.000679
184 0.000674
185 0.000668
186 0.000661
187 0.000656
188 0.000648
189 0.000640
190 0.000635
191 0.000628
192 0.000623
193 0.000614
194 0.000606
195 0.000601
196 0.000600
197 0.000604
198 0.000600
199 0.000598
200 0.000593
201 0.000590
202 0.000587
203 0.000580
204 0.000577
205 0.000580
206 0.000585
207 0.000589
208 0.000583
209 0.000580
210 0.000571
211 0.000560
212 0.000554
213 0.000546
214 0.000540
215 0.000534
216 0.000527
217 0.000524
218 0.000519
219 0.000514
220 0.000507
221 0.000503
222 0.000502
223 0.000501
224 0.000500
225 0.000496
226 0.000496
227 0.000496
228 0.000500
229 0.000505
230 0.000506
231 0.000507
232 0.000509
233 0.000512
234 0.000515
235 0.000518
236 0.000518
237 0.000520
238 0.000515
239 0.000509
240 0.000505
241 0.000501
242 0.000497
243 0.000497
244 0.000496
245 0.000501
246 0.000502
247 0.000506
248 0.000506
249 0.000505
250 0.000502
251 0.000503
252 0.000506
253 0.000507
254 0.000510
255 0.000516
256 0.000516
257 0.000515
258 0.000512
259 0.000516
260 0.000520
261 0.000523
262 0.000524
263 0.000525
264 0.000525
265 0.000525
266 0.000522
267 0.000519
268 0.000513
269 0.000512
270 0.000512
271 0.000514
272 0.000513
273 0.000513
274 0.000511
275 0.000513
276 0.000514
277 0.000512
278 0.000512
279 0.000512
280 0.000512
281 0.000511
282 0.000506
283 0.000504
284 0.000496
285 0.000488
286 0.000488
287 0.000491
288 0.000494
289 0.000495
290 0.000493
291 0.000494
292 0.000492
293 0.000487
294 0.000477
295 0.000469
296 0.000465
297 0.000466
298 0.000467
299 0.000468
300 0.000468
301 0.000465
302 0.000460
303 0.000455
304 0.000451
305 0.000451
306 0.000452
307 0.000451
308 0.000448
309 0.000447
310 0.000447
311 0.000444
312 0.000440
313 0.000440
314 0.000440
315 0.000439
316 0.000435
317 0.000432
318 0.000434
319 0.000433
320 0.000430
321 0.000428
322 0.000427
323 0.000426
324 0.000424
325 0.000422
326 0.000419
327 0.000415
328 0.000413
329 0.000414
330 0.000417
331 0.000419
332 0.000416
333 0.000411
334 0.000408
335 0.000405
336 0.000399
337 0.000398
338 0.000396
339 0.000396
340 0.000395
341 0.000398
342 0.000402
343 0.000404
344 0.000404
345 0.000403
346 0.000403
347 0.000405
348 0.000406
349 0.000406
350 0.000410
351 0.000412
352 0.000412
353 0.000412
354 0.000408
355 0.000409
356 0.000415
357 0.000421
358 0.000419
359 0.000417
360 0.000415
361 0.000415
362 0.000414
363 0.000412
364 0.000413
365 0.000413
366 0.000413
367 0.000413
368 0.000414
369 0.000415
370 0.000409
371 0.000406
372 0.000401
373 0.000398
374 0.000394
375 0.000391
376 0.000390
377 0.000390
378 0.000392
379 0.000394
380 0.000396
381 0.000401
382 0.000405
383 0.000408
384 0.000410
385 0.000406
386 0.000403
387 0.000399
388 0.000398
389 0.000394
390 0.000387
391 0.000379
392 0.000374
393 0.000372
394 0.000370
395 0.000362
396 0.000358
397 0.000355
398 0.000350
399 0.000348
400 0.000348
401 0.000344
402 0.000341
403 0.000342
404 0.000341
405 0.000338
406 0.000338
407 0.000338
408 0.000338
409 0.000337
410 0.000333
411 0.000333
412 0.000332
413 0.000329
414 0.000332
415 0.000334
416 0.000338
417 0.000339
418 0.000340
419 0.000345
420 0.000348
421 0.000354
422 0.000356
423 0.000355
424 0.000356
425 0.000355
426 0.000353
427 0.000351
428 0.000349
429 0.000353
430 0.000356
431 0.000360
432 0.000361
433 0.000364
434 0.000370
435 0.000373
436 0.000375
437 0.000374
438 0.000375
439 0.000373
440 0.000371
441 0.000370
442 0.000375
443 0.000380
444 0.000382
445 0.000383
446 0.000382
447 0.000381
448 0.000377
449 0.000369
450 0.000364
451 0.000363
452 0.000365
453 0.000362
454 0.000359
455 0.000358
456 0.000358
457 0.000361
458 0.000364
459 0.000363
460 0.000361
461 0.000357
462 0.000355
463 0.000353
464 0.000351
465 0.000347
466 0.000345
467 0.000346
468 0.000345
469 0.000345
470 0.000346
471 0.000345
472 0.000345
473 0.000343
474 0.000338
475 0.000334
476 0.000330
477 0.000328
478 0.000324
479 0.000317
480 0.000314
481 0.000311
482 0.000310
483 0.000308
484 0.000310
485 0.000313
486 0.000314
487 0.000311
488 0.000311
489 0.000312
490 0.000311
491 0.000310
492 0.000311
493 0.000314
494 0.000314
495 0.000316
496 0.000318
497 0.000321
498 0.000325
499 0.000323
500 0.000319
501 0.000314
502 0.000311
503 0.000306
504 0.000301
505 0.000299
506 0.000301
507 0.000301
508 0.000300
509 0.000299
510 0.000298
511 0.000298
512 0.000296
513 0.000292
514 0.000288
515 0.000289
516 0.000289
517 0.000285
518 0.000283
519 0.000280
520 0.000283
521 0.000289
522 0.000295
523 0.000300
524 0.000304
525 0.000307
526 0.000310
527 0.000311
528 0.000315
529 0.000316
530 0.000316
531 0.000317
532 0.000320
533 0.000320
534 0.000323
535 0.000327
536 0.000332
537 0.000333
538 0.000331
539 0.000329
540 0.000325
541 0.000322
542 0.000320
543 0.000319
544 0.000319
545 0.000318
546 0.000317
547 0.000317
548 0.000316
549 0.000314
550 0.000310
551 0.000309
552 0.000308
553 0.000309
554 0.000306
555 0.000302
556 0.000301
557 0.000300
558 0.000300
559 0.000302
560 0.000301
561 0.000300
562 0.000297
563 0.000294
564 0.000292
565 0.000290
566 0.000288
567 0.000285
568 0.000285
569 0.000288
570 0.000288
571 0.000290
572 0.000288
573 0.000284
574 0.000279
575 0.000276
576 0.000273
577 0.000272
578 0.000275
579 0.000279
580 0.000282
581 0.000281
582 0.000279
583 0.000275
584 0.000272
585 0.000272
586 0.000273
587 0.000276
588 0.000277
589 0.000278
590 0.000280
591 0.000277
592 0.000274
593 0.000273
594 0.000270
595 0.000269
596 0.000269
597 0.000269
598 0.000270
599 0.000270
600 0.000270
601 0.000268
602 0.000264
603 0.000261
604 0.000257
605 0.000254
606 0.000251
607 0.000249
608 0.000247
609 0.000245
610 0.000245
611 0.000248
612 0.000252
613 0.000255
614 0.000258
615 0.000262
616 0.000266
617 0.000267
618 0.000271
619 0.000274
620 0.000278
621 0.000282
622 0.000284
623 0.000286
624 0.000286
625 0.000284
626 0.000284
627 0.000281
628 0.000285
629 0.000287
630 0.000289
631 0.000293
632 0.000294
633 0.000295
634 0.000296
635 0.000296
636 0.000297
637 0.000297
638 0.000296
639 0.000296
640 0.000298
641 0.000300
642 0.000302
643 0.000306
644 0.000306
645 0.000305
646 0.000302
647 0.000300
648 0.000299
649 0.000300
650 0.000296
651 0.000292
652 0.000289
653 0.000285
654 0.000282
655 0.000277
656 0.000272
657 0.000266
658 0.000259
659 0.000256
660 0.000252
661 0.000248
662 0.000244
663 0.000242
664 0.000243
665 0.000242
666 0.000242
667 0.000241
668 0.000238
669 0.000237
670 0.000237
671 0.000238
672 0.000239
673 0.000237
674 0.000237
675 0.000238
676 0.000238
677 0.000237
678 0.000237
679 0.000236
680 0.000239
681 0.000241
682 0.000241
683 0.000244
684 0.000243
685 0.000241
686 0.000240
687 0.000238
688 0.000237
689 0.000236
690 0.000235
691 0.000235
692 0.000235
693 0.000234
694 0.000234
695 0.000235
696 0.000234
697 0.000234
698 0.000237
699 0.000244
700 0.000248
701 0.000247
702 0.000244
703 0.000243
704 0.000243
705 0.000245
706 0.000246
707 0.000246
708 0.000246
709 0.000244
710 0.000241
711 0.000239
712 0.000240
713 0.000240
714 0.000238
715 0.000238
716 0.000233
717 0.000228
718 0.000225
719 0.000222
720 0.000219
721 0.000217
722 0.000214
723 0.000211
724 0.000208
725 0.000203
726 0.000199
727 0.000197
728 0.000193
729 0.000190
730 0.000190
731 0.000192
732 0.000194
733 0.000194
734 0.000195
735 0.000195
736 0.000195
737 0.000196
738 0.000195
739 0.000194
740 0.000192
741 0.000191
742 0.000190
743 0.000190
744 0.000192
745 0.000194
746 0.000193
747 0.000192
748 0.000189
749 0.000188
750 0.000187
751 0.000185
752 0.000185
753 0.000187
754 0.000187
755 0.000186
756 0.000186
757 0.000184
758 0.000182
759 0.000178
760 0.000175
761 0.000170
762 0.000168
763 0.000169
764 0.000171
765 0.000174
766 0.000176
767 0.000176
768 0.000176
769 0.000176
770 0.000178
771 0.000179
772 0.000180
773 0.000180
774 0.000176
775 0.000175
776 0.000174
777 0.000175
778 0.000174
779 0.000172
780 0.000167
781 0.000163
782 0.000160
783 0.000157
784 0.000151
785 0.000147
786 0.000147
787 0.000149
788 0.000150
789 0.000149
790 0.000148
791 0.000145
792 0.000140
793 0.000138
794 0.000137
795 0.000139
796 0.000140
797 0.000140
798 0.000144
799 0.000147
800 0.000151
801 0.000155
802 0.000158
803 0.000161
804 0.000164
805 0.000164
806 0.000163
807 0.000164
808 0.000164
809 0.000164
