# i correlation
1 0.001481
2 0.001437
3 0.001400
4 0.001366
5 0.001338
6 0.001313
7 0.001286
8 0.001263
9 0.001240
10 0.001225
11 0.001212
12 0.001201
13 0.001193
14 0.001185
15 0.001182
16 0.001179
17 0.001180
18 0.001177
19 0.001172
20 0.001170
21 0.001169
22 0.001170
23 0.001172
24 0.001171
25 0.001169
26 0.001165
27 0.001159
28 0.001152
29 0.001140
30 0.001128
31 0.001115
32 0.001102
33 0.001086
34 0.001075
35 0.001069
36 0.001062
37 0.001057
38 0.001050
39 0.001046
40 0.001045
41 0.001042
42 0.001042
43 0.001045
44 0.001047
45 0.001050
46 0.001050
47 0.001048
48 0.001042
49 0.001038
50 0.001031
51 0.001030
52 0.001023
53 0.001016
54 0.001012
55 0.001003
56 0.000997
57 0.000989
58 0.000981
59 0.000974
60 0.000963
61 0.000953
62 0.000942
63 0.000934
64 0.000933
65 0.000927
66 0.000920
67 0.000915
68 0.000916
69 0.000920
70 0.000922
71 0.000916
72 0.000914
73 0.000910
74 0.000907
75 0.000903
76 0.000899
77 0.000896
78 0.000889
79 0.000881
80 0.000875
81 0.000867
82 0.000858
83 0.000847
84 0.000839
85 0.000829
86 0.000824
87 0.000819
88 0.000809
89 0.000801
90 0.000796
91 0.000789
92 0.000785
93 0.000783
94 0.000787
95 0.000789
96 0.000796
97 0.000804
98 0.000813
99 0.000820
100 0.000824
101 0.000825
102 0.000826
103 0.000824
104 0.000822
105 0.000824
106 0.000819
107 0.000812
108 0.000807
109 0.000803
110 0.000795
111 0.000782
112 0.000769
113 0.000760
114 0.000754
115 0.000750
116 0.000745
117 0.000736
118 0.000726
119 0.000721
120 0.000717
121 0.000718
122 0.000722
123 0.000723
124 0.000726
125 0.000728
126 0.000730
127 0.000729
128 0.000731
129 0.000730
130 0.000728
131 0.000726
132 0.000721
133 0.000721
134 0.000717
135 0.000708
136 0.000699
137 0.000692
138 0.000683
139 0.000679
140 0.000677
141 0.000678
142 0.000678
143 0.000675
144 0.000668
145 0.000663
146 0.000658
147 0.000653
148 0.000652
149 0.000650
150 0.000650
151 0.000650
152 0.000652
153 0.000652
154 0.000653
155 0.000653
156 0.000652
157 0.000651
158 0.000651
159 0.000649
160 0.000645
161 0.000643
162 0.000635
163 0.000628
164 0.000624
165 0.000623
166 0.000622
167 0.000621
168 0.000622
169 0.000621
170 0.000617
171 0.000614
172 0.000612
173 0.000611
174 0.000610
175 0.000607
176 0.000598
177 0.000593
178 0.000585
179 0.000579
180 0.000577
181 0.000568
182 0.000566
183 0.000560
184 0.000553
185 0.000552
186 0.000550
187 0.000548
188 0.000547
189 0.000543
190 0.000539
191 0.000535
192 0.000536
193 0.000538
194 0.000539
195 0.000538
196 0.000536
197 0.000537
198 0.000537
199 0.000536
200 0.000533
201 0.000529
202 0.000524
203 0.000519
204 0.000516
205 0.000513
206 0.000510
207 0.000504
208 0.000498
209 0.000494
210 0.000492
211 0.000489
212 0.000487
213 0.000484
214 0.000483
215 0.000484
216 0.000481
217 0.000479
218 0.000476
219 0.000474
220 0.000475
221 0.000474
222 0.000471
223 0.000467
224 0.000464
225 0.000463
226 0.000459
227 0.000456
228 0.000454
229 0.000455
230 0.000457
231 0.000457
232 0.000459
233 0.000464
234 0.000465
235 0.000464
236 0.000466
237 0.000467
238 0.000471
239 0.000476
240 0.000478
241 0.000480
242 0.000479
243 0.000475
244 0.000473
245 0.000467
246 0.000463
247 0.000461
248 0.000458
249 0.000455
250 0.000453
251 0.000448
252 0.000446
253 0.000441
254 0.000436
255 0.000434
256 0.000429
257 0.000425
258 0.000423
259 0.000422
260 0.000420
261 0.000420
262 0.000420
263 0.000418
264 0.000419
265 0.000418
266 0.000416
267 0.000417
268 0.000415
269 0.000415
270 0.000415
271 0.000414
272 0.000411
273 0.000409
274 0.000408
275 0.000409
276 0.000410
277 0.000407
278 0.000401
279 0.000395
280 0.000387
281 0.000380
282 0.000375
283 0.000367
284 0.000362
285 0.000362
286 0.000359
287 0.000360
288 0.000360
289 0.000360
290 0.000362
291 0.000366
292 0.000370
293 0.000372
294 0.000375
295 0.000381
296 0.000384
297 0.000389
298 0.000393
299 0.000395
300 0.000397
301 0.000401
302 0.000406
303 0.000412
304 0.000413
305 0.000415
306 0.000414
307 0.000414
308 0.000411
309 0.000407
310 0.000402
311 0.000402
312 0.000398
313 0.000399
314 0.000398
315 0.000397
316 0.000397
317 0.000393
318 0.000389
319 0.000388
320 0.000386
321 0.000388
322 0.000392
323 0.000393
324 0.000393
325 0.000391
326 0.000389
327 0.000387
328 0.000388
329 0.000387
330 0.000383
331 0.000380
332 0.000374
333 0.000366
334 0.000358
335 0.000351
336 0.000345
337 0.000334
338 0.000329
339 0.000328
340 0.000326
341 0.000328
342 0.000332
343 0.000339
344 0.000343
345 0.000347
346 0.000356
347 0.000363
348 0.000370
349 0.000379
350 0.000380
351 0.000379
352 0.000375
353 0.000368
354 0.000367
355 0.000367
356 0.000367
357 0.000367
358 0.000368
359 0.000369
360 0.000367
361 0.000363
362 0.000361
363 0.000356
364 0.000350
365 0.000343
366 0.000337
367 0.000332
368 0.000332
369 0.000332
370 0.000333
371 0.000339
372 0.000345
373 0.000350
374 0.000355
375 0.000364
376 0.000364
377 0.000361
378 0.000356
379 0.000350
380 0.000339
381 0.000329
382 0.000318
383 0.000312
384 0.000307
385 0.000304
386 0.000302
387 0.000298
388 0.000292
389 0.000286
390 0.000283
391 0.000284
392 0.000289
393 0.000291
394 0.000294
395 0.000296
396 0.000296
397 0.000297
398 0.000301
399 0.000302
400 0.000306
401 0.000310
402 0.000315
403 0.000320
404 0.000325
405 0.000328
406 0.000330
407 0.000331
408 0.000331
409 0.000328
410 0.000326
411 0.000321
412 0.000316
413 0.000315
414 0.000310
415 0.000306
416 0.000306
417 0.000302
418 0.000300
419 0.000301
420 0.000300
421 0.000300
422 0.000300
423 0.000296
424 0.000292
425 0.000288
426 0.000288
427 0.000290
428 0.000292
429 0.000296
430 0.000302
431 0.000303
432 0.000307
433 0.000307
434 0.000305
435 0.000303
436 0.000304
437 0.000303
438 0.000302
439 0.000299
440 0.000294
441 0.000289
442 0.000283
443 0.000280
444 0.000281
445 0.000281
446 0.000282
447 0.000284
448 0.000287
449 0.000294
450 0.000299
451 0.000303
452 0.000306
453 0.000307
454 0.000304
455 0.000304
456 0.000303
457 0.000302
458 0.000300
459 0.000296
460 0.000291
461 0.000287
462 0.000283
463 0.000279
464 0.000281
465 0.000281
466 0.000278
467 0.000277
468 0.000275
469 0.000276
470 0.000279
471 0.000280
472 0.000283
473 0.000285
474 0.000289
475 0.000290
476 0.000291
477 0.000292
478 0.000292
479 0.000290
480 0.000291
481 0.000291
482 0.000289
483 0.000286
484 0.000284
485 0.000282
486 0.000279
487 0.000275
488 0.000274
489 0.000271
490 0.000269
491 0.000266
492 0.000267
493 0.000266
494 0.000264
495 0.000264
496 0.000265
497 0.000265
498 0.000264
499 0.000263
500 0.000267
501 0.000270
502 0.000275
503 0.000277
504 0.000279
505 0.000279
506 0.000278
507 0.000279
508 0.000281
509 0.000281
510 0.000281
511 0.000277
512 0.000273
513 0.000271
514 0.000269
515 0.000268
516 0.000271
517 0.000276
518 0.000281
519 0.000282
520 0.000281
521 0.000281
522 0.000276
523 0.000271
524 0.000267
525 0.000264
526 0.000265
527 0.000267
528 0.000270
529 0.000268
530 0.000266
531 0.000267
532 0.000265
533 0.000267
534 0.000269
535 0.000270
536 0.000272
537 0.000274
538 0.000276
539 0.000278
540 0.000279
541 0.000280
542 0.000280
543 0.000282
544 0.000286
545 0.000289
546 0.000290
547 0.000289
548 0.000289
549 0.000291
550 0.000292
551 0.000294
552 0.000294
553 0.000294
554 0.000292
555 0.000292
556 0.000291
557 0.000288
558 0.000288
559 0.000284
560 0.000280
561 0.000283
562 0.000282
563 0.000281
564 0.000278
565 0.000277
566 0.000279
567 0.000280
568 0.000281
569 0.000282
570 0.000282
571 0.000281
572 0.000283
573 0.000283
574 0.000281
575 0.000279
576 0.000277
577 0.000279
578 0.000282
579 0.000282
580 0.000281
581 0.000277
582 0.000274
583 0.000272
584 0.000268
585 0.000262
586 0.000258
587 0.000254
588 0.000251
589 0.000247
590 0.000246
591 0.000246
592 0.000246
593 0.000246
594 0.000243
595 0.000243
596 0.000244
597 0.000244
598 0.000247
599 0.000246
600 0.000249
601 0.000255
602 0.000258
603 0.000260
604 0.000264
605 0.000266
606 0.000265
607 0.000264
608 0.000264
609 0.000263
610 0.000260
611 0.000257
612 0.000253
613 0.000249
614 0.000249
615 0.000251
616 0.000251
617 0.000251
618 0.000255
619 0.000260
620 0.000262
621 0.000263
622 0.000263
623 0.000266
624 0.000270
625 0.000273
626 0.000280
627 0.000282
628 0.000279
629 0.000274
630 0.000269
631 0.000269
632 0.000268
633 0.000264
634 0.000258
635 0.000254
636 0.000251
637 0.000250
638 0.000251
639 0.000249
640 0.000246
641 0.000245
642 0.000248
643 0.000252
644 0.000253
645 0.000255
646 0.000257
647 0.000264
648 0.000269
649 0.000274
650 0.000280
651 0.000285
652 0.000290
653 0.000292
654 0.000291
655 0.000290
656 0.000285
657 0.000279
658 0.000267
659 0.000258
660 0.000255
661 0.000250
662 0.000245
663 0.000241
664 0.000235
665 0.000232
666 0.000230
667 0.000228
668 0.000227
669 0.000228
670 0.000233
671 0.000238
672 0.000243
673 0.000246
674 0.000246
675 0.000244
676 0.000243
677 0.000248
678 0.000251
679 0.000252
680 0.000253
681 0.000250
682 0.000247
683 0.000242
684 0.000237
685 0.000229
686 0.000223
687 0.000217
688 0.000210
689 0.000204
690 0.000198
691 0.000193
692 0.000190
693 0.000185
694 0.000180
695 0.000177
696 0.000171
697 0.000167
698 0.000162
699 0.000160
700 0.000159
701 0.000161
702 0.000163
703 0.000166
704 0.000167
705 0.000168
706 0.000169
707 0.000171
708 0.000174
709 0.000176
710 0.000178
711 0.000177
712 0.000172
713 0.000167
714 0.000161
715 0.000152
716 0.000148
717 0.000146
718 0.000144
719 0.000144
720 0.000144
721 0.000144
722 0.000143
723 0.000141
724 0.000141
725 0.000143
726 0.000144
727 0.000142
728 0.000139
729 0.000139
730 0.000139
731 0.000138
732 0.000135
733 0.000133
734 0.000133
735 0.000132
736 0.000129
737 0.000127
738 0.000123
739 0.000114
740 0.000108
741 0.000106
742 0.000104
743 0.000103
744 0.000099
745 0.000098
746 0.000099
747 0.000102
748 0.000108
749 0.000113
750 0.000118
751 0.000123
752 0.000129
753 0.000131
754 0.000132
755 0.000133
756 0.000137
757 0.000140
758 0.000142
759 0.000143
760 0.000144
761 0.000143
762 0.000142
763 0.000140
764 0.000137
765 0.000135
766 0.000137
767 0.000137
768 0.000138
769 0.000139
770 0.000140
771 0.000141
772 0.000142
773 0.000144
774 0.000142
775 0.000144
776 0.000149
777 0.000154
778 0.000161
779 0.000167
780 0.000173
781 0.000176
782 0.000177
783 0.000177
784 0.000175
785 0.000174
786 0.000172
787 0.000171
788 0.000169
789 0.000165
790 0.000160
791 0.000157
792 0.000155
793 0.000153
794 0.000153
795 0.000151
796 0.000148
797 0.000145
798 0.000144
799 0.000144
800 0.000141
801 0.000140
802 0.000139
803 0.000140
804 0.000141
805 0.000142
806 0.000145
807 0.000148
808 0.000151
809 0.000151
