# i correlation
1 0.001339
2 0.001303
3 0.001271
4 0.001242
5 0.001222
6 0.001204
7 0.001187
8 0.001172
9 0.001164
10 0.001158
11 0.001154
12 0.001148
13 0.001138
14 0.001133
15 0.001126
16 0.001121
17 0.001117
18 0.001112
19 0.001105
20 0.001094
21 0.001086
22 0.001082
23 0.001075
24 0.001069
25 0.001062
26 0.001051
27 0.001039
28 0.001030
29 0.001022
30 0.001014
31 0.001010
32 0.001008
33 0.001009
34 0.001009
35 0.001006
36 0.000996
37 0.000987
38 0.000979
39 0.000967
40 0.000963
41 0.000956
42 0.000948
43 0.000941
44 0.000938
45 0.000932
46 0.000927
47 0.000925
48 0.000920
49 0.000918
50 0.000918
51 0.000921
52 0.000921
53 0.000919
54 0.000916
55 0.000911
56 0.000904
57 0.000899
58 0.000889
59 0.000881
60 0.000872
61 0.000866
62 0.000861
63 0.000859
64 0.000860
65 0.000858
66 0.000858
67 0.000853
68 0.000847
69 0.000841
70 0.000835
71 0.000828
72 0.000819
73 0.000813
74 0.000811
75 0.000811
76 0.000810
77 0.000808
78 0.000802
79 0.000799
80 0.000799
81 0.000800
82 0.000799
83 0.000798
84 0.000797
85 0.000795
86 0.000791
87 0.000790
88 0.000788
89 0.000789
90 0.000793
91 0.000800
92 0.000805
93 0.000805
94 0.000807
95 0.000807
96 0.000806
97 0.000805
98 0.000800
99 0.000794
100 0.000787
101 0.000784
102 0.000782
103 0.000778
104 0.000774
105 0.000773
106 0.000772
107 0.000771
108 0.000771
109 0.000774
110 0.000774
111 0.000776
112 0.000776
113 0.000776
114 0.000779
115 0.000780
116 0.000782
117 0.000782
118 0.000780
119 0.000775
120 0.000774
121 0.000772
122 0.000766
123 0.000760
124 0.000754
125 0.000750
126 0.000748
127 0.000747
128 0.000743
129 0.000742
130 0.000741
131 0.000739
132 0.000739
133 0.000734
134 0.000734
135 0.000729
136 0.000728
137 0.000724
138 0.000726
139 0.000726
140 0.000728
141 0.000730
142 0.000729
143 0.000726
144 0.000722
145 0.000726
146 0.000727
147 0.000731
148 0.000737
149 0.000744
150 0.000745
151 0.000750
152 0.000753
153 0.000750
154 0.000744
155 0.000738
156 0.000736
157 0.000734
158 0.000730
159 0.000727
160 0.000721
161 0.000716
162 0.000711
163 0.000709
164 0.000711
165 0.000708
166 0.000703
167 0.000700
168 0.000694
169 0.000690
170 0.000689
171 0.000690
172 0.000689
173 0.000688
174 0.000688
175 0.000687
176 0.000688
177 0.000684
178 0.000683
179 0.000676
180 0.000669
181 0.000666
182 0.000662
183 0.000661
184 0.000661
185 0.000662
186 0.000664
187 0.000663
188 0.000658
189 0.000657
190 0.000654
191 0.000649
192 0.000642
193 0.000635
194 0.000631
195 0.000630
196 0.000631
197 0.000629
198 0.000625
199 0.000620
200 0.000619
201 0.000615
202 0.000612
203 0.000612
204 0.000616
205 0.000621
206 0.000626
207 0.000626
208 0.000626
209 0.000623
210 0.000621
211 0.000621
212 0.000618
213 0.000613
214 0.000609
215 0.000605
216 0.000600
217 0.000592
218 0.000588
219 0.000582
220 0.000577
221 0.000574
222 0.000575
223 0.000580
224 0.000583
225 0.000586
226 0.000587
227 0.000588
228 0.000591
229 0.000597
230 0.000601
231 0.000603
232 0.000605
233 0.000604
234 0.000600
235 0.000596
236 0.000591
237 0.000588
238 0.000588
239 0.000588
240 0.000589
241 0.000589
242 0.000588
243 0.000588
244 0.000588
245 0.000587
246 0.000587
247 0.000589
248 0.000591
249 0.000590
250 0.000587
251 0.000581
252 0.000576
253 0.000570
254 0.000564
255 0.000560
256 0.000555
257 0.000551
258 0.000550
259 0.000549
260 0.000545
261 0.000542
262 0.000541
263 0.000540
264 0.000537
265 0.000536
266 0.000537
267 0.000539
268 0.000540
269 0.000542
270 0.000543
271 0.000541
272 0.000538
273 0.000537
274 0.000531
275 0.000523
276 0.000518
277 0.000515
278 0.000513
279 0.000510
280 0.000509
281 0.000514
282 0.000515
283 0.000515
284 0.000510
285 0.000501
286 0.000493
287 0.000485
288 0.000482
289 0.000481
290 0.000480
291 0.000480
292 0.000480
293 0.000484
294 0.000485
295 0.000488
296 0.000491
297 0.000492
298 0.000493
299 0.000496
300 0.000499
301 0.000499
302 0.000498
303 0.000498
304 0.000493
305 0.000493
306 0.000489
307 0.000486
308 0.000481
309 0.000473
310 0.000467
311 0.000462
312 0.000460
313 0.000456
314 0.000453
315 0.000451
316 0.000453
317 0.000455
318 0.000457
319 0.000458
320 0.000456
321 0.000456
322 0.000458
323 0.000457
324 0.000458
325 0.000455
326 0.000451
327 0.000446
328 0.000444
329 0.000443
330 0.000442
331 0.000439
332 0.000435
333 0.000433
334 0.000432
335 0.000430
336 0.000429
337 0.000426
338 0.000419
339 0.000411
340 0.000408
341 0.000399
342 0.000395
343 0.000392
344 0.000388
345 0.000386
346 0.000386
347 0.000386
348 0.000387
349 0.000384
350 0.000382
351 0.000380
352 0.000379
353 0.000380
354 0.000383
355 0.000383
356 0.000382
357 0.000383
358 0.000380
359 0.000380
360 0.000378
361 0.000377
362 0.000376
363 0.000375
364 0.000380
365 0.000384
366 0.000383
367 0.000384
368 0.000381
369 0.000380
370 0.000382
371 0.000384
372 0.000380
373 0.000378
374 0.000377
375 0.000377
376 0.000377
377 0.000377
378 0.000375
379 0.000373
380 0.000374
381 0.000375
382 0.000377
383 0.000380
384 0.000380
385 0.000381
386 0.000383
387 0.000388
388 0.000392
389 0.000393
390 0.000395
391 0.000392
392 0.000388
393 0.000384
394 0.000379
395 0.000375
396 0.000370
397 0.000368
398 0.000368
399 0.000370
400 0.000370
401 0.000370
402 0.000371
403 0.000368
404 0.000368
405 0.000364
406 0.000361
407 0.000355
408 0.000352
409 0.000347
410 0.000341
411 0.000338
412 0.000333
413 0.000330
414 0.000329
415 0.000327
416 0.000325
417 0.000322
418 0.000321
419 0.000322
420 0.000322
421 0.000325
422 0.000330
423 0.000333
424 0.000332
425 0.000331
426 0.000329
427 0.000324
428 0.000320
429 0.000314
430 0.000310
431 0.000304
432 0.000298
433 0.000294
434 0.000296
435 0.000296
436 0.000294
437 0.000292
438 0.000290
439 0.000288
440 0.000285
441 0.000283
442 0.000281
443 0.000277
444 0.000277
445 0.000278
446 0.000281
447 0.000280
448 0.000282
449 0.000282
450 0.000280
451 0.000278
452 0.000274
453 0.000274
454 0.000275
455 0.000276
456 0.000279
457 0.000283
458 0.000289
459 0.000294
460 0.000297
461 0.000298
462 0.000297
463 0.000295
464 0.000294
465 0.000288
466 0.000284
467 0.000283
468 0.000283
469 0.000283
470 0.000283
471 0.000281
472 0.000282
473 0.000282
474 0.000288
475 0.000292
476 0.000296
477 0.000299
478 0.000304
479 0.000310
480 0.000314
481 0.000319
482 0.000324
483 0.000326
484 0.000326
485 0.000326
486 0.000326
487 0.000325
488 0.000324
489 0.000324
490 0.000318
491 0.000313
492 0.000308
493 0.000304
494 0.000302
495 0.000299
496 0.000297
497 0.000295
498 0.000293
499 0.000293
500 0.000294
501 0.000296
502 0.000297
503 0.000295
504 0.000295
505 0.000294
506 0.000296
507 0.000299
508 0.000301
509 0.000301
510 0.000302
511 0.000303
512 0.000305
513 0.000307
514 0.000305
515 0.000304
516 0.000305
517 0.000300
518 0.000298
519 0.000296
520 0.000293
521 0.000293
522 0.000291
523 0.000291
524 0.000292
525 0.000293
526 0.000297
527 0.000298
528 0.000300
529 0.000300
530 0.000298
531 0.000297
532 0.000294
533 0.000293
534 0.000292
535 0.000290
536 0.000289
537 0.000286
538 0.000284
539 0.000283
540 0.000287
541 0.000285
542 0.000285
543 0.000285
544 0.000285
545 0.000282
546 0.000275
547 0.000267
548 0.000262
549 0.000257
550 0.000252
551 0.000254
552 0.000254
553 0.000253
554 0.000254
555 0.000254
556 0.000254
557 0.000251
558 0.000247
559 0.000241
560 0.000237
561 0.000235
562 0.000233
563 0.000232
564 0.000229
565 0.000227
566 0.000225
567 0.000221
568 0.000216
569 0.000212
570 0.000207
571 0.000207
572 0.000206
573 0.000206
574 0.000205
575 0.000207
576 0.000209
577 0.000212
578 0.000217
579 0.000217
580 0.000216
581 0.000213
582 0.000207
583 0.000202
584 0.000194
585 0.000189
586 0.000184
587 0.000181
588 0.000178
589 0.000179
590 0.000178
591 0.000176
592 0.000175
593 0.000173
594 0.000170
595 0.000173
596 0.000173
597 0.000174
598 0.000175
599 0.000173
600 0.000172
601 0.000171
602 0.000169
603 0.000169
604 0.000166
605 0.000163
606 0.000162
607 0.000158
608 0.000155
609 0.000154
610 0.000154
611 0.000153
612 0.000154
613 0.000155
614 0.000152
615 0.000151
616 0.000150
617 0.000149
618 0.000149
619 0.000148
620 0.000151
621 0.000152
622 0.000154
623 0.000157
624 0.000159
625 0.000160
626 0.000158
627 0.000157
628 0.000156
629 0.000157
630 0.000159
631 0.000161
632 0.000164
633 0.000165
634 0.000166
635 0.000169
636 0.000172
637 0.000175
638 0.000177
639 0.000177
640 0.000176
641 0.000173
642 0.000173
643 0.000171
644 0.000168
645 0.000168
646 0.000168
647 0.000170
648 0.000173
649 0.000172
650 0.000168
651 0.000163
652 0.000159
653 0.000159
654 0.000159
655 0.000158
656 0.000157
657 0.000155
658 0.000155
659 0.000154
660 0.000153
661 0.000150
662 0.000144
663 0.000139
664 0.000137
665 0.000134
666 0.000133
667 0.000131
668 0.000127
669 0.000126
670 0.000124
671 0.000124
672 0.000125
673 0.000129
674 0.000130
675 0.000129
676 0.000126
677 0.000124
678 0.000120
679 0.000117
680 0.000114
681 0.000110
682 0.000109
683 0.000111
684 0.000111
685 0.000112
686 0.000113
687 0.000115
688 0.000116
689 0.000119
690 0.000120
691 0.000121
692 0.000122
693 0.000123
694 0.000120
695 0.000116
696 0.000111
697 0.000109
698 0.000106
699 0.000105
700 0.000105
701 0.000104
702 0.000101
703 0.000099
704 0.000099
705 0.000098
706 0.000096
707 0.000099
708 0.000099
709 0.000099
710 0.000099
711 0.000101
712 0.000104
713 0.000105
714 0.000105
715 0.000106
716 0.000106
717 0.000106
718 0.000107
719 0.000107
720 0.000106
721 0.000106
722 0.000107
723 0.000109
724 0.000112
725 0.000113
726 0.000114
727 0.000116
728 0.000117
729 0.000118
730 0.000120
731 0.000119
732 0.000116
733 0.000113
734 0.000111
735 0.000107
736 0.000104
737 0.000102
738 0.000101
739 0.000101
740 0.000103
741 0.000106
742 0.000105
743 0.000104
744 0.000103
745 0.000100
746 0.000096
747 0.000093
748 0.000090
749 0.000088
750 0.000087
751 0.000087
752 0.000087
753 0.000088
754 0.000089
755 0.000090
756 0.000092
757 0.000093
758 0.000095
759 0.000097
760 0.000098
761 0.000096
762 0.000095
763 0.000093
764 0.000092
765 0.000091
766 0.000087
767 0.000085
768 0.000084
769 0.000083
770 0.000082
771 0.000079
772 0.000076
773 0.000074
774 0.000073
775 0.000073
776 0.000071
777 0.000068
778 0.000066
779 0.000066
780 0.000065
781 0.000067
782 0.000068
783 0.000069
784 0.000071
785 0.000072
786 0.000072
787 0.000071
788 0.000070
789 0.000068
790 0.000066
791 0.000063
792 0.000060
793 0.000056
794 0.000055
795 0.000053
796 0.000050
797 0.000048
798 0.000045
799 0.000040
800 0.000037
801 0.000035
802 0.000031
803 0.000030
804 0.000027
805 0.000026
806 0.000026
807 0.000028
808 0.000028
809 0.000030
