# i correlation
1 0.001433
2 0.001393
3 0.001361
4 0.001336
5 0.001314
6 0.001295
7 0.001279
8 0.001265
9 0.001251
10 0.001239
11 0.001230
12 0.001219
13 0.001203
14 0.001189
15 0.001177
16 0.001162
17 0.001153
18 0.001145
19 0.001142
20 0.001136
21 0.001136
22 0.001138
23 0.001134
24 0.001128
25 0.001121
26 0.001116
27 0.001113
28 0.001109
29 0.001105
30 0.001103
31 0.001099
32 0.001093
33 0.001092
34 0.001090
35 0.001083
36 0.001074
37 0.001066
38 0.001058
39 0.001050
40 0.001044
41 0.001040
42 0.001034
43 0.001029
44 0.001024
45 0.001015
46 0.001007
47 0.000998
48 0.000991
49 0.000988
50 0.000984
51 0.000977
52 0.000969
53 0.000963
54 0.000957
55 0.000952
56 0.000947
57 0.000943
58 0.000938
59 0.000937
60 0.000938
61 0.000939
62 0.000939
63 0.000941
64 0.000941
65 0.000940
66 0.000934
67 0.000925
68 0.000920
69 0.000911
70 0.000903
71 0.000899
72 0.000898
73 0.000898
74 0.000895
75 0.000890
76 0.000881
77 0.000870
78 0.000857
79 0.000848
80 0.000839
81 0.000832
82 0.000825
83 0.000823
84 0.000823
85 0.000824
86 0.000825
87 0.000825
88 0.000823
89 0.000818
90 0.000819
91 0.000813
92 0.000810
93 0.000806
94 0.000802
95 0.000796
96 0.000791
97 0.000789
98 0.000788
99 0.000787
100 0.000787
101 0.000788
102 0.000787
103 0.000789
104 0.000791
105 0.000790
106 0.000786
107 0.000785
108 0.000783
109 0.000780
110 0.000774
111 0.000770
112 0.000769
113 0.000768
114 0.000769
115 0.000772
116 0.000771
117 0.000764
118 0.000757
119 0.000752
120 0.000743
121 0.000734
122 0.000726
123 0.000721
124 0.000715
125 0.000712
126 0.000709
127 0.000707
128 0.000706
129 0.000704
130 0.000704
131 0.000702
132 0.000697
133 0.000691
134 0.000688
135 0.000686
136 0.000684
137 0.000683
138 0.000683
139 0.000677
140 0.000669
141 0.000659
142 0.000653
143 0.000649
144 0.000646
145 0.000646
146 0.000644
147 0.000644
148 0.000648
149 0.000654
150 0.000653
151 0.000653
152 0.000652
153 0.000648
154 0.000640
155 0.000634
156 0.000631
157 0.000629
158 0.000626
159 0.000619
160 0.000617
161 0.000615
162 0.000611
163 0.000608
164 0.000607
165 0.000602
166 0.000597
167 0.000592
168 0.000588
169 0.000583
170 0.000580
171 0.000578
172 0.000577
173 0.000576
174 0.000571
175 0.000569
176 0.000568
177 0.000571
178 0.000572
179 0.000573
180 0.000573
181 0.000569
182 0.000562
183 0.000558
184 0.000554
185 0.000547
186 0.000542
187 0.000539
188 0.000541
189 0.000540
190 0.000537
191 0.000537
192 0.000538
193 0.000538
194 0.000535
195 0.000531
196 0.000526
197 0.000520
198 0.000519
199 0.000518
200 0.000521
201 0.000523
202 0.000524
203 0.000523
204 0.000522
205 0.000516
206 0.000515
207 0.000512
208 0.000510
209 0.000508
210 0.000510
211 0.000510
212 0.000511
213 0.000518
214 0.000521
215 0.000525
216 0.000528
217 0.000531
218 0.000532
219 0.000532
220 0.000534
221 0.000544
222 0.000550
223 0.000552
224 0.000554
225 0.000555
226 0.000554
227 0.000551
228 0.000550
229 0.000546
230 0.000547
231 0.000545
232 0.000546
233 0.000544
234 0.000542
235 0.000539
236 0.000536
237 0.000534
238 0.000530
239 0.000527
240 0.000524
241 0.000522
242 0.000517
243 0.000517
244 0.000515
245 0.000513
246 0.000509
247 0.000508
248 0.000505
249 0.000504
250 0.000501
251 0.000500
252 0.000503
253 0.000502
254 0.000502
255 0.000499
256 0.000499
257 0.000498
258 0.000495
259 0.000490
260 0.000484
261 0.000485
262 0.000482
263 0.000485
264 0.000486
265 0.000486
266 0.000487
267 0.000492
268 0.000495
269 0.000489
270 0.000484
271 0.000482
272 0.000480
273 0.000478
274 0.000478
275 0.000479
276 0.000481
277 0.000478
278 0.000475
279 0.000473
280 0.000473
281 0.000477
282 0.000483
283 0.000490
284 0.000489
285 0.000488
286 0.000486
287 0.000484
288 0.000480
289 0.000476
290 0.000473
291 0.000470
292 0.000470
293 0.000470
294 0.000470
295 0.000471
296 0.000473
297 0.000472
298 0.000468
299 0.000461
300 0.000455
301 0.000450
302 0.000446
303 0.000444
304 0.000444
305 0.000443
306 0.000447
307 0.000455
308 0.000462
309 0.000468
310 0.000470
311 0.000472
312 0.000470
313 0.000470
314 0.000469
315 0.000470
316 0.000470
317 0.000472
318 0.000475
319 0.000475
320 0.000473
321 0.000472
322 0.000471
323 0.000469
324 0.000468
325 0.000466
326 0.000466
327 0.000464
328 0.000465
329 0.000467
330 0.000468
331 0.000470
332 0.000471
333 0.000472
334 0.000470
335 0.000468
336 0.000466
337 0.000466
338 0.000463
339 0.000462
340 0.000466
341 0.000472
342 0.000474
343 0.000476
344 0.000479
345 0.000480
346 0.000481
347 0.000480
348 0.000481
349 0.000482
350 0.000482
351 0.000485
352 0.000487
353 0.000490
354 0.000489
355 0.000490
356 0.000494
357 0.000497
358 0.000497
359 0.000496
360 0.000494
361 0.000491
362 0.000486
363 0.000481
364 0.000476
365 0.000474
366 0.000476
367 0.000478
368 0.000483
369 0.000485
370 0.000489
371 0.000490
372 0.000492
373 0.000491
374 0.000491
375 0.000488
376 0.000486
377 0.000484
378 0.000484
379 0.000484
380 0.000483
381 0.000485
382 0.000487
383 0.000488
384 0.000486
385 0.000483
386 0.000482
387 0.000480
388 0.000477
389 0.000475
390 0.000475
391 0.000478
392 0.000479
393 0.000476
394 0.000474
395 0.000473
396 0.000473
397 0.000475
398 0.000477
399 0.000478
400 0.000478
401 0.000480
402 0.000482
403 0.000481
404 0.000479
405 0.000479
406 0.000477
407 0.000474
408 0.000474
409 0.000475
410 0.000475
411 0.000476
412 0.000477
413 0.000478
414 0.000478
415 0.000475
416 0.000472
417 0.000467
418 0.000461
419 0.000458
420 0.000456
421 0.000455
422 0.000452
423 0.000446
424 0.000441
425 0.000438
426 0.000434
427 0.000433
428 0.000429
429 0.000425
430 0.000420
431 0.000418
432 0.000420
433 0.000420
434 0.000421
435 0.000422
436 0.000420
437 0.000418
438 0.000413
439 0.000408
440 0.000405
441 0.000403
442 0.000401
443 0.000403
444 0.000406
445 0.000408
446 0.000410
447 0.000411
448 0.000409
449 0.000407
450 0.000399
451 0.000390
452 0.000379
453 0.000372
454 0.000369
455 0.000369
456 0.000370
457 0.000369
458 0.000368
459 0.000368
460 0.000369
461 0.000367
462 0.000367
463 0.000364
464 0.000367
465 0.000371
466 0.000374
467 0.000377
468 0.000380
469 0.000382
470 0.000383
471 0.000384
472 0.000384
473 0.000384
474 0.000381
475 0.000380
476 0.000382
477 0.000385
478 0.000385
479 0.000382
480 0.000378
481 0.000376
482 0.000374
483 0.000370
484 0.000367
485 0.000364
486 0.000360
487 0.000358
488 0.000357
489 0.000360
490 0.000359
491 0.000353
492 0.000351
493 0.000352
494 0.000350
495 0.000350
496 0.000349
497 0.000346
498 0.000346
499 0.000345
500 0.000344
501 0.000341
502 0.000340
503 0.000338
504 0.000339
505 0.000337
506 0.000338
507 0.000337
508 0.000338
509 0.000339
510 0.000343
511 0.000346
512 0.000345
513 0.000342
514 0.000338
515 0.000336
516 0.000333
517 0.000333
518 0.000331
519 0.000330
520 0.000332
521 0.000334
522 0.000334
523 0.000334
524 0.000333
525 0.000329
526 0.000322
527 0.000316
528 0.000312
529 0.000312
530 0.000312
531 0.000311
532 0.000311
533 0.000310
534 0.000308
535 0.000306
536 0.000304
537 0.000299
538 0.000294
539 0.000292
540 0.000288
541 0.000287
542 0.000283
543 0.000280
544 0.000279
545 0.000276
546 0.000274
547 0.000271
548 0.000267
549 0.000265
550 0.000262
551 0.000259
552 0.000253
553 0.000247
554 0.000246
555 0.000243
556 0.000238
557 0.000235
558 0.000236
559 0.000237
560 0.000237
561 0.000236
562 0.000236
563 0.000236
564 0.000234
565 0.000233
566 0.000234
567 0.000235
568 0.000233
569 0.000232
570 0.000234
571 0.000235
572 0.000236
573 0.000236
574 0.000236
575 0.000235
576 0.000235
577 0.000233
578 0.000231
579 0.000229
580 0.000226
581 0.000225
582 0.000229
583 0.000229
584 0.000231
585 0.000233
586 0.000234
587 0.000233
588 0.000233
589 0.000234
590 0.000236
591 0.000236
592 0.000240
593 0.000245
594 0.000251
595 0.000255
596 0.000260
597 0.000265
598 0.000271
599 0.000272
600 0.000275
601 0.000275
602 0.000274
603 0.000273
604 0.000275
605 0.000277
606 0.000276
607 0.000277
608 0.000276
609 0.000275
610 0.000270
611 0.000265
612 0.000263
613 0.000262
614 0.000260
615 0.000260
616 0.000261
617 0.000260
618 0.000259
619 0.000257
620 0.000257
621 0.000257
622 0.000259
623 0.000259
624 0.000264
625 0.000268
626 0.000274
627 0.000277
628 0.000278
629 0.000281
630 0.000282
631 0.000283
632 0.000284
633 0.000284
634 0.000282
635 0.000285
636 0.000285
637 0.000286
638 0.000287
639 0.000289
640 0.000288
641 0.000287
642 0.000288
643 0.000287
644 0.000285
645 0.000280
646 0.000273
647 0.000268
648 0.000266
649 0.000265
650 0.000266
651 0.000263
652 0.000258
653 0.000254
654 0.000248
655 0.000244
656 0.000238
657 0.000234
658 0.000230
659 0.000230
660 0.000230
661 0.000228
662 0.000228
663 0.000227
664 0.000226
665 0.000227
666 0.000229
667 0.000230
668 0.000228
669 0.000227
670 0.000226
671 0.000224
672 0.000223
673 0.000222
674 0.000223
675 0.000222
676 0.000222
677 0.000221
678 0.000219
679 0.000218
680 0.000215
681 0.000217
682 0.000216
683 0.000212
684 0.000210
685 0.000208
686 0.000206
687 0.000203
688 0.000201
689 0.000202
690 0.000203
691 0.000201
692 0.000200
693 0.000200
694 0.000202
695 0.000203
696 0.000205
697 0.000205
698 0.000204
699 0.000202
700 0.000202
701 0.000201
702 0.000202
703 0.000204
704 0.000205
705 0.000205
706 0.000205
707 0.000205
708 0.000206
709 0.000206
710 0.000205
711 0.000206
712 0.000208
713 0.000207
714 0.000208
715 0.000206
716 0.000205
717 0.000202
718 0.000198
719 0.000196
720 0.000192
721 0.000186
722 0.000182
723 0.000180
724 0.000177
725 0.000174
726 0.000172
727 0.000170
728 0.000169
729 0.000166
730 0.000166
731 0.000165
732 0.000164
733 0.000163
734 0.000164
735 0.000164
736 0.000165
737 0.000166
738 0.000169
739 0.000173
740 0.000178
741 0.000181
742 0.000184
743 0.000186
744 0.000186
745 0.000188
746 0.000192
747 0.000196
748 0.000196
749 0.000196
750 0.000197
751 0.000198
752 0.000199
753 0.000200
754 0.000200
755 0.000199
756 0.000200
757 0.000202
758 0.000203
759 0.000202
760 0.000202
761 0.000201
762 0.000199
763 0.000200
764 0.000199
765 0.000199
766 0.000196
767 0.000193
768 0.000189
769 0.000186
770 0.000183
771 0.000181
772 0.000177
773 0.000173
774 0.000170
775 0.000169
776 0.000169
777 0.000169
778 0.000168
779 0.000169
780 0.000169
781 0.000169
782 0.000168
783 0.000166
784 0.000163
785 0.000159
786 0.000156
787 0.000153
788 0.000153
789 0.000151
790 0.000149
791 0.000147
792 0.000145
793 0.000144
794 0.000142
795 0.000139
796 0.000136
797 0.000135
798 0.000134
799 0.000134
800 0.000134
801 0.000133
802 0.000131
803 0.000130
804 0.000128
805 0.000127
806 0.000126
807 0.000125
808 0.000123
809 0.000120
