# i correlation
1 0.001652
2 0.001608
3 0.001576
4 0.001549
5 0.001520
6 0.001495
7 0.001476
8 0.001461
9 0.001447
10 0.001432
11 0.001415
12 0.001402
13 0.001391
14 0.001381
15 0.001371
16 0.001367
17 0.001360
18 0.001357
19 0.001347
20 0.001339
21 0.001332
22 0.001325
23 0.001317
24 0.001311
25 0.001303
26 0.001295
27 0.001283
28 0.001278
29 0.001276
30 0.001274
31 0.001273
32 0.001270
33 0.001266
34 0.001257
35 0.001252
36 0.001246
37 0.001236
38 0.001222
39 0.001211
40 0.001202
41 0.001193
42 0.001188
43 0.001184
44 0.001179
45 0.001176
46 0.001176
47 0.001171
48 0.001161
49 0.001151
50 0.001148
51 0.001146
52 0.001141
53 0.001135
54 0.001131
55 0.001127
56 0.001121
57 0.001113
58 0.001101
59 0.001086
60 0.001073
61 0.001060
62 0.001048
63 0.001033
64 0.001028
65 0.001027
66 0.001024
67 0.001015
68 0.001007
69 0.001002
70 0.000999
71 0.000998
72 0.000994
73 0.000992
74 0.000992
75 0.000994
76 0.000990
77 0.000989
78 0.000990
79 0.000988
80 0.000982
81 0.000975
82 0.000972
83 0.000971
84 0.000962
85 0.000954
86 0.000947
87 0.000944
88 0.000943
89 0.000942
90 0.000937
91 0.000936
92 0.000935
93 0.000934
94 0.000932
95 0.000931
96 0.000929
97 0.000928
98 0.000923
99 0.000915
100 0.000906
101 0.000898
102 0.000891
103 0.000883
104 0.000874
105 0.000865
106 0.000855
107 0.000849
108 0.000845
109 0.000838
110 0.000834
111 0.000834
112 0.000838
113 0.000841
114 0.000839
115 0.000834
116 0.000828
117 0.000822
118 0.000820
119 0.000816
120 0.000814
121 0.000811
122 0.000811
123 0.000813
124 0.000815
125 0.000820
126 0.000828
127 0.000829
128 0.000830
129 0.000836
130 0.000840
131 0.000840
132 0.000834
133 0.000832
134 0.000830
135 0.000830
136 0.000827
137 0.000826
138 0.000819
139 0.000817
140 0.000812
141 0.000807
142 0.000805
143 0.000807
144 0.000806
145 0.000808
146 0.000808
147 0.000805
148 0.000803
149 0.000803
150 0.000804
151 0.000801
152 0.000793
153 0.000787
154 0.000781
155 0.000774
156 0.000764
157 0.000755
158 0.000747
159 0.000743
160 0.000737
161 0.000734
162 0.000733
163 0.000729
164 0.000721
165 0.000713
166 0.000709
167 0.000705
168 0.000704
169 0.000707
170 0.000712
171 0.000718
172 0.000721
173 0.000718
174 0.000716
175 0.000715
176 0.000716
177 0.000722
178 0.000723
179 0.000724
180 0.000724
181 0.000726
182 0.000726
183 0.000727
184 0.000728
185 0.000728
186 0.000726
187 0.000723
188 0.000720
189 0.000717
190 0.000716
191 0.000716
192 0.000713
193 0.000713
194 0.000708
195 0.000706
196 0.000700
197 0.000693
198 0.000684
199 0.000680
200 0.000678
201 0.000685
202 0.000687
203 0.000687
204 0.000686
205 0.000687
206 0.000689
207 0.000690
208 0.000687
209 0.000685
210 0.000680
211 0.000678
212 0.000680
213 0.000679
214 0.000679
215 0.000680
216 0.000679
217 0.000678
218 0.000677
219 0.000678
220 0.000680
221 0.000686
222 0.000695
223 0.000705
224 0.000710
225 0.000713
226 0.000712
227 0.000712
228 0.000711
229 0.000709
230 0.000709
231 0.000709
232 0.000707
233 0.000704
234 0.000701
235 0.000697
236 0.000695
237 0.000697
238 0.000700
239 0.000700
240 0.000699
241 0.000694
242 0.000689
243 0.000690
244 0.000689
245 0.000689
246 0.000687
247 0.000689
248 0.000692
249 0.000694
250 0.000694
251 0.000696
252 0.000692
253 0.000688
254 0.000684
255 0.000686
256 0.000690
257 0.000695
258 0.000698
259 0.000706
260 0.000710
261 0.000714
262 0.000712
263 0.000711
264 0.000713
265 0.000717
266 0.000721
267 0.000722
268 0.000724
269 0.000726
270 0.000723
271 0.000721
272 0.000720
273 0.000721
274 0.000719
275 0.000719
276 0.000724
277 0.000725
278 0.000726
279 0.000731
280 0.000735
281 0.000736
282 0.000737
283 0.000735
284 0.000732
285 0.000729
286 0.000723
287 0.000718
288 0.000713
289 0.000710
290 0.000711
291 0.000711
292 0.000711
293 0.000704
294 0.000699
295 0.000694
296 0.000692
297 0.000690
298 0.000691
299 0.000687
300 0.000687
301 0.000688
302 0.000687
303 0.000683
304 0.000678
305 0.000674
306 0.000669
307 0.000664
308 0.000659
309 0.000653
310 0.000648
311 0.000643
312 0.000642
313 0.000641
314 0.000642
315 0.000642
316 0.000642
317 0.000640
318 0.000638
319 0.000636
320 0.000637
321 0.000639
322 0.000640
323 0.000641
324 0.000642
325 0.000637
326 0.000636
327 0.000635
328 0.000633
329 0.000629
330 0.000626
331 0.000622
332 0.000617
333 0.000614
334 0.000611
335 0.000608
336 0.000606
337 0.000604
338 0.000606
339 0.000603
340 0.000598
341 0.000591
342 0.000587
343 0.000581
344 0.000577
345 0.000574
346 0.000571
347 0.000568
348 0.000564
349 0.000559
350 0.000555
351 0.000553
352 0.000553
353 0.000550
354 0.000548
355 0.000544
356 0.000543
357 0.000539
358 0.000539
359 0.000534
360 0.000528
361 0.000519
362 0.000512
363 0.000511
364 0.000507
365 0.000500
366 0.000499
367 0.000499
368 0.000495
369 0.000489
370 0.000484
371 0.000480
372 0.000477
373 0.000474
374 0.000475
375 0.000474
376 0.000472
377 0.000468
378 0.000465
379 0.000463
380 0.000462
381 0.000459
382 0.000458
383 0.000457
384 0.000461
385 0.000464
386 0.000463
387 0.000460
388 0.000455
389 0.000451
390 0.000448
391 0.000445
392 0.000444
393 0.000445
394 0.000448
395 0.000449
396 0.000450
397 0.000444
398 0.000437
399 0.000432
400 0.000425
401 0.000418
402 0.000419
403 0.000418
404 0.000417
405 0.000415
406 0.000413
407 0.000415
408 0.000417
409 0.000420
410 0.000425
411 0.000427
412 0.000428
413 0.000429
414 0.000431
415 0.000435
416 0.000438
417 0.000436
418 0.000434
419 0.000430
420 0.000429
421 0.000427
422 0.000425
423 0.000423
424 0.000419
425 0.000418
426 0.000416
427 0.000414
428 0.000416
429 0.000417
430 0.000413
431 0.000413
432 0.000408
433 0.000402
434 0.000395
435 0.000391
436 0.000387
437 0.000383
438 0.000379
439 0.000379
440 0.000380
441 0.000381
442 0.000384
443 0.000385
444 0.000386
445 0.000384
446 0.000385
447 0.000386
448 0.000384
449 0.000382
450 0.000383
451 0.000386
452 0.000388
453 0.000389
454 0.000388
455 0.000387
456 0.000386
457 0.000383
458 0.000380
459 0.000378
460 0.000379
461 0.000380
462 0.000378
463 0.000378
464 0.000380
465 0.000377
466 0.000374
467 0.000373
468 0.000371
469 0.000367
470 0.000363
471 0.000361
472 0.000359
473 0.000356
474 0.000354
475 0.000352
476 0.000348
477 0.000345
478 0.000341
479 0.000339
480 0.000337
481 0.000338
482 0.000340
483 0.000343
484 0.000339
485 0.000337
486 0.000335
487 0.000333
488 0.000329
489 0.000328
490 0.000329
491 0.000328
492 0.000325
493 0.000328
494 0.000329
495 0.000330
496 0.000330
497 0.000331
498 0.000333
499 0.000336
500 0.000335
501 0.000333
502 0.000329
503 0.000331
504 0.000334
505 0.000333
506 0.000334
507 0.000336
508 0.000338
509 0.000340
510 0.000340
511 0.000339
512 0.000334
513 0.000333
514 0.000331
515 0.000329
516 0.000328
517 0.000329
518 0.000326
519 0.000321
520 0.000318
521 0.000315
522 0.000315
523 0.000315
524 0.000311
525 0.000309
526 0.000309
527 0.000309
528 0.000308
529 0.000309
530 0.000311
531 0.000311
532 0.000305
533 0.000299
534 0.000293
535 0.000294
536 0.000297
537 0.000298
538 0.000298
539 0.000302
540 0.000307
541 0.000309
542 0.000306
543 0.000304
544 0.000300
545 0.000298
546 0.000296
547 0.000296
548 0.000296
549 0.000295
550 0.000290
551 0.000289
552 0.000285
553 0.000285
554 0.000283
555 0.000284
556 0.000284
557 0.000287
558 0.000289
559 0.000290
560 0.000291
561 0.000292
562 0.000292
563 0.000293
564 0.000293
565 0.000293
566 0.000291
567 0.000286
568 0.000282
569 0.000281
570 0.000277
571 0.000274
572 0.000272
573 0.000271
574 0.000268
575 0.000262
576 0.000258
577 0.000253
578 0.000248
579 0.000242
580 0.000236
581 0.000235
582 0.000234
583 0.000232
584 0.000228
585 0.000226
586 0.000228
587 0.000233
588 0.000236
589 0.000235
590 0.000236
591 0.000236
592 0.000237
593 0.000240
594 0.000245
595 0.000249
596 0.000252
597 0.000255
598 0.000253
599 0.000249
600 0.000246
601 0.000244
602 0.000242
603 0.000242
604 0.000241
605 0.000244
606 0.000247
607 0.000247
608 0.000243
609 0.000241
610 0.000237
611 0.000236
612 0.000233
613 0.000228
614 0.000227
615 0.000225
616 0.000222
617 0.000216
618 0.000217
619 0.000219
620 0.000219
621 0.000216
622 0.000215
623 0.000212
624 0.000211
625 0.000207
626 0.000199
627 0.000192
628 0.000190
629 0.000189
630 0.000186
631 0.000180
632 0.000178
633 0.000175
634 0.000174
635 0.000172
636 0.000169
637 0.000167
638 0.000166
639 0.000166
640 0.000169
641 0.000168
642 0.000169
643 0.000172
644 0.000174
645 0.000177
646 0.000177
647 0.000175
648 0.000174
649 0.000170
650 0.000166
651 0.000165
652 0.000165
653 0.000168
654 0.000170
655 0.000168
656 0.000163
657 0.000155
658 0.000149
659 0.000144
660 0.000139
661 0.000135
662 0.000128
663 0.000122
664 0.000114
665 0.000111
666 0.000112
667 0.000111
668 0.000110
669 0.000111
670 0.000110
671 0.000111
672 0.000112
673 0.000112
674 0.000109
675 0.000111
676 0.000117
677 0.000119
678 0.000119
679 0.000122
680 0.000124
681 0.000121
682 0.000119
683 0.000118
684 0.000123
685 0.000126
686 0.000132
687 0.000135
688 0.000138
689 0.000142
690 0.000146
691 0.000148
692 0.000146
693 0.000144
694 0.000144
695 0.000143
696 0.000142
697 0.000143
698 0.000144
699 0.000144
700 0.000145
701 0.000147
702 0.000147
703 0.000147
704 0.000148
705 0.000149
706 0.000153
707 0.000156
708 0.000160
709 0.000162
710 0.000162
711 0.000164
712 0.000164
713 0.000164
714 0.000163
715 0.000162
716 0.000160
717 0.000159
718 0.000158
719 0.000160
720 0.000163
721 0.000162
722 0.000165
723 0.000167
724 0.000168
725 0.000167
726 0.000168
727 0.000168
728 0.000163
729 0.000158
730 0.000156
731 0.000155
732 0.000158
733 0.000159
734 0.000162
735 0.000161
736 0.000165
737 0.000166
738 0.000167
739 0.000164
740 0.000165
741 0.000166
742 0.000168
743 0.000171
744 0.000174
745 0.000176
746 0.000175
747 0.000172
748 0.000170
749 0.000169
750 0.000168
751 0.000166
752 0.000164
753 0.000160
754 0.000161
755 0.000162
756 0.000159
757 0.000155
758 0.000154
759 0.000153
760 0.000149
761 0.000145
762 0.000143
763 0.000141
764 0.000135
765 0.000133
766 0.000132
767 0.000130
768 0.000128
769 0.000127
770 0.000126
771 0.000124
772 0.000122
773 0.000120
774 0.000119
775 0.000119
776 0.000117
777 0.000117
778 0.000117
779 0.000119
780 0.000122
781 0.000124
782 0.000125
783 0.000125
784 0.000126
785 0.000123
786 0.000121
787 0.000119
788 0.000120
789 0.000121
790 0.000118
791 0.000116
792 0.000114
793 0.000110
794 0.000102
795 0.000097
796 0.000095
797 0.000092
798 0.000092
799 0.000091
800 0.000091
801 0.000090
802 0.000092
803 0.000090
804 0.000088
805 0.000087
806 0.000085
807 0.000083
808 0.000080
809 0.000078
