# i correlation
1 0.001599
2 0.001558
3 0.001524
4 0.001497
5 0.001475
6 0.001456
7 0.001437
8 0.001418
9 0.001401
10 0.001385
11 0.001368
12 0.001350
13 0.001333
14 0.001322
15 0.001311
16 0.001298
17 0.001290
18 0.001283
19 0.001279
20 0.001275
21 0.001269
22 0.001261
23 0.001259
24 0.001249
25 0.001241
26 0.001235
27 0.001230
28 0.001223
29 0.001217
30 0.001214
31 0.001212
32 0.001210
33 0.001204
34 0.001193
35 0.001184
36 0.001175
37 0.001166
38 0.001157
39 0.001149
40 0.001140
41 0.001132
42 0.001127
43 0.001123
44 0.001119
45 0.001115
46 0.001112
47 0.001113
48 0.001114
49 0.001114
50 0.001113
51 0.001110
52 0.001108
53 0.001104
54 0.001101
55 0.001098
56 0.001098
57 0.001094
58 0.001092
59 0.001090
60 0.001085
61 0.001083
62 0.001081
63 0.001076
64 0.001071
65 0.001063
66 0.001059
67 0.001055
68 0.001057
69 0.001063
70 0.001064
71 0.001064
72 0.001060
73 0.001059
74 0.001058
75 0.001054
76 0.001051
77 0.001045
78 0.001040
79 0.001041
80 0.001039
81 0.001039
82 0.001038
83 0.001038
84 0.001033
85 0.001032
86 0.001028
87 0.001029
88 0.001030
89 0.001033
90 0.001035
91 0.001038
92 0.001038
93 0.001038
94 0.001035
95 0.001025
96 0.001016
97 0.001006
98 0.000995
99 0.000987
100 0.000982
101 0.000978
102 0.000975
103 0.000969
104 0.000964
105 0.000958
106 0.000951
107 0.000946
108 0.000942
109 0.000935
110 0.000924
111 0.000920
112 0.000917
113 0.000916
114 0.000912
115 0.000907
116 0.000903
117 0.000900
118 0.000897
119 0.000897
120 0.000896
121 0.000892
122 0.000886
123 0.000882
124 0.000875
125 0.000868
126 0.000863
127 0.000856
128 0.000846
129 0.000833
130 0.000828
131 0.000824
132 0.000819
133 0.000815
134 0.000808
135 0.000799
136 0.000790
137 0.000780
138 0.000772
139 0.000767
140 0.000765
141 0.000761
142 0.000757
143 0.000757
144 0.000752
145 0.000746
146 0.000738
147 0.000731
148 0.000728
149 0.000727
150 0.000729
151 0.000728
152 0.000724
153 0.000720
154 0.000718
155 0.000718
156 0.000722
157 0.000726
158 0.000729
159 0.000733
160 0.000733
161 0.000735
162 0.000734
163 0.000738
164 0.000744
165 0.000746
166 0.000742
167 0.000740
168 0.000736
169 0.000736
170 0.000741
171 0.000747
172 0.000748
173 0.000745
174 0.000744
175 0.000743
176 0.000746
177 0.000747
178 0.000751
179 0.000753
180 0.000756
181 0.000760
182 0.000760
183 0.000764
184 0.000766
185 0.000767
186 0.000765
187 0.000762
188 0.000761
189 0.000762
190 0.000767
191 0.000769
192 0.000774
193 0.000776
194 0.000777
195 0.000779
196 0.000785
197 0.000788
198 0.000787
199 0.000785
200 0.000782
201 0.000780
202 0.000779
203 0.000779
204 0.000776
205 0.000773
206 0.000772
207 0.000771
208 0.000767
209 0.000764
210 0.000759
211 0.000755
212 0.000750
213 0.000747
214 0.000741
215 0.000734
216 0.000727
217 0.000717
218 0.000704
219 0.000697
220 0.000695
221 0.000692
222 0.000687
223 0.000681
224 0.000673
225 0.000664
226 0.000659
227 0.000652
228 0.000652
229 0.000648
230 0.000646
231 0.000644
232 0.000643
233 0.000642
234 0.000639
235 0.000637
236 0.000635
237 0.000637
238 0.000637
239 0.000637
240 0.000639
241 0.000638
242 0.000638
243 0.000637
244 0.000634
245 0.000630
246 0.000628
247 0.000628
248 0.000628
249 0.000628
250 0.000627
251 0.000631
252 0.000636
253 0.000637
254 0.000638
255 0.000639
256 0.000641
257 0.000642
258 0.000645
259 0.000646
260 0.000645
261 0.000643
262 0.000647
263 0.000651
264 0.000653
265 0.000654
266 0.000654
267 0.000648
268 0.000644
269 0.000638
270 0.000634
271 0.000634
272 0.000633
273 0.000633
274 0.000635
275 0.000635
276 0.000636
277 0.000637
278 0.000635
279 0.000634
280 0.000633
281 0.000632
282 0.000632
283 0.000634
284 0.000638
285 0.000644
286 0.000649
287 0.000648
288 0.000647
289 0.000648
290 0.000653
291 0.000658
292 0.000659
293 0.000652
294 0.000644
295 0.000636
296 0.000634
297 0.000637
298 0.000638
299 0.000637
300 0.000635
301 0.000632
302 0.000625
303 0.000619
304 0.000616
305 0.000609
306 0.000605
307 0.000602
308 0.000599
309 0.000595
310 0.000594
311 0.000595
312 0.000591
313 0.000588
314 0.000586
315 0.000586
316 0.000585
317 0.000585
318 0.000582
319 0.000576
320 0.000574
321 0.000570
322 0.000567
323 0.000566
324 0.000564
325 0.000559
326 0.000554
327 0.000552
328 0.000551
329 0.000553
330 0.000554
331 0.000555
332 0.000552
333 0.000546
334 0.000544
335 0.000543
336 0.000539
337 0.000536
338 0.000531
339 0.000528
340 0.000529
341 0.000530
342 0.000530
343 0.000530
344 0.000530
345 0.000530
346 0.000532
347 0.000534
348 0.000531
349 0.000528
350 0.000526
351 0.000524
352 0.000521
353 0.000524
354 0.000528
355 0.000532
356 0.000534
357 0.000532
358 0.000524
359 0.000518
360 0.000516
361 0.000513
362 0.000513
363 0.000511
364 0.000513
365 0.000510
366 0.000506
367 0.000503
368 0.000497
369 0.000487
370 0.000483
371 0.000481
372 0.000479
373 0.000477
374 0.000477
375 0.000475
376 0.000476
377 0.000478
378 0.000480
379 0.000482
380 0.000484
381 0.000485
382 0.000491
383 0.000495
384 0.000495
385 0.000499
386 0.000503
387 0.000504
388 0.000501
389 0.000496
390 0.000496
391 0.000497
392 0.000498
393 0.000498
394 0.000497
395 0.000490
396 0.000483
397 0.000479
398 0.000476
399 0.000471
400 0.000468
401 0.000463
402 0.000461
403 0.000460
404 0.000461
405 0.000466
406 0.000470
407 0.000469
408 0.000471
409 0.000472
410 0.000473
411 0.000476
412 0.000474
413 0.000474
414 0.000473
415 0.000473
416 0.000474
417 0.000471
418 0.000467
419 0.000463
420 0.000460
421 0.000453
422 0.000448
423 0.000449
424 0.000447
425 0.000444
426 0.000440
427 0.000433
428 0.000427
429 0.000425
430 0.000422
431 0.000416
432 0.000412
433 0.000412
434 0.000418
435 0.000422
436 0.000424
437 0.000425
438 0.000428
439 0.000429
440 0.000431
441 0.000433
442 0.000431
443 0.000432
444 0.000436
445 0.000435
446 0.000435
447 0.000436
448 0.000439
449 0.000441
450 0.000442
451 0.000441
452 0.000437
453 0.000434
454 0.000433
455 0.000435
456 0.000436
457 0.000435
458 0.000433
459 0.000431
460 0.000429
461 0.000429
462 0.000428
463 0.000427
464 0.000425
465 0.000422
466 0.000422
467 0.000426
468 0.000430
469 0.000433
470 0.000434
471 0.000434
472 0.000434
473 0.000434
474 0.000432
475 0.000432
476 0.000431
477 0.000432
478 0.000431
479 0.000432
480 0.000430
481 0.000428
482 0.000427
483 0.000424
484 0.000422
485 0.000420
486 0.000418
487 0.000419
488 0.000420
489 0.000421
490 0.000420
491 0.000416
492 0.000410
493 0.000403
494 0.000398
495 0.000393
496 0.000392
497 0.000391
498 0.000391
499 0.000391
500 0.000391
501 0.000386
502 0.000384
503 0.000380
504 0.000377
505 0.000377
506 0.000380
507 0.000380
508 0.000382
509 0.000379
510 0.000376
511 0.000373
512 0.000373
513 0.000373
514 0.000371
515 0.000364
516 0.000358
517 0.000355
518 0.000349
519 0.000344
520 0.000342
521 0.000341
522 0.000336
523 0.000332
524 0.000329
525 0.000326
526 0.000322
527 0.000321
528 0.000322
529 0.000323
530 0.000322
531 0.000322
532 0.000322
533 0.000320
534 0.000313
535 0.000310
536 0.000308
537 0.000307
538 0.000306
539 0.000303
540 0.000298
541 0.000296
542 0.000294
543 0.000293
544 0.000288
545 0.000282
546 0.000275
547 0.000271
548 0.000268
549 0.000266
550 0.000265
551 0.000265
552 0.000265
553 0.000267
554 0.000270
555 0.000272
556 0.000275
557 0.000279
558 0.000280
559 0.000281
560 0.000283
561 0.000284
562 0.000287
563 0.000290
564 0.000293
565 0.000294
566 0.000294
567 0.000294
568 0.000294
569 0.000292
570 0.000290
571 0.000289
572 0.000286
573 0.000281
574 0.000277
575 0.000274
576 0.000271
577 0.000268
578 0.000264
579 0.000258
580 0.000255
581 0.000253
582 0.000250
583 0.000250
584 0.000247
585 0.000244
586 0.000242
587 0.000241
588 0.000242
589 0.000241
590 0.000241
591 0.000242
592 0.000241
593 0.000238
594 0.000237
595 0.000236
596 0.000235
597 0.000233
598 0.000233
599 0.000237
600 0.000240
601 0.000243
602 0.000247
603 0.000254
604 0.000257
605 0.000259
606 0.000261
607 0.000264
608 0.000268
609 0.000269
610 0.000267
611 0.000262
612 0.000257
613 0.000254
614 0.000251
615 0.000248
616 0.000243
617 0.000238
618 0.000232
619 0.000228
620 0.000223
621 0.000219
622 0.000213
623 0.000208
624 0.000203
625 0.000199
626 0.000197
627 0.000195
628 0.000192
629 0.000191
630 0.000192
631 0.000192
632 0.000191
633 0.000191
634 0.000190
635 0.000188
636 0.000186
637 0.000182
638 0.000177
639 0.000178
640 0.000180
641 0.000183
642 0.000184
643 0.000184
644 0.000184
645 0.000185
646 0.000188
647 0.000191
648 0.000195
649 0.000196
650 0.000197
651 0.000199
652 0.000201
653 0.000204
654 0.000207
655 0.000208
656 0.000211
657 0.000215
658 0.000217
659 0.000217
660 0.000218
661 0.000218
662 0.000221
663 0.000226
664 0.000229
665 0.000232
666 0.000231
667 0.000230
668 0.000229
669 0.000229
670 0.000226
671 0.000227
672 0.000229
673 0.000229
674 0.000230
675 0.000229
676 0.000228
677 0.000229
678 0.000230
679 0.000229
680 0.000227
681 0.000224
682 0.000221
683 0.000221
684 0.000220
685 0.000217
686 0.000213
687 0.000208
688 0.000208
689 0.000205
690 0.000204
691 0.000205
692 0.000209
693 0.000211
694 0.000212
695 0.000211
696 0.000212
697 0.000215
698 0.000217
699 0.000218
700 0.000218
701 0.000218
702 0.000218
703 0.000217
704 0.000213
705 0.000209
706 0.000203
707 0.000197
708 0.000192
709 0.000190
710 0.000188
711 0.000188
712 0.000187
713 0.000186
714 0.000183
715 0.000181
716 0.000179
717 0.000177
718 0.000172
719 0.000170
720 0.000171
721 0.000172
722 0.000173
723 0.000174
724 0.000174
725 0.000173
726 0.000175
727 0.000178
728 0.000180
729 0.000181
730 0.000182
731 0.000183
732 0.000185
733 0.000183
734 0.000183
735 0.000182
736 0.000181
737 0.000181
738 0.000182
739 0.000181
740 0.000179
741 0.000178
742 0.000174
743 0.000172
744 0.000172
745 0.000169
746 0.000168
747 0.000168
748 0.000168
749 0.000168
750 0.000168
751 0.000166
752 0.000165
753 0.000164
754 0.000163
755 0.000161
756 0.000156
757 0.000152
758 0.000149
759 0.000147
760 0.000144
761 0.000142
762 0.000140
763 0.000139
764 0.000142
765 0.000144
766 0.000146
767 0.000150
768 0.000153
769 0.000157
770 0.000162
771 0.000168
772 0.000170
773 0.000172
774 0.000174
775 0.000174
776 0.000172
777 0.000168
778 0.000162
779 0.000158
780 0.000157
781 0.000155
782 0.000150
783 0.000147
784 0.000145
785 0.000146
786 0.000146
787 0.000144
788 0.000145
789 0.000144
790 0.000146
791 0.000147
792 0.000146
793 0.000143
794 0.000142
795 0.000140
796 0.000140
797 0.000140
798 0.000143
799 0.000144
800 0.000144
801 0.000145
802 0.000146
803 0.000147
804 0.000147
805 0.000148
806 0.000149
807 0.000149
808 0.000148
809 0.000144
