# i correlation
1 0.001513
2 0.001472
3 0.001434
4 0.001406
5 0.001385
6 0.001366
7 0.001350
8 0.001334
9 0.001319
10 0.001309
11 0.001295
12 0.001288
13 0.001277
14 0.001269
15 0.001262
16 0.001258
17 0.001254
18 0.001248
19 0.001241
20 0.001235
21 0.001227
22 0.001217
23 0.001209
24 0.001201
25 0.001196
26 0.001194
27 0.001190
28 0.001188
29 0.001181
30 0.001178
31 0.001170
32 0.001164
33 0.001165
34 0.001164
35 0.001166
36 0.001165
37 0.001163
38 0.001161
39 0.001150
40 0.001144
41 0.001133
42 0.001125
43 0.001117
44 0.001109
45 0.001106
46 0.001101
47 0.001101
48 0.001092
49 0.001086
50 0.001080
51 0.001076
52 0.001072
53 0.001070
54 0.001074
55 0.001077
56 0.001080
57 0.001081
58 0.001077
59 0.001069
60 0.001061
61 0.001052
62 0.001048
63 0.001050
64 0.001050
65 0.001044
66 0.001036
67 0.001030
68 0.001026
69 0.001021
70 0.001018
71 0.001014
72 0.001016
73 0.001016
74 0.001011
75 0.001008
76 0.001002
77 0.000996
78 0.000987
79 0.000976
80 0.000968
81 0.000959
82 0.000950
83 0.000948
84 0.000947
85 0.000949
86 0.000946
87 0.000943
88 0.000935
89 0.000929
90 0.000930
91 0.000930
92 0.000932
93 0.000932
94 0.000931
95 0.000927
96 0.000921
97 0.000912
98 0.000905
99 0.000899
100 0.000898
101 0.000900
102 0.000900
103 0.000900
104 0.000895
105 0.000887
106 0.000881
107 0.000873
108 0.000863
109 0.000856
110 0.000855
111 0.000856
112 0.000855
113 0.000855
114 0.000853
115 0.000855
116 0.000856
117 0.000856
118 0.000850
119 0.000849
120 0.000849
121 0.000849
122 0.000847
123 0.000850
124 0.000845
125 0.000838
126 0.000831
127 0.000832
128 0.000833
129 0.000835
130 0.000837
131 0.000840
132 0.000839
133 0.000837
134 0.000835
135 0.000830
136 0.000828
137 0.000827
138 0.000824
139 0.000824
140 0.000821
141 0.000820
142 0.000818
143 0.000816
144 0.000816
145 0.000814
146 0.000806
147 0.000799
148 0.000797
149 0.000798
150 0.000794
151 0.000787
152 0.000777
153 0.000765
154 0.000753
155 0.000746
156 0.000745
157 0.000746
158 0.000749
159 0.000748
160 0.000744
161 0.000739
162 0.000731
163 0.000726
164 0.000725
165 0.000724
166 0.000724
167 0.000724
168 0.000722
169 0.000720
170 0.000721
171 0.000721
172 0.000722
173 0.000719
174 0.000719
175 0.000722
176 0.000721
177 0.000722
178 0.000722
179 0.000722
180 0.000717
181 0.000712
182 0.000706
183 0.000700
184 0.000698
185 0.000698
186 0.000704
187 0.000708
188 0.000711
189 0.000710
190 0.000705
191 0.000705
192 0.000702
193 0.000700
194 0.000700
195 0.000701
196 0.000700
197 0.000697
198 0.000689
199 0.000684
200 0.000683
201 0.000681
202 0.000681
203 0.000682
204 0.000682
205 0.000677
206 0.000671
207 0.000668
208 0.000663
209 0.000658
210 0.000652
211 0.000644
212 0.000640
213 0.000638
214 0.000636
215 0.000634
216 0.000632
217 0.000632
218 0.000627
219 0.000626
220 0.000620
221 0.000618
222 0.000619
223 0.000614
224 0.000612
225 0.000608
226 0.000605
227 0.000604
228 0.000599
229 0.000597
230 0.000590
231 0.000585
232 0.000580
233 0.000578
234 0.000575
235 0.000571
236 0.000564
237 0.000560
238 0.000553
239 0.000546
240 0.000536
241 0.000526
242 0.000521
243 0.000518
244 0.000516
245 0.000513
246 0.000511
247 0.000512
248 0.000510
249 0.000510
250 0.000512
251 0.000516
252 0.000518
253 0.000520
254 0.000521
255 0.000520
256 0.000516
257 0.000510
258 0.000505
259 0.000501
260 0.000499
261 0.000496
262 0.000494
263 0.000491
264 0.000496
265 0.000499
266 0.000496
267 0.000495
268 0.000490
269 0.000480
270 0.000471
271 0.000463
272 0.000459
273 0.000457
274 0.000456
275 0.000451
276 0.000445
277 0.000442
278 0.000443
279 0.000443
280 0.000442
281 0.000445
282 0.000443
283 0.000442
284 0.000440
285 0.000438
286 0.000437
287 0.000442
288 0.000448
289 0.000456
290 0.000458
291 0.000458
292 0.000455
293 0.000452
294 0.000448
295 0.000447
296 0.000441
297 0.000439
298 0.000435
299 0.000429
300 0.000424
301 0.000416
302 0.000412
303 0.000409
304 0.000408
305 0.000412
306 0.000412
307 0.000413
308 0.000414
309 0.000415
310 0.000416
311 0.000418
312 0.000420
313 0.000416
314 0.000415
315 0.000417
316 0.000418
317 0.000419
318 0.000419
319 0.000420
320 0.000421
321 0.000421
322 0.000421
323 0.000425
324 0.000427
325 0.000425
326 0.000422
327 0.000420
328 0.000421
329 0.000421
330 0.000421
331 0.000426
332 0.000426
333 0.000425
334 0.000423
335 0.000420
336 0.000419
337 0.000419
338 0.000422
339 0.000422
340 0.000420
341 0.000418
342 0.000413
343 0.000410
344 0.000407
345 0.000408
346 0.000409
347 0.000410
348 0.000406
349 0.000400
350 0.000400
351 0.000403
352 0.000407
353 0.000410
354 0.000413
355 0.000413
356 0.000411
357 0.000405
358 0.000404
359 0.000402
360 0.000399
361 0.000398
362 0.000398
363 0.000396
364 0.000396
365 0.000393
366 0.000395
367 0.000396
368 0.000399
369 0.000401
370 0.000401
371 0.000402
372 0.000399
373 0.000395
374 0.000390
375 0.000387
376 0.000382
377 0.000378
378 0.000376
379 0.000375
380 0.000378
381 0.000380
382 0.000379
383 0.000376
384 0.000374
385 0.000373
386 0.000369
387 0.000367
388 0.000366
389 0.000363
390 0.000365
391 0.000366
392 0.000368
393 0.000371
394 0.000374
395 0.000378
396 0.000383
397 0.000386
398 0.000389
399 0.000388
400 0.000388
401 0.000391
402 0.000392
403 0.000393
404 0.000390
405 0.000387
406 0.000384
407 0.000381
408 0.000382
409 0.000384
410 0.000386
411 0.000388
412 0.000384
413 0.000379
414 0.000376
415 0.000373
416 0.000369
417 0.000361
418 0.000355
419 0.000348
420 0.000339
421 0.000333
422 0.000331
423 0.000333
424 0.000335
425 0.000335
426 0.000336
427 0.000332
428 0.000331
429 0.000323
430 0.000315
431 0.000314
432 0.000313
433 0.000311
434 0.000312
435 0.000312
436 0.000310
437 0.000308
438 0.000308
439 0.000309
440 0.000303
441 0.000299
442 0.000294
443 0.000291
444 0.000290
445 0.000291
446 0.000293
447 0.000292
448 0.000291
449 0.000289
450 0.000286
451 0.000287
452 0.000287
453 0.000288
454 0.000292
455 0.000292
456 0.000298
457 0.000300
458 0.000302
459 0.000302
460 0.000298
461 0.000297
462 0.000296
463 0.000292
464 0.000290
465 0.000291
466 0.000294
467 0.000293
468 0.000298
469 0.000299
470 0.000300
471 0.000300
472 0.000302
473 0.000301
474 0.000300
475 0.000299
476 0.000297
477 0.000293
478 0.000289
479 0.000284
480 0.000279
481 0.000276
482 0.000277
483 0.000280
484 0.000283
485 0.000280
486 0.000279
487 0.000279
488 0.000277
489 0.000275
490 0.000271
491 0.000271
492 0.000269
493 0.000268
494 0.000266
495 0.000266
496 0.000265
497 0.000262
498 0.000258
499 0.000254
500 0.000253
501 0.000255
502 0.000256
503 0.000259
504 0.000258
505 0.000258
506 0.000256
507 0.000256
508 0.000259
509 0.000262
510 0.000268
511 0.000275
512 0.000280
513 0.000281
514 0.000280
515 0.000279
516 0.000279
517 0.000278
518 0.000278
519 0.000279
520 0.000279
521 0.000279
522 0.000280
523 0.000278
524 0.000276
525 0.000273
526 0.000274
527 0.000273
528 0.000272
529 0.000275
530 0.000276
531 0.000279
532 0.000279
533 0.000277
534 0.000275
535 0.000270
536 0.000267
537 0.000262
538 0.000261
539 0.000262
540 0.000263
541 0.000265
542 0.000268
543 0.000274
544 0.000276
545 0.000278
546 0.000281
547 0.000285
548 0.000293
549 0.000297
550 0.000300
551 0.000300
552 0.000298
553 0.000294
554 0.000287
555 0.000285
556 0.000281
557 0.000280
558 0.000277
559 0.000277
560 0.000276
561 0.000273
562 0.000272
563 0.000267
564 0.000261
565 0.000257
566 0.000254
567 0.000256
568 0.000259
569 0.000261
570 0.000261
571 0.000257
572 0.000254
573 0.000253
574 0.000253
575 0.000254
576 0.000257
577 0.000258
578 0.000261
579 0.000265
580 0.000269
581 0.000273
582 0.000273
583 0.000276
584 0.000279
585 0.000285
586 0.000289
587 0.000289
588 0.000291
589 0.000291
590 0.000291
591 0.000288
592 0.000283
593 0.000280
594 0.000275
595 0.000276
596 0.000278
597 0.000282
598 0.000285
599 0.000285
600 0.000285
601 0.000286
602 0.000289
603 0.000293
604 0.000297
605 0.000300
606 0.000305
607 0.000308
608 0.000307
609 0.000304
610 0.000304
611 0.000303
612 0.000304
613 0.000304
614 0.000305
615 0.000304
616 0.000305
617 0.000304
618 0.000303
619 0.000302
620 0.000302
621 0.000299
622 0.000297
623 0.000295
624 0.000292
625 0.000292
626 0.000291
627 0.000287
628 0.000284
629 0.000278
630 0.000273
631 0.000270
632 0.000267
633 0.000263
634 0.000258
635 0.000256
636 0.000254
637 0.000249
638 0.000246
639 0.000244
640 0.000244
641 0.000244
642 0.000247
643 0.000252
644 0.000256
645 0.000262
646 0.000262
647 0.000262
648 0.000262
649 0.000260
650 0.000260
651 0.000260
652 0.000259
653 0.000260
654 0.000259
655 0.000261
656 0.000258
657 0.000254
658 0.000252
659 0.000249
660 0.000251
661 0.000253
662 0.000253
663 0.000253
664 0.000249
665 0.000248
666 0.000244
667 0.000238
668 0.000234
669 0.000230
670 0.000227
671 0.000224
672 0.000222
673 0.000218
674 0.000215
675 0.000214
676 0.000212
677 0.000208
678 0.000207
679 0.000208
680 0.000208
681 0.000206
682 0.000205
683 0.000202
684 0.000200
685 0.000197
686 0.000194
687 0.000191
688 0.000190
689 0.000190
690 0.000192
691 0.000196
692 0.000199
693 0.000201
694 0.000198
695 0.000193
696 0.000189
697 0.000185
698 0.000183
699 0.000183
700 0.000183
701 0.000181
702 0.000178
703 0.000175
704 0.000170
705 0.000168
706 0.000166
707 0.000164
708 0.000164
709 0.000162
710 0.000160
711 0.000158
712 0.000157
713 0.000156
714 0.000154
715 0.000150
716 0.000146
717 0.000144
718 0.000141
719 0.000137
720 0.000136
721 0.000136
722 0.000133
723 0.000131
724 0.000128
725 0.000127
726 0.000127
727 0.000126
728 0.000124
729 0.000123
730 0.000121
731 0.000121
732 0.000118
733 0.000120
734 0.000123
735 0.000126
736 0.000129
737 0.000133
738 0.000138
739 0.000140
740 0.000141
741 0.000141
742 0.000139
743 0.000141
744 0.000142
745 0.000141
746 0.000142
747 0.000142
748 0.000141
749 0.000140
750 0.000139
751 0.000138
752 0.000135
753 0.000131
754 0.000126
755 0.000125
756 0.000126
757 0.000127
758 0.000123
759 0.000121
760 0.000115
761 0.000116
762 0.000115
763 0.000115
764 0.000112
765 0.000111
766 0.000110
767 0.000109
768 0.000104
769 0.000099
770 0.000096
771 0.000094
772 0.000092
773 0.000089
774 0.000087
775 0.000087
776 0.000089
777 0.000089
778 0.000089
779 0.000088
780 0.000085
781 0.000085
782 0.000084
783 0.000081
784 0.000080
785 0.000076
786 0.000073
787 0.000068
788 0.000063
789 0.000059
790 0.000056
791 0.000052
792 0.000051
793 0.000051
794 0.000049
795 0.000049
796 0.000047
797 0.000047
798 0.000044
799 0.000044
800 0.000042
801 0.000040
802 0.000037
803 0.000035
804 0.000033
805 0.000032
806 0.000032
807 0.000033
808 0.000034
809 0.000034
