# i correlation
1 0.001455
2 0.001412
3 0.001375
4 0.001343
5 0.001313
6 0.001285
7 0.001258
8 0.001236
9 0.001220
10 0.001206
11 0.001199
12 0.001193
13 0.001188
14 0.001185
15 0.001181
16 0.001176
17 0.001173
18 0.001170
19 0.001167
20 0.001164
21 0.001162
22 0.001158
23 0.001152
24 0.001143
25 0.001135
26 0.001123
27 0.001110
28 0.001099
29 0.001088
30 0.001079
31 0.001069
32 0.001063
33 0.001059
34 0.001049
35 0.001042
36 0.001036
37 0.001028
38 0.001016
39 0.001010
40 0.001007
41 0.001006
42 0.001005
43 0.000998
44 0.000994
45 0.000994
46 0.000993
47 0.000993
48 0.000986
49 0.000976
50 0.000970
51 0.000966
52 0.000961
53 0.000951
54 0.000941
55 0.000934
56 0.000928
57 0.000923
58 0.000912
59 0.000910
60 0.000909
61 0.000910
62 0.000915
63 0.000920
64 0.000925
65 0.000930
66 0.000932
67 0.000930
68 0.000926
69 0.000918
70 0.000907
71 0.000890
72 0.000880
73 0.000873
74 0.000864
75 0.000857
76 0.000848
77 0.000846
78 0.000848
79 0.000850
80 0.000850
81 0.000852
82 0.000847
83 0.000839
84 0.000832
85 0.000825
86 0.000817
87 0.000812
88 0.000807
89 0.000801
90 0.000795
91 0.000790
92 0.000790
93 0.000785
94 0.000783
95 0.000782
96 0.000781
97 0.000779
98 0.000780
99 0.000781
100 0.000780
101 0.000777
102 0.000776
103 0.000778
104 0.000776
105 0.000770
106 0.000766
107 0.000762
108 0.000756
109 0.000751
110 0.000747
111 0.000745
112 0.000746
113 0.000747
114 0.000750
115 0.000752
116 0.000755
117 0.000754
118 0.000748
119 0.000740
120 0.000729
121 0.000719
122 0.000708
123 0.000699
124 0.000693
125 0.000688
126 0.000684
127 0.000681
128 0.000677
129 0.000674
130 0.000669
131 0.000668
132 0.000669
133 0.000668
134 0.000670
135 0.000666
136 0.000662
137 0.000662
138 0.000661
139 0.000662
140 0.000662
141 0.000659
142 0.000657
143 0.000651
144 0.000648
145 0.000652
146 0.000654
147 0.000656
148 0.000653
149 0.000650
150 0.000646
151 0.000642
152 0.000638
153 0.000635
154 0.000628
155 0.000620
156 0.000612
157 0.000608
158 0.000604
159 0.000598
160 0.000598
161 0.000597
162 0.000601
163 0.000602
164 0.000605
165 0.000607
166 0.000606
167 0.000604
168 0.000601
169 0.000598
170 0.000594
171 0.000589
172 0.000585
173 0.000581
174 0.000580
175 0.000579
176 0.000579
177 0.000581
178 0.000583
179 0.000585
180 0.000587
181 0.000589
182 0.000588
183 0.000584
184 0.000575
185 0.000563
186 0.000550
187 0.000540
188 0.000535
189 0.000527
190 0.000521
191 0.000516
192 0.000511
193 0.000508
194 0.000515
195 0.000520
196 0.000524
197 0.000532
198 0.000537
199 0.000540
200 0.000538
201 0.000535
202 0.000534
203 0.000527
204 0.000519
205 0.000510
206 0.000499
207 0.000494
208 0.000486
209 0.000480
210 0.000473
211 0.000469
212 0.000470
213 0.000472
214 0.000479
215 0.000482
216 0.000484
217 0.000483
218 0.000481
219 0.000483
220 0.000480
221 0.000472
222 0.000468
223 0.000465
224 0.000462
225 0.000458
226 0.000457
227 0.000458
228 0.000459
229 0.000458
230 0.000456
231 0.000454
232 0.000450
233 0.000444
234 0.000436
235 0.000429
236 0.000423
237 0.000421
238 0.000414
239 0.000410
240 0.000405
241 0.000402
242 0.000404
243 0.000409
244 0.000413
245 0.000417
246 0.000419
247 0.000420
248 0.000421
249 0.000418
250 0.000416
251 0.000415
252 0.000414
253 0.000410
254 0.000407
255 0.000407
256 0.000405
257 0.000406
258 0.000406
259 0.000406
260 0.000404
261 0.000406
262 0.000407
263 0.000409
264 0.000416
265 0.000421
266 0.000425
267 0.000426
268 0.000430
269 0.000434
270 0.000434
271 0.000433
272 0.000428
273 0.000421
274 0.000414
275 0.000409
276 0.000407
277 0.000404
278 0.000405
279 0.000412
280 0.000419
281 0.000426
282 0.000435
283 0.000445
284 0.000454
285 0.000457
286 0.000460
287 0.000462
288 0.000459
289 0.000454
290 0.000450
291 0.000446
292 0.000444
293 0.000443
294 0.000446
295 0.000444
296 0.000443
297 0.000445
298 0.000445
299 0.000443
300 0.000438
301 0.000434
302 0.000427
303 0.000426
304 0.000425
305 0.000423
306 0.000425
307 0.000426
308 0.000429
309 0.000432
310 0.000436
311 0.000443
312 0.000448
313 0.000448
314 0.000445
315 0.000448
316 0.000452
317 0.000454
318 0.000454
319 0.000452
320 0.000451
321 0.000449
322 0.000447
323 0.000445
324 0.000442
325 0.000442
326 0.000442
327 0.000442
328 0.000441
329 0.000441
330 0.000443
331 0.000450
332 0.000454
333 0.000456
334 0.000457
335 0.000458
336 0.000458
337 0.000455
338 0.000451
339 0.000443
340 0.000434
341 0.000429
342 0.000425
343 0.000423
344 0.000423
345 0.000422
346 0.000424
347 0.000427
348 0.000431
349 0.000437
350 0.000442
351 0.000445
352 0.000444
353 0.000443
354 0.000441
355 0.000436
356 0.000430
357 0.000421
358 0.000416
359 0.000414
360 0.000412
361 0.000411
362 0.000408
363 0.000407
364 0.000404
365 0.000400
366 0.000391
367 0.000384
368 0.000378
369 0.000373
370 0.000367
371 0.000363
372 0.000361
373 0.000360
374 0.000357
375 0.000353
376 0.000353
377 0.000349
378 0.000348
379 0.000348
380 0.000346
381 0.000347
382 0.000350
383 0.000353
384 0.000355
385 0.000354
386 0.000352
387 0.000345
388 0.000338
389 0.000333
390 0.000330
391 0.000325
392 0.000324
393 0.000319
394 0.000313
395 0.000312
396 0.000313
397 0.000313
398 0.000312
399 0.000311
400 0.000311
401 0.000311
402 0.000310
403 0.000310
404 0.000307
405 0.000306
406 0.000306
407 0.000308
408 0.000308
409 0.000308
410 0.000311
411 0.000313
412 0.000313
413 0.000310
414 0.000308
415 0.000306
416 0.000303
417 0.000302
418 0.000298
419 0.000294
420 0.000288
421 0.000283
422 0.000283
423 0.000284
424 0.000286
425 0.000289
426 0.000292
427 0.000295
428 0.000301
429 0.000307
430 0.000310
431 0.000314
432 0.000315
433 0.000316
434 0.000317
435 0.000313
436 0.000312
437 0.000308
438 0.000303
439 0.000298
440 0.000293
441 0.000289
442 0.000285
443 0.000284
444 0.000282
445 0.000282
446 0.000284
447 0.000283
448 0.000283
449 0.000282
450 0.000283
451 0.000282
452 0.000283
453 0.000281
454 0.000278
455 0.000274
456 0.000267
457 0.000261
458 0.000255
459 0.000251
460 0.000245
461 0.000242
462 0.000242
463 0.000241
464 0.000243
465 0.000248
466 0.000251
467 0.000252
468 0.000253
469 0.000252
470 0.000250
471 0.000247
472 0.000238
473 0.000230
474 0.000223
475 0.000219
476 0.000219
477 0.000218
478 0.000218
479 0.000215
480 0.000216
481 0.000215
482 0.000215
483 0.000214
484 0.000211
485 0.000210
486 0.000209
487 0.000207
488 0.000209
489 0.000208
490 0.000209
491 0.000210
492 0.000211
493 0.000209
494 0.000204
495 0.000203
496 0.000202
497 0.000204
498 0.000209
499 0.000210
500 0.000214
501 0.000216
502 0.000217
503 0.000217
504 0.000213
505 0.000210
506 0.000210
507 0.000207
508 0.000205
509 0.000206
510 0.000212
511 0.000217
512 0.000223
513 0.000230
514 0.000235
515 0.000238
516 0.000239
517 0.000240
518 0.000239
519 0.000235
520 0.000228
521 0.000223
522 0.000217
523 0.000214
524 0.000212
525 0.000215
526 0.000220
527 0.000226
528 0.000232
529 0.000234
530 0.000239
531 0.000245
532 0.000251
533 0.000260
534 0.000266
535 0.000269
536 0.000267
537 0.000265
538 0.000260
539 0.000256
540 0.000250
541 0.000244
542 0.000238
543 0.000234
544 0.000231
545 0.000230
546 0.000229
547 0.000229
548 0.000230
549 0.000232
550 0.000237
551 0.000238
552 0.000240
553 0.000242
554 0.000241
555 0.000241
556 0.000239
557 0.000238
558 0.000235
559 0.000232
560 0.000229
561 0.000225
562 0.000220
563 0.000218
564 0.000216
565 0.000215
566 0.000216
567 0.000220
568 0.000221
569 0.000223
570 0.000227
571 0.000226
572 0.000224
573 0.000224
574 0.000226
575 0.000227
576 0.000226
577 0.000223
578 0.000225
579 0.000229
580 0.000233
581 0.000231
582 0.000226
583 0.000223
584 0.000217
585 0.000211
586 0.000205
587 0.000198
588 0.000191
589 0.000180
590 0.000172
591 0.000167
592 0.000164
593 0.000160
594 0.000157
595 0.000157
596 0.000159
597 0.000159
598 0.000159
599 0.000157
600 0.000159
601 0.000159
602 0.000159
603 0.000159
604 0.000159
605 0.000160
606 0.000165
607 0.000169
608 0.000173
609 0.000177
610 0.000176
611 0.000176
612 0.000174
613 0.000171
614 0.000170
615 0.000171
616 0.000169
617 0.000170
618 0.000168
619 0.000167
620 0.000166
621 0.000164
622 0.000164
623 0.000162
624 0.000160
625 0.000158
626 0.000159
627 0.000160
628 0.000162
629 0.000166
630 0.000175
631 0.000183
632 0.000187
633 0.000192
634 0.000195
635 0.000194
636 0.000193
637 0.000192
638 0.000192
639 0.000190
640 0.000189
641 0.000186
642 0.000184
643 0.000183
644 0.000181
645 0.000179
646 0.000173
647 0.000173
648 0.000172
649 0.000170
650 0.000168
651 0.000167
652 0.000167
653 0.000167
654 0.000165
655 0.000163
656 0.000158
657 0.000154
658 0.000149
659 0.000147
660 0.000146
661 0.000143
662 0.000141
663 0.000137
664 0.000134
665 0.000131
666 0.000132
667 0.000130
668 0.000129
669 0.000127
670 0.000124
671 0.000122
672 0.000120
673 0.000122
674 0.000123
675 0.000128
676 0.000131
677 0.000131
678 0.000133
679 0.000137
680 0.000142
681 0.000145
682 0.000148
683 0.000151
684 0.000152
685 0.000153
686 0.000153
687 0.000151
688 0.000147
689 0.000144
690 0.000142
691 0.000139
692 0.000138
693 0.000135
694 0.000135
695 0.000139
696 0.000142
697 0.000145
698 0.000148
699 0.000149
700 0.000150
701 0.000150
702 0.000149
703 0.000148
704 0.000146
705 0.000143
706 0.000139
707 0.000141
708 0.000142
709 0.000144
710 0.000144
711 0.000142
712 0.000142
713 0.000143
714 0.000143
715 0.000147
716 0.000150
717 0.000153
718 0.000152
719 0.000148
720 0.000146
721 0.000143
722 0.000141
723 0.000139
724 0.000134
725 0.000132
726 0.000130
727 0.000128
728 0.000126
729 0.000123
730 0.000120
731 0.000118
732 0.000116
733 0.000116
734 0.000117
735 0.000116
736 0.000113
737 0.000111
738 0.000109
739 0.000107
740 0.000105
741 0.000104
742 0.000103
743 0.000102
744 0.000101
745 0.000101
746 0.000102
747 0.000103
748 0.000105
749 0.000109
750 0.000111
751 0.000108
752 0.000105
753 0.000103
754 0.000102
755 0.000100
756 0.000098
757 0.000097
758 0.000094
759 0.000090
760 0.000088
761 0.000086
762 0.000088
763 0.000088
764 0.000089
765 0.000086
766 0.000082
767 0.000080
768 0.000079
769 0.000076
770 0.000074
771 0.000071
772 0.000070
773 0.000067
774 0.000066
775 0.000066
776 0.000066
777 0.000065
778 0.000064
779 0.000063
780 0.000059
781 0.000055
782 0.000054
783 0.000051
784 0.000048
785 0.000049
786 0.000050
787 0.000050
788 0.000048
789 0.000045
790 0.000044
791 0.000042
792 0.000042
793 0.000042
794 0.000041
795 0.000040
796 0.000040
797 0.000041
798 0.000041
799 0.000042
800 0.000041
801 0.000039
802 0.000037
803 0.000035
804 0.000033
805 0.000030
806 0.000027
807 0.000025
808 0.000024
809 0.000024
