# i correlation
1 0.001780
2 0.001737
3 0.001697
4 0.001665
5 0.001638
6 0.001615
7 0.001592
8 0.001573
9 0.001558
10 0.001543
11 0.001524
12 0.001510
13 0.001493
14 0.001476
15 0.001461
16 0.001446
17 0.001433
18 0.001421
19 0.001415
20 0.001412
21 0.001408
22 0.001403
23 0.001402
24 0.001397
25 0.001397
26 0.001395
27 0.001391
28 0.001382
29 0.001370
30 0.001355
31 0.001344
32 0.001337
33 0.001328
34 0.001325
35 0.001320
36 0.001320
37 0.001320
38 0.001320
39 0.001319
40 0.001319
41 0.001317
42 0.001311
43 0.001301
44 0.001295
45 0.001289
46 0.001284
47 0.001284
48 0.001284
49 0.001279
50 0.001275
51 0.001270
52 0.001262
53 0.001255
54 0.001255
55 0.001251
56 0.001248
57 0.001239
58 0.001231
59 0.001226
60 0.001224
61 0.001221
62 0.001217
63 0.001211
64 0.001204
65 0.001200
66 0.001192
67 0.001187
68 0.001181
69 0.001172
70 0.001169
71 0.001168
72 0.001162
73 0.001155
74 0.001149
75 0.001142
76 0.001133
77 0.001123
78 0.001113
79 0.001107
80 0.001099
81 0.001093
82 0.001087
83 0.001083
84 0.001078
85 0.001075
86 0.001071
87 0.001069
88 0.001067
89 0.001065
90 0.001062
91 0.001064
92 0.001064
93 0.001064
94 0.001060
95 0.001056
96 0.001050
97 0.001041
98 0.001036
99 0.001034
100 0.001029
101 0.001019
102 0.001011
103 0.001002
104 0.000992
105 0.000982
106 0.000974
107 0.000963
108 0.000956
109 0.000950
110 0.000944
111 0.000939
112 0.000936
113 0.000932
114 0.000926
115 0.000917
116 0.000912
117 0.000905
118 0.000898
119 0.000894
120 0.000890
121 0.000889
122 0.000885
123 0.000880
124 0.000873
125 0.000869
126 0.000865
127 0.000858
128 0.000856
129 0.000856
130 0.000855
131 0.000859
132 0.000860
133 0.000863
134 0.000863
135 0.000863
136 0.000860
137 0.000850
138 0.000838
139 0.000828
140 0.000819
141 0.000813
142 0.000811
143 0.000810
144 0.000806
145 0.000803
146 0.000799
147 0.000792
148 0.000782
149 0.000774
150 0.000766
151 0.000760
152 0.000756
153 0.000752
154 0.000747
155 0.000739
156 0.000734
157 0.000731
158 0.000734
159 0.000730
160 0.000730
161 0.000727
162 0.000727
163 0.000729
164 0.000726
165 0.000717
166 0.000709
167 0.000705
168 0.000699
169 0.000692
170 0.000689
171 0.000685
172 0.000683
173 0.000684
174 0.000684
175 0.000682
176 0.000681
177 0.000679
178 0.000674
179 0.000670
180 0.000667
181 0.000665
182 0.000665
183 0.000666
184 0.000667
185 0.000668
186 0.000666
187 0.000665
188 0.000661
189 0.000655
190 0.000650
191 0.000644
192 0.000638
193 0.000627
194 0.000614
195 0.000601
196 0.000594
197 0.000587
198 0.000581
199 0.000576
200 0.000571
201 0.000567
202 0.000562
203 0.000555
204 0.000549
205 0.000544
206 0.000538
207 0.000533
208 0.000533
209 0.000532
210 0.000531
211 0.000530
212 0.000534
213 0.000537
214 0.000542
215 0.000548
216 0.000551
217 0.000558
218 0.000558
219 0.000555
220 0.000553
221 0.000548
222 0.000543
223 0.000547
224 0.000549
225 0.000551
226 0.000554
227 0.000555
228 0.000557
229 0.000559
230 0.000558
231 0.000557
232 0.000556
233 0.000553
234 0.000553
235 0.000554
236 0.000555
237 0.000553
238 0.000557
239 0.000558
240 0.000561
241 0.000561
242 0.000562
243 0.000559
244 0.000557
245 0.000557
246 0.000557
247 0.000556
248 0.000549
249 0.000542
250 0.000539
251 0.000536
252 0.000536
253 0.000538
254 0.000539
255 0.000543
256 0.000543
257 0.000543
258 0.000541
259 0.000543
260 0.000540
261 0.000535
262 0.000533
263 0.000532
264 0.000532
265 0.000534
266 0.000533
267 0.000534
268 0.000532
269 0.000528
270 0.000524
271 0.000521
272 0.000520
273 0.000517
274 0.000516
275 0.000512
276 0.000509
277 0.000505
278 0.000502
279 0.000505
280 0.000508
281 0.000509
282 0.000508
283 0.000509
284 0.000512
285 0.000515
286 0.000517
287 0.000516
288 0.000514
289 0.000507
290 0.000503
291 0.000501
292 0.000502
293 0.000500
294 0.000498
295 0.000494
296 0.000497
297 0.000497
298 0.000492
299 0.000489
300 0.000484
301 0.000480
302 0.000476
303 0.000473
304 0.000470
305 0.000467
306 0.000467
307 0.000469
308 0.000468
309 0.000467
310 0.000467
311 0.000468
312 0.000470
313 0.000470
314 0.000468
315 0.000467
316 0.000465
317 0.000463
318 0.000462
319 0.000465
320 0.000469
321 0.000475
322 0.000481
323 0.000481
324 0.000480
325 0.000478
326 0.000476
327 0.000476
328 0.000475
329 0.000475
330 0.000480
331 0.000484
332 0.000488
333 0.000490
334 0.000494
335 0.000496
336 0.000498
337 0.000502
338 0.000505
339 0.000505
340 0.000505
341 0.000506
342 0.000504
343 0.000503
344 0.000507
345 0.000509
346 0.000513
347 0.000516
348 0.000520
349 0.000524
350 0.000525
351 0.000523
352 0.000520
353 0.000517
354 0.000515
355 0.000510
356 0.000504
357 0.000501
358 0.000500
359 0.000502
360 0.000503
361 0.000505
362 0.000508
363 0.000513
364 0.000516
365 0.000515
366 0.000517
367 0.000520
368 0.000520
369 0.000521
370 0.000519
371 0.000520
372 0.000520
373 0.000520
374 0.000522
375 0.000523
376 0.000524
377 0.000526
378 0.000527
379 0.000528
380 0.000526
381 0.000526
382 0.000523
383 0.000519
384 0.000515
385 0.000515
386 0.000516
387 0.000519
388 0.000519
389 0.000523
390 0.000528
391 0.000528
392 0.000528
393 0.000526
394 0.000521
395 0.000519
396 0.000518
397 0.000518
398 0.000518
399 0.000517
400 0.000519
401 0.000520
402 0.000518
403 0.000517
404 0.000518
405 0.000524
406 0.000529
407 0.000531
408 0.000531
409 0.000530
410 0.000527
411 0.000522
412 0.000516
413 0.000513
414 0.000507
415 0.000505
416 0.000502
417 0.000502
418 0.000499
419 0.000496
420 0.000492
421 0.000490
422 0.000486
423 0.000485
424 0.000483
425 0.000485
426 0.000482
427 0.000481
428 0.000477
429 0.000477
430 0.000475
431 0.000475
432 0.000481
433 0.000485
434 0.000487
435 0.000487
436 0.000484
437 0.000482
438 0.000482
439 0.000478
440 0.000475
441 0.000472
442 0.000468
443 0.000468
444 0.000471
445 0.000471
446 0.000471
447 0.000470
448 0.000468
449 0.000462
450 0.000457
451 0.000451
452 0.000451
453 0.000449
454 0.000446
455 0.000444
456 0.000443
457 0.000440
458 0.000437
459 0.000431
460 0.000427
461 0.000425
462 0.000423
463 0.000421
464 0.000417
465 0.000417
466 0.000417
467 0.000420
468 0.000421
469 0.000421
470 0.000421
471 0.000421
472 0.000419
473 0.000420
474 0.000418
475 0.000417
476 0.000417
477 0.000418
478 0.000418
479 0.000418
480 0.000421
481 0.000422
482 0.000421
483 0.000419
484 0.000414
485 0.000409
486 0.000404
487 0.000396
488 0.000390
489 0.000384
490 0.000378
491 0.000371
492 0.000364
493 0.000358
494 0.000355
495 0.000355
496 0.000353
497 0.000350
498 0.000345
499 0.000344
500 0.000345
501 0.000343
502 0.000340
503 0.000335
504 0.000333
505 0.000330
506 0.000328
507 0.000327
508 0.000326
509 0.000326
510 0.000323
511 0.000319
512 0.000317
513 0.000313
514 0.000312
515 0.000309
516 0.000305
517 0.000305
518 0.000302
519 0.000301
520 0.000302
521 0.000305
522 0.000306
523 0.000307
524 0.000311
525 0.000312
526 0.000316
527 0.000321
528 0.000320
529 0.000321
530 0.000321
531 0.000320
532 0.000321
533 0.000320
534 0.000318
535 0.000317
536 0.000318
537 0.000317
538 0.000317
539 0.000320
540 0.000322
541 0.000324
542 0.000323
543 0.000321
544 0.000316
545 0.000310
546 0.000305
547 0.000303
548 0.000299
549 0.000296
550 0.000292
551 0.000286
552 0.000281
553 0.000278
554 0.000274
555 0.000271
556 0.000263
557 0.000252
558 0.000243
559 0.000233
560 0.000224
561 0.000219
562 0.000214
563 0.000211
564 0.000210
565 0.000206
566 0.000205
567 0.000206
568 0.000209
569 0.000212
570 0.000213
571 0.000212
572 0.000209
573 0.000207
574 0.000205
575 0.000202
576 0.000200
577 0.000202
578 0.000204
579 0.000208
580 0.000213
581 0.000220
582 0.000221
583 0.000224
584 0.000225
585 0.000224
586 0.000221
587 0.000222
588 0.000223
589 0.000228
590 0.000231
591 0.000235
592 0.000235
593 0.000232
594 0.000229
595 0.000227
596 0.000225
597 0.000222
598 0.000218
599 0.000213
600 0.000209
601 0.000205
602 0.000203
603 0.000201
604 0.000202
605 0.000203
606 0.000205
607 0.000205
608 0.000205
609 0.000208
610 0.000210
611 0.000209
612 0.000207
613 0.000204
614 0.000204
615 0.000204
616 0.000205
617 0.000204
618 0.000204
619 0.000203
620 0.000204
621 0.000204
622 0.000201
623 0.000200
624 0.000196
625 0.000195
626 0.000197
627 0.000197
628 0.000200
629 0.000203
630 0.000207
631 0.000209
632 0.000212
633 0.000211
634 0.000211
635 0.000215
636 0.000216
637 0.000216
638 0.000214
639 0.000212
640 0.000213
641 0.000215
642 0.000217
643 0.000217
644 0.000215
645 0.000215
646 0.000214
647 0.000211
648 0.000208
649 0.000203
650 0.000197
651 0.000192
652 0.000189
653 0.000187
654 0.000184
655 0.000183
656 0.000179
657 0.000178
658 0.000174
659 0.000169
660 0.000166
661 0.000163
662 0.000161
663 0.000164
664 0.000166
665 0.000166
666 0.000167
667 0.000168
668 0.000169
669 0.000169
670 0.000171
671 0.000170
672 0.000168
673 0.000167
674 0.000164
675 0.000162
676 0.000163
677 0.000166
678 0.000168
679 0.000170
680 0.000171
681 0.000173
682 0.000172
683 0.000173
684 0.000173
685 0.000172
686 0.000172
687 0.000170
688 0.000167
689 0.000167
690 0.000166
691 0.000168
692 0.000165
693 0.000164
694 0.000162
695 0.000156
696 0.000152
697 0.000153
698 0.000149
699 0.000146
700 0.000145
701 0.000143
702 0.000142
703 0.000142
704 0.000141
705 0.000142
706 0.000143
707 0.000143
708 0.000139
709 0.000136
710 0.000131
711 0.000131
712 0.000134
713 0.000135
714 0.000134
715 0.000131
716 0.000129
717 0.000130
718 0.000131
719 0.000130
720 0.000129
721 0.000126
722 0.000122
723 0.000117
724 0.000111
725 0.000107
726 0.000107
727 0.000109
728 0.000112
729 0.000113
730 0.000114
731 0.000115
732 0.000114
733 0.000113
734 0.000110
735 0.000108
736 0.000104
737 0.000102
738 0.000101
739 0.000098
740 0.000100
741 0.000101
742 0.000101
743 0.000096
744 0.000092
745 0.000088
746 0.000083
747 0.000079
748 0.000075
749 0.000072
750 0.000066
751 0.000063
752 0.000059
753 0.000062
754 0.000068
755 0.000075
756 0.000081
757 0.000086
758 0.000091
759 0.000097
760 0.000100
761 0.000103
762 0.000104
763 0.000108
764 0.000111
765 0.000115
766 0.000120
767 0.000127
768 0.000132
769 0.000132
770 0.000134
771 0.000132
772 0.000134
773 0.000135
774 0.000136
775 0.000134
776 0.000133
777 0.000131
778 0.000128
779 0.000128
780 0.000126
781 0.000127
782 0.000129
783 0.000131
784 0.000129
785 0.000125
786 0.000121
787 0.000119
788 0.000118
789 0.000115
790 0.000114
791 0.000112
792 0.000110
793 0.000112
794 0.000113
795 0.000114
796 0.000115
797 0.000114
798 0.000114
799 0.000113
800 0.000111
801 0.000107
802 0.000107
803 0.000106
804 0.000104
805 0.000103
806 0.000105
807 0.000105
808 0.000107
809 0.000107
