# i correlation
1 0.001726
2 0.001689
3 0.001655
4 0.001628
5 0.001606
6 0.001583
7 0.001565
8 0.001545
9 0.001527
10 0.001510
11 0.001497
12 0.001484
13 0.001477
14 0.001465
15 0.001456
16 0.001447
17 0.001439
18 0.001432
19 0.001426
20 0.001420
21 0.001415
22 0.001405
23 0.001394
24 0.001384
25 0.001378
26 0.001370
27 0.001361
28 0.001353
29 0.001341
30 0.001331
31 0.001327
32 0.001321
33 0.001315
34 0.001306
35 0.001300
36 0.001293
37 0.001282
38 0.001271
39 0.001266
40 0.001256
41 0.001243
42 0.001232
43 0.001226
44 0.001216
45 0.001208
46 0.001200
47 0.001190
48 0.001181
49 0.001170
50 0.001157
51 0.001149
52 0.001148
53 0.001145
54 0.001140
55 0.001128
56 0.001118
57 0.001109
58 0.001100
59 0.001094
60 0.001086
61 0.001079
62 0.001070
63 0.001065
64 0.001062
65 0.001064
66 0.001063
67 0.001062
68 0.001061
69 0.001059
70 0.001058
71 0.001058
72 0.001060
73 0.001058
74 0.001054
75 0.001050
76 0.001049
77 0.001042
78 0.001040
79 0.001041
80 0.001038
81 0.001035
82 0.001029
83 0.001021
84 0.001020
85 0.001017
86 0.001008
87 0.001006
88 0.001002
89 0.000996
90 0.000987
91 0.000983
92 0.000977
93 0.000974
94 0.000971
95 0.000969
96 0.000966
97 0.000961
98 0.000959
99 0.000954
100 0.000954
101 0.000951
102 0.000949
103 0.000948
104 0.000948
105 0.000945
106 0.000941
107 0.000937
108 0.000934
109 0.000931
110 0.000926
111 0.000924
112 0.000916
113 0.000909
114 0.000904
115 0.000902
116 0.000899
117 0.000892
118 0.000887
119 0.000887
120 0.000885
121 0.000883
122 0.000879
123 0.000873
124 0.000868
125 0.000861
126 0.000856
127 0.000856
128 0.000855
129 0.000854
130 0.000855
131 0.000850
132 0.000849
133 0.000847
134 0.000848
135 0.000847
136 0.000844
137 0.000845
138 0.000841
139 0.000837
140 0.000832
141 0.000830
142 0.000831
143 0.000832
144 0.000832
145 0.000830
146 0.000823
147 0.000816
148 0.000810
149 0.000807
150 0.000801
151 0.000798
152 0.000793
153 0.000788
154 0.000784
155 0.000782
156 0.000785
157 0.000782
158 0.000776
159 0.000770
160 0.000770
161 0.000769
162 0.000764
163 0.000759
164 0.000752
165 0.000750
166 0.000748
167 0.000746
168 0.000744
169 0.000742
170 0.000740
171 0.000736
172 0.000732
173 0.000731
174 0.000734
175 0.000736
176 0.000737
177 0.000732
178 0.000729
179 0.000727
180 0.000725
181 0.000729
182 0.000729
183 0.000730
184 0.000727
185 0.000727
186 0.000726
187 0.000723
188 0.000722
189 0.000721
190 0.000717
191 0.000713
192 0.000707
193 0.000702
194 0.000699
195 0.000699
196 0.000699
197 0.000698
198 0.000696
199 0.000693
200 0.000690
201 0.000686
202 0.000683
203 0.000685
204 0.000681
205 0.000678
206 0.000675
207 0.000674
208 0.000674
209 0.000675
210 0.000680
211 0.000682
212 0.000683
213 0.000683
214 0.000686
215 0.000686
216 0.000683
217 0.000682
218 0.000679
219 0.000675
220 0.000673
221 0.000672
222 0.000670
223 0.000669
224 0.000664
225 0.000659
226 0.000651
227 0.000643
228 0.000641
229 0.000638
230 0.000641
231 0.000639
232 0.000639
233 0.000641
234 0.000646
235 0.000649
236 0.000650
237 0.000651
238 0.000656
239 0.000657
240 0.000659
241 0.000660
242 0.000657
243 0.000655
244 0.000652
245 0.000647
246 0.000644
247 0.000641
248 0.000637
249 0.000635
250 0.000634
251 0.000634
252 0.000633
253 0.000635
254 0.000639
255 0.000641
256 0.000643
257 0.000642
258 0.000639
259 0.000637
260 0.000636
261 0.000636
262 0.000634
263 0.000633
264 0.000635
265 0.000639
266 0.000643
267 0.000646
268 0.000647
269 0.000648
270 0.000648
271 0.000644
272 0.000642
273 0.000639
274 0.000634
275 0.000630
276 0.000629
277 0.000628
278 0.000626
279 0.000624
280 0.000618
281 0.000613
282 0.000608
283 0.000603
284 0.000595
285 0.000587
286 0.000585
287 0.000583
288 0.000584
289 0.000588
290 0.000594
291 0.000600
292 0.000599
293 0.000601
294 0.000607
295 0.000610
296 0.000612
297 0.000614
298 0.000618
299 0.000620
300 0.000622
301 0.000624
302 0.000626
303 0.000626
304 0.000627
305 0.000628
306 0.000626
307 0.000625
308 0.000622
309 0.000620
310 0.000617
311 0.000615
312 0.000614
313 0.000617
314 0.000615
315 0.000615
316 0.000612
317 0.000612
318 0.000609
319 0.000608
320 0.000601
321 0.000593
322 0.000591
323 0.000588
324 0.000580
325 0.000576
326 0.000577
327 0.000572
328 0.000568
329 0.000563
330 0.000563
331 0.000563
332 0.000565
333 0.000567
334 0.000569
335 0.000569
336 0.000567
337 0.000566
338 0.000562
339 0.000556
340 0.000550
341 0.000545
342 0.000541
343 0.000536
344 0.000531
345 0.000529
346 0.000527
347 0.000529
348 0.000529
349 0.000529
350 0.000531
351 0.000533
352 0.000534
353 0.000531
354 0.000532
355 0.000531
356 0.000529
357 0.000524
358 0.000519
359 0.000513
360 0.000507
361 0.000501
362 0.000499
363 0.000494
364 0.000487
365 0.000482
366 0.000478
367 0.000477
368 0.000475
369 0.000473
370 0.000475
371 0.000475
372 0.000474
373 0.000474
374 0.000474
375 0.000473
376 0.000472
377 0.000470
378 0.000468
379 0.000469
380 0.000470
381 0.000472
382 0.000472
383 0.000474
384 0.000474
385 0.000476
386 0.000478
387 0.000477
388 0.000476
389 0.000475
390 0.000475
391 0.000477
392 0.000480
393 0.000481
394 0.000485
395 0.000487
396 0.000486
397 0.000486
398 0.000489
399 0.000490
400 0.000494
401 0.000495
402 0.000495
403 0.000488
404 0.000487
405 0.000486
406 0.000485
407 0.000482
408 0.000478
409 0.000475
410 0.000471
411 0.000467
412 0.000462
413 0.000459
414 0.000458
415 0.000455
416 0.000453
417 0.000452
418 0.000451
419 0.000450
420 0.000446
421 0.000445
422 0.000442
423 0.000440
424 0.000439
425 0.000439
426 0.000440
427 0.000438
428 0.000438
429 0.000433
430 0.000428
431 0.000423
432 0.000419
433 0.000420
434 0.000420
435 0.000422
436 0.000420
437 0.000420
438 0.000422
439 0.000423
440 0.000423
441 0.000425
442 0.000422
443 0.000421
444 0.000420
445 0.000417
446 0.000419
447 0.000418
448 0.000415
449 0.000410
450 0.000411
451 0.000413
452 0.000412
453 0.000412
454 0.000411
455 0.000410
456 0.000407
457 0.000405
458 0.000405
459 0.000405
460 0.000406
461 0.000409
462 0.000410
463 0.000411
464 0.000411
465 0.000412
466 0.000409
467 0.000407
468 0.000405
469 0.000405
470 0.000404
471 0.000401
472 0.000397
473 0.000393
474 0.000394
475 0.000393
476 0.000394
477 0.000393
478 0.000397
479 0.000402
480 0.000404
481 0.000403
482 0.000400
483 0.000400
484 0.000397
485 0.000398
486 0.000402
487 0.000405
488 0.000406
489 0.000409
490 0.000412
491 0.000415
492 0.000416
493 0.000418
494 0.000418
495 0.000415
496 0.000414
497 0.000414
498 0.000414
499 0.000412
500 0.000415
501 0.000414
502 0.000411
503 0.000409
504 0.000409
505 0.000408
506 0.000409
507 0.000409
508 0.000411
509 0.000411
510 0.000408
511 0.000408
512 0.000410
513 0.000413
514 0.000417
515 0.000417
516 0.000421
517 0.000423
518 0.000423
519 0.000421
520 0.000417
521 0.000411
522 0.000409
523 0.000406
524 0.000404
525 0.000399
526 0.000395
527 0.000393
528 0.000394
529 0.000397
530 0.000399
531 0.000399
532 0.000401
533 0.000404
534 0.000409
535 0.000414
536 0.000420
537 0.000426
538 0.000429
539 0.000431
540 0.000430
541 0.000428
542 0.000426
543 0.000427
544 0.000428
545 0.000431
546 0.000433
547 0.000431
548 0.000432
549 0.000433
550 0.000432
551 0.000432
552 0.000427
553 0.000422
554 0.000418
555 0.000415
556 0.000413
557 0.000409
558 0.000407
559 0.000407
560 0.000405
561 0.000405
562 0.000408
563 0.000405
564 0.000399
565 0.000400
566 0.000398
567 0.000401
568 0.000402
569 0.000403
570 0.000407
571 0.000407
572 0.000408
573 0.000409
574 0.000412
575 0.000413
576 0.000412
577 0.000407
578 0.000401
579 0.000391
580 0.000385
581 0.000383
582 0.000381
583 0.000381
584 0.000380
585 0.000379
586 0.000373
587 0.000369
588 0.000367
589 0.000366
590 0.000366
591 0.000363
592 0.000357
593 0.000352
594 0.000345
595 0.000344
596 0.000341
597 0.000336
598 0.000331
599 0.000322
600 0.000316
601 0.000315
602 0.000316
603 0.000318
604 0.000320
605 0.000320
606 0.000318
607 0.000319
608 0.000321
609 0.000325
610 0.000325
611 0.000323
612 0.000319
613 0.000319
614 0.000319
615 0.000319
616 0.000322
617 0.000324
618 0.000324
619 0.000323
620 0.000322
621 0.000322
622 0.000324
623 0.000326
624 0.000330
625 0.000328
626 0.000326
627 0.000327
628 0.000328
629 0.000329
630 0.000332
631 0.000333
632 0.000331
633 0.000329
634 0.000325
635 0.000326
636 0.000327
637 0.000326
638 0.000326
639 0.000328
640 0.000329
641 0.000331
642 0.000328
643 0.000329
644 0.000329
645 0.000326
646 0.000326
647 0.000324
648 0.000325
649 0.000331
650 0.000335
651 0.000336
652 0.000337
653 0.000339
654 0.000341
655 0.000345
656 0.000350
657 0.000354
658 0.000357
659 0.000358
660 0.000360
661 0.000361
662 0.000365
663 0.000365
664 0.000365
665 0.000365
666 0.000362
667 0.000361
668 0.000359
669 0.000358
670 0.000356
671 0.000353
672 0.000349
673 0.000345
674 0.000344
675 0.000342
676 0.000341
677 0.000336
678 0.000332
679 0.000328
680 0.000324
681 0.000323
682 0.000321
683 0.000320
684 0.000319
685 0.000319
686 0.000316
687 0.000312
688 0.000312
689 0.000314
690 0.000314
691 0.000312
692 0.000312
693 0.000311
694 0.000310
695 0.000310
696 0.000309
697 0.000307
698 0.000304
699 0.000301
700 0.000298
701 0.000295
702 0.000292
703 0.000290
704 0.000289
705 0.000289
706 0.000287
707 0.000284
708 0.000280
709 0.000276
710 0.000271
711 0.000267
712 0.000265
713 0.000259
714 0.000254
715 0.000249
716 0.000244
717 0.000242
718 0.000236
719 0.000233
720 0.000229
721 0.000224
722 0.000215
723 0.000208
724 0.000203
725 0.000198
726 0.000195
727 0.000193
728 0.000193
729 0.000192
730 0.000194
731 0.000193
732 0.000193
733 0.000194
734 0.000195
735 0.000196
736 0.000195
737 0.000197
738 0.000196
739 0.000194
740 0.000190
741 0.000189
742 0.000185
743 0.000180
744 0.000177
745 0.000170
746 0.000164
747 0.000158
748 0.000154
749 0.000150
750 0.000145
751 0.000144
752 0.000144
753 0.000142
754 0.000141
755 0.000140
756 0.000141
757 0.000141
758 0.000141
759 0.000143
760 0.000145
761 0.000146
762 0.000143
763 0.000140
764 0.000138
765 0.000135
766 0.000132
767 0.000126
768 0.000120
769 0.000119
770 0.000118
771 0.000116
772 0.000114
773 0.000116
774 0.000116
775 0.000114
776 0.000112
777 0.000111
778 0.000110
779 0.000109
780 0.000110
781 0.000109
782 0.000107
783 0.000105
784 0.000103
785 0.000102
786 0.000098
787 0.000096
788 0.000091
789 0.000087
790 0.000084
791 0.000084
792 0.000083
793 0.000082
794 0.000078
795 0.000077
796 0.000077
797 0.000076
798 0.000075
799 0.000073
800 0.000073
801 0.000073
802 0.000073
803 0.000073
804 0.000071
805 0.000074
806 0.000077
807 0.000076
808 0.000076
809 0.000075
