# i correlation
1 0.001685
2 0.001609
3 0.001539
4 0.001485
5 0.001428
6 0.001384
7 0.001343
8 0.001320
9 0.001300
10 0.001287
11 0.001275
12 0.001254
13 0.001237
14 0.001210
15 0.001185
16 0.001164
17 0.001142
18 0.001124
19 0.001112
20 0.001105
21 0.001097
22 0.001092
23 0.001079
24 0.001076
25 0.001077
26 0.001078
27 0.001082
28 0.001085
29 0.001092
30 0.001100
31 0.001106
32 0.001113
33 0.001125
34 0.001131
35 0.001133
36 0.001135
37 0.001149
38 0.001157
39 0.001154
40 0.001151
41 0.001150
42 0.001152
43 0.001150
44 0.001143
45 0.001128
46 0.001117
47 0.001105
48 0.001101
49 0.001101
50 0.001105
51 0.001101
52 0.001109
53 0.001114
54 0.001116
55 0.001112
56 0.001107
57 0.001095
58 0.001082
59 0.001069
60 0.001060
61 0.001047
62 0.001036
63 0.001033
64 0.001033
65 0.001033
66 0.001032
67 0.001026
68 0.001022
69 0.001024
70 0.001022
71 0.001018
72 0.001012
73 0.001001
74 0.001003
75 0.000995
76 0.000983
77 0.000978
78 0.000966
79 0.000956
80 0.000947
81 0.000935
82 0.000929
83 0.000924
84 0.000919
85 0.000912
86 0.000906
87 0.000909
88 0.000916
89 0.000915
90 0.000921
91 0.000933
92 0.000941
93 0.000941
94 0.000942
95 0.000932
96 0.000922
97 0.000917
98 0.000914
99 0.000909
100 0.000911
101 0.000912
102 0.000919
103 0.000926
104 0.000936
105 0.000943
106 0.000945
107 0.000948
108 0.000940
109 0.000942
110 0.000939
111 0.000932
112 0.000925
113 0.000926
114 0.000928
115 0.000928
116 0.000925
117 0.000918
118 0.000909
119 0.000892
120 0.000878
121 0.000861
122 0.000846
123 0.000835
124 0.000836
125 0.000833
126 0.000830
127 0.000835
128 0.000831
129 0.000827
130 0.000820
131 0.000812
132 0.000807
133 0.000802
134 0.000804
135 0.000801
136 0.000790
137 0.000789
138 0.000795
139 0.000796
140 0.000807
141 0.000807
142 0.000808
143 0.000810
144 0.000822
145 0.000830
146 0.000846
147 0.000858
148 0.000867
149 0.000874
150 0.000870
151 0.000875
152 0.000880
153 0.000883
154 0.000874
155 0.000868
156 0.000868
157 0.000876
158 0.000875
159 0.000882
160 0.000877
161 0.000868
162 0.000865
163 0.000855
164 0.000842
165 0.000826
166 0.000820
167 0.000806
168 0.000801
169 0.000789
170 0.000790
171 0.000794
172 0.000810
173 0.000810
174 0.000810
175 0.000803
176 0.000795
177 0.000795
178 0.000797
179 0.000792
180 0.000786
181 0.000782
182 0.000785
183 0.000790
184 0.000795
185 0.000797
186 0.000796
187 0.000798
188 0.000797
189 0.000795
190 0.000799
191 0.000793
192 0.000788
193 0.000781
194 0.000783
195 0.000779
196 0.000765
197 0.000756
198 0.000754
199 0.000753
200 0.000754
201 0.000762
202 0.000770
203 0.000775
204 0.000779
205 0.000782
206 0.000783
207 0.000785
208 0.000783
209 0.000790
210 0.000793
211 0.000791
212 0.000803
213 0.000812
214 0.000818
215 0.000823
216 0.000833
217 0.000828
218 0.000815
219 0.000802
220 0.000793
221 0.000783
222 0.000779
223 0.000777
224 0.000779
225 0.000775
226 0.000773
227 0.000773
228 0.000772
229 0.000761
230 0.000747
231 0.000731
232 0.000717
233 0.000701
234 0.000683
235 0.000657
236 0.000646
237 0.000642
238 0.000644
239 0.000638
240 0.000632
241 0.000631
242 0.000627
243 0.000634
244 0.000636
245 0.000634
246 0.000632
247 0.000632
248 0.000629
249 0.000627
