# i correlation
1 0.002006
2 0.001938
3 0.001886
4 0.001841
5 0.001792
6 0.001754
7 0.001717
8 0.001670
9 0.001630
10 0.001588
11 0.001550
12 0.001514
13 0.001475
14 0.001435
15 0.001404
16 0.001373
17 0.001344
18 0.001320
19 0.001304
20 0.001295
21 0.001288
22 0.001276
23 0.001261
24 0.001249
25 0.001240
26 0.001232
27 0.001224
28 0.001208
29 0.001190
30 0.001171
31 0.001160
32 0.001154
33 0.001149
34 0.001141
35 0.001133
36 0.001117
37 0.001106
38 0.001097
39 0.001093
40 0.001086
41 0.001085
42 0.001081
43 0.001074
44 0.001073
45 0.001076
46 0.001085
47 0.001095
48 0.001107
49 0.001115
50 0.001111
51 0.001107
52 0.001108
53 0.001107
54 0.001109
55 0.001117
56 0.001118
57 0.001116
58 0.001119
59 0.001114
60 0.001115
61 0.001106
62 0.001100
63 0.001096
64 0.001086
65 0.001080
66 0.001073
67 0.001061
68 0.001049
69 0.001037
70 0.001030
71 0.001030
72 0.001025
73 0.001022
74 0.001020
75 0.001008
76 0.001000
77 0.000989
78 0.000968
79 0.000955
80 0.000942
81 0.000930
82 0.000929
83 0.000929
84 0.000919
85 0.000909
86 0.000902
87 0.000890
88 0.000880
89 0.000870
90 0.000859
91 0.000849
92 0.000835
93 0.000832
94 0.000832
95 0.000831
96 0.000831
97 0.000834
98 0.000840
99 0.000837
100 0.000840
101 0.000839
102 0.000842
103 0.000845
104 0.000844
105 0.000846
106 0.000844
107 0.000843
108 0.000839
109 0.000830
110 0.000826
111 0.000824
112 0.000812
113 0.000802
114 0.000791
115 0.000783
116 0.000774
117 0.000776
118 0.000780
119 0.000778
120 0.000773
121 0.000768
122 0.000757
123 0.000751
124 0.000743
125 0.000733
126 0.000724
127 0.000716
128 0.000709
129 0.000707
130 0.000710
131 0.000709
132 0.000710
133 0.000704
134 0.000705
135 0.000702
136 0.000695
137 0.000685
138 0.000683
139 0.000682
140 0.000675
141 0.000673
142 0.000677
143 0.000666
144 0.000660
145 0.000650
146 0.000648
147 0.000634
148 0.000629
149 0.000620
150 0.000613
151 0.000607
152 0.000603
153 0.000599
154 0.000597
155 0.000597
156 0.000603
157 0.000598
158 0.000592
159 0.000590
160 0.000584
161 0.000574
162 0.000566
163 0.000559
164 0.000551
165 0.000544
166 0.000550
167 0.000549
168 0.000549
169 0.000547
170 0.000539
171 0.000527
172 0.000521
173 0.000513
174 0.000511
175 0.000502
176 0.000505
177 0.000501
178 0.000495
179 0.000495
180 0.000496
181 0.000498
182 0.000494
183 0.000493
184 0.000495
185 0.000493
186 0.000486
187 0.000485
188 0.000482
189 0.000476
190 0.000477
191 0.000473
192 0.000469
193 0.000466
194 0.000459
195 0.000451
196 0.000446
197 0.000437
198 0.000422
199 0.000404
200 0.000392
201 0.000394
202 0.000387
203 0.000385
204 0.000377
205 0.000365
206 0.000352
207 0.000346
208 0.000347
209 0.000357
210 0.000350
211 0.000349
212 0.000344
213 0.000340
214 0.000338
215 0.000336
216 0.000337
217 0.000343
218 0.000349
219 0.000349
220 0.000341
221 0.000337
222 0.000334
223 0.000330
224 0.000330
225 0.000328
226 0.000329
227 0.000323
228 0.000319
229 0.000318
230 0.000319
231 0.000315
232 0.000322
233 0.000324
234 0.000328
235 0.000326
236 0.000328
237 0.000337
238 0.000348
239 0.000360
240 0.000368
241 0.000376
242 0.000395
243 0.000407
244 0.000423
245 0.000434
246 0.000431
247 0.000431
248 0.000432
249 0.000438
