# i correlation
1 0.001799
2 0.001733
3 0.001675
4 0.001627
5 0.001588
6 0.001552
7 0.001520
8 0.001489
9 0.001467
10 0.001446
11 0.001426
12 0.001409
13 0.001393
14 0.001381
15 0.001370
16 0.001358
17 0.001340
18 0.001323
19 0.001304
20 0.001298
21 0.001277
22 0.001264
23 0.001251
24 0.001247
25 0.001235
26 0.001227
27 0.001210
28 0.001197
29 0.001182
30 0.001175
31 0.001171
32 0.001162
33 0.001153
34 0.001143
35 0.001125
36 0.001107
37 0.001091
38 0.001073
39 0.001058
40 0.001044
41 0.001033
42 0.001024
43 0.001011
44 0.001001
45 0.000991
46 0.000981
47 0.000966
48 0.000952
49 0.000934
50 0.000923
51 0.000912
52 0.000893
53 0.000876
54 0.000867
55 0.000865
56 0.000862
57 0.000851
58 0.000847
59 0.000844
60 0.000842
61 0.000837
62 0.000830
63 0.000819
64 0.000809
65 0.000806
66 0.000804
67 0.000804
68 0.000804
69 0.000802
70 0.000799
71 0.000804
72 0.000805
73 0.000801
74 0.000795
75 0.000792
76 0.000786
77 0.000779
78 0.000782
79 0.000786
80 0.000790
81 0.000785
82 0.000780
83 0.000775
84 0.000774
85 0.000774
86 0.000776
87 0.000775
88 0.000779
89 0.000778
90 0.000773
91 0.000775
92 0.000778
93 0.000783
94 0.000778
95 0.000771
96 0.000760
97 0.000746
98 0.000737
99 0.000733
100 0.000732
101 0.000734
102 0.000736
103 0.000740
104 0.000744
105 0.000749
106 0.000762
107 0.000770
108 0.000785
109 0.000789
110 0.000791
111 0.000789
112 0.000783
113 0.000778
114 0.000770
115 0.000766
116 0.000764
117 0.000766
118 0.000762
119 0.000752
120 0.000746
121 0.000743
122 0.000741
123 0.000738
124 0.000736
125 0.000738
126 0.000742
127 0.000745
128 0.000756
129 0.000766
130 0.000772
131 0.000775
132 0.000778
133 0.000780
134 0.000784
135 0.000786
136 0.000783
137 0.000776
138 0.000768
139 0.000765
140 0.000759
141 0.000756
142 0.000752
143 0.000752
144 0.000749
145 0.000742
146 0.000745
147 0.000749
148 0.000748
149 0.000747
150 0.000738
151 0.000730
152 0.000723
153 0.000715
154 0.000704
155 0.000704
156 0.000695
157 0.000691
158 0.000685
159 0.000687
160 0.000685
161 0.000683
162 0.000684
163 0.000693
164 0.000704
165 0.000709
166 0.000710
167 0.000706
168 0.000693
169 0.000680
170 0.000669
171 0.000654
172 0.000647
173 0.000641
174 0.000631
175 0.000618
176 0.000603
177 0.000596
178 0.000591
179 0.000584
180 0.000579
181 0.000575
182 0.000574
183 0.000566
184 0.000563
185 0.000555
186 0.000548
187 0.000541
188 0.000534
189 0.000523
190 0.000513
191 0.000499
192 0.000489
193 0.000485
194 0.000478
195 0.000473
196 0.000463
197 0.000455
198 0.000444
199 0.000427
200 0.000407
201 0.000392
202 0.000387
203 0.000377
204 0.000369
205 0.000356
206 0.000348
207 0.000342
208 0.000348
209 0.000348
210 0.000348
211 0.000346
212 0.000345
213 0.000345
214 0.000346
215 0.000342
216 0.000335
217 0.000332
218 0.000336
219 0.000333
220 0.000338
221 0.000336
222 0.000337
223 0.000340
224 0.000346
225 0.000351
226 0.000345
227 0.000332
228 0.000329
229 0.000323
230 0.000318
231 0.000310
232 0.000306
233 0.000303
234 0.000300
235 0.000306
236 0.000311
237 0.000317
238 0.000326
239 0.000332
240 0.000339
241 0.000341
242 0.000344
243 0.000342
244 0.000341
245 0.000342
246 0.000340
247 0.000334
248 0.000327
249 0.000325
