# i correlation
1 0.001820
2 0.001743
3 0.001672
4 0.001620
5 0.001569
6 0.001525
7 0.001491
8 0.001467
9 0.001443
10 0.001425
11 0.001399
12 0.001378
13 0.001357
14 0.001348
15 0.001345
16 0.001351
17 0.001352
18 0.001340
19 0.001336
20 0.001330
21 0.001319
22 0.001299
23 0.001289
24 0.001284
25 0.001275
26 0.001258
27 0.001248
28 0.001243
29 0.001245
30 0.001240
31 0.001239
32 0.001243
33 0.001246
34 0.001249
35 0.001234
36 0.001226
37 0.001220
38 0.001209
39 0.001192
40 0.001184
41 0.001182
42 0.001176
43 0.001165
44 0.001154
45 0.001153
46 0.001138
47 0.001128
48 0.001120
49 0.001124
50 0.001114
51 0.001108
52 0.001098
53 0.001091
54 0.001078
55 0.001061
56 0.001043
57 0.001043
58 0.001039
59 0.001040
60 0.001031
61 0.001037
62 0.001037
63 0.001035
64 0.001034
65 0.001034
66 0.001028
67 0.001018
68 0.001014
69 0.001013
70 0.001013
71 0.001007
72 0.001001
73 0.001001
74 0.000996
75 0.000993
76 0.000979
77 0.000970
78 0.000962
79 0.000954
80 0.000949
81 0.000955
82 0.000969
83 0.000977
84 0.000982
85 0.000983
86 0.000979
87 0.000968
88 0.000952
89 0.000941
90 0.000939
91 0.000935
92 0.000934
93 0.000927
94 0.000914
95 0.000894
96 0.000874
97 0.000854
98 0.000845
99 0.000838
100 0.000835
101 0.000837
102 0.000849
103 0.000859
104 0.000868
105 0.000865
106 0.000866
107 0.000862
108 0.000853
109 0.000846
110 0.000840
111 0.000830
112 0.000822
113 0.000807
114 0.000796
115 0.000778
116 0.000768
117 0.000764
118 0.000768
119 0.000772
120 0.000781
121 0.000786
122 0.000799
123 0.000806
124 0.000808
125 0.000799
126 0.000798
127 0.000797
128 0.000795
129 0.000785
130 0.000771
131 0.000756
132 0.000743
133 0.000735
134 0.000733
135 0.000737
136 0.000739
137 0.000738
138 0.000738
139 0.000744
140 0.000748
141 0.000750
142 0.000753
143 0.000762
144 0.000759
145 0.000760
146 0.000752
147 0.000748
148 0.000741
149 0.000738
150 0.000735
151 0.000743
152 0.000749
153 0.000747
154 0.000735
155 0.000733
156 0.000731
157 0.000721
158 0.000714
159 0.000716
160 0.000720
161 0.000718
162 0.000713
163 0.000715
164 0.000714
165 0.000717
166 0.000722
167 0.000724
168 0.000740
169 0.000751
170 0.000749
171 0.000754
172 0.000757
173 0.000761
174 0.000753
175 0.000753
176 0.000755
177 0.000748
178 0.000737
179 0.000726
180 0.000709
181 0.000686
182 0.000668
183 0.000654
184 0.000653
185 0.000654
186 0.000650
187 0.000650
188 0.000653
189 0.000658
190 0.000662
191 0.000661
192 0.000669
193 0.000683
194 0.000693
195 0.000695
196 0.000694
197 0.000703
198 0.000704
199 0.000702
200 0.000697
201 0.000699
202 0.000701
203 0.000697
204 0.000696
205 0.000693
206 0.000688
207 0.000676
208 0.000665
209 0.000661
210 0.000660
211 0.000659
212 0.000660
213 0.000667
214 0.000677
215 0.000677
216 0.000679
217 0.000674
218 0.000679
219 0.000666
220 0.000653
221 0.000652
222 0.000648
223 0.000638
224 0.000630
225 0.000633
226 0.000645
227 0.000655
228 0.000655
229 0.000651
230 0.000654
231 0.000650
232 0.000647
233 0.000642
234 0.000643
235 0.000654
236 0.000658
237 0.000664
238 0.000668
239 0.000662
240 0.000651
241 0.000645
242 0.000647
243 0.000651
244 0.000646
245 0.000646
246 0.000653
247 0.000658
248 0.000655
249 0.000647
