# i correlation
1 0.001649
2 0.001571
3 0.001499
4 0.001430
5 0.001378
6 0.001336
7 0.001304
8 0.001282
9 0.001264
10 0.001247
11 0.001227
12 0.001204
13 0.001178
14 0.001155
15 0.001142
16 0.001135
17 0.001137
18 0.001134
19 0.001131
20 0.001137
21 0.001139
22 0.001132
23 0.001123
24 0.001115
25 0.001110
26 0.001105
27 0.001112
28 0.001127
29 0.001142
30 0.001155
31 0.001152
32 0.001151
33 0.001143
34 0.001132
35 0.001123
36 0.001120
37 0.001127
38 0.001132
39 0.001134
40 0.001126
41 0.001118
42 0.001110
43 0.001111
44 0.001108
45 0.001113
46 0.001110
47 0.001104
48 0.001102
49 0.001093
50 0.001080
51 0.001074
52 0.001066
53 0.001055
54 0.001052
55 0.001051
56 0.001050
57 0.001053
58 0.001056
59 0.001054
60 0.001060
61 0.001066
62 0.001067
63 0.001067
64 0.001069
65 0.001075
66 0.001078
67 0.001074
68 0.001071
69 0.001061
70 0.001050
71 0.001045
72 0.001041
73 0.001042
74 0.001036
75 0.001040
76 0.001043
77 0.001051
78 0.001048
79 0.001045
80 0.001047
81 0.001052
82 0.001056
83 0.001063
84 0.001065
85 0.001061
86 0.001052
87 0.001039
88 0.001028
89 0.001018
90 0.001017
91 0.001021
92 0.001016
93 0.001017
94 0.001018
95 0.001008
96 0.000999
97 0.000999
98 0.000999
99 0.001010
100 0.001016
101 0.001022
102 0.001029
103 0.001031
104 0.001037
105 0.001042
106 0.001028
107 0.001013
108 0.001005
109 0.001002
110 0.000999
111 0.001001
112 0.001001
113 0.000997
114 0.000997
115 0.000997
116 0.000992
117 0.000986
118 0.000974
119 0.000962
120 0.000961
121 0.000957
122 0.000945
123 0.000944
124 0.000947
125 0.000949
126 0.000942
127 0.000936
128 0.000929
129 0.000925
130 0.000924
131 0.000922
132 0.000929
133 0.000929
134 0.000928
135 0.000916
136 0.000902
137 0.000895
138 0.000889
139 0.000892
140 0.000902
141 0.000917
142 0.000929
143 0.000931
144 0.000921
145 0.000914
146 0.000909
147 0.000905
148 0.000908
149 0.000923
150 0.000932
151 0.000941
152 0.000950
153 0.000953
154 0.000952
155 0.000947
156 0.000938
157 0.000929
158 0.000916
159 0.000904
160 0.000895
161 0.000888
162 0.000888
163 0.000888
164 0.000888
165 0.000885
166 0.000869
167 0.000851
168 0.000835
169 0.000827
170 0.000837
171 0.000846
172 0.000857
173 0.000866
174 0.000872
175 0.000874
176 0.000876
177 0.000869
178 0.000866
179 0.000858
180 0.000856
181 0.000850
182 0.000850
183 0.000847
184 0.000845
185 0.000851
186 0.000852
187 0.000851
188 0.000858
189 0.000857
190 0.000860
191 0.000864
192 0.000869
193 0.000875
194 0.000871
195 0.000861
196 0.000850
197 0.000836
198 0.000825
199 0.000812
200 0.000805
201 0.000797
202 0.000798
203 0.000797
204 0.000791
205 0.000782
206 0.000772
207 0.000770
208 0.000772
209 0.000779
210 0.000784
211 0.000787
212 0.000777
213 0.000775
214 0.000774
215 0.000776
216 0.000777
217 0.000773
218 0.000773
219 0.000778
220 0.000781
221 0.000781
222 0.000788
223 0.000788
224 0.000779
225 0.000778
226 0.000775
227 0.000763
228 0.000751
229 0.000740
230 0.000732
231 0.000728
232 0.000725
233 0.000724
234 0.000710
235 0.000697
236 0.000694
237 0.000692
238 0.000688
239 0.000691
240 0.000698
241 0.000705
242 0.000703
243 0.000702
244 0.000691
245 0.000681
246 0.000675
247 0.000673
248 0.000670
249 0.000671
