# i correlation
1 0.001864
2 0.001787
3 0.001726
4 0.001672
5 0.001627
6 0.001598
7 0.001575
8 0.001547
9 0.001516
10 0.001483
11 0.001462
12 0.001447
13 0.001427
14 0.001422
15 0.001418
16 0.001411
17 0.001411
18 0.001412
19 0.001405
20 0.001397
21 0.001390
22 0.001385
23 0.001379
24 0.001382
25 0.001370
26 0.001369
27 0.001360
28 0.001355
29 0.001345
30 0.001332
31 0.001328
32 0.001320
33 0.001307
34 0.001289
35 0.001275
36 0.001266
37 0.001251
38 0.001237
39 0.001218
40 0.001198
41 0.001181
42 0.001173
43 0.001164
44 0.001145
45 0.001131
46 0.001119
47 0.001111
48 0.001101
49 0.001093
50 0.001093
51 0.001101
52 0.001112
53 0.001122
54 0.001141
55 0.001150
56 0.001149
57 0.001151
58 0.001145
59 0.001143
60 0.001134
61 0.001124
62 0.001112
63 0.001098
64 0.001093
65 0.001078
66 0.001059
67 0.001046
68 0.001037
69 0.001040
70 0.001038
71 0.001045
72 0.001047
73 0.001045
74 0.001045
75 0.001050
76 0.001051
77 0.001043
78 0.001043
79 0.001043
80 0.001035
81 0.001028
82 0.001018
83 0.001008
84 0.001002
85 0.000997
86 0.000996
87 0.000996
88 0.001000
89 0.000992
90 0.000987
91 0.000973
92 0.000956
93 0.000939
94 0.000930
95 0.000924
96 0.000924
97 0.000923
98 0.000921
99 0.000906
100 0.000895
101 0.000882
102 0.000880
103 0.000880
104 0.000882
105 0.000877
106 0.000869
107 0.000863
108 0.000852
109 0.000838
110 0.000829
111 0.000821
112 0.000813
113 0.000803
114 0.000802
115 0.000805
116 0.000805
117 0.000796
118 0.000791
119 0.000778
120 0.000765
121 0.000762
122 0.000769
123 0.000778
124 0.000790
125 0.000799
126 0.000806
127 0.000801
128 0.000810
129 0.000822
130 0.000841
131 0.000853
132 0.000855
133 0.000859
134 0.000869
135 0.000868
136 0.000867
137 0.000862
138 0.000846
139 0.000837
140 0.000831
141 0.000826
142 0.000821
143 0.000815
144 0.000810
145 0.000803
146 0.000802
147 0.000803
148 0.000795
149 0.000794
150 0.000800
151 0.000805
152 0.000809
153 0.000812
154 0.000822
155 0.000830
156 0.000832
157 0.000836
158 0.000840
159 0.000837
160 0.000834
161 0.000831
162 0.000828
163 0.000819
164 0.000809
165 0.000805
166 0.000795
167 0.000787
168 0.000778
169 0.000768
170 0.000752
171 0.000737
172 0.000725
173 0.000718
174 0.000708
175 0.000700
176 0.000691
177 0.000682
178 0.000671
179 0.000661
180 0.000652
181 0.000643
182 0.000643
183 0.000645
184 0.000646
185 0.000649
186 0.000648
187 0.000642
188 0.000635
189 0.000636
190 0.000627
191 0.000630
192 0.000625
193 0.000620
194 0.000619
195 0.000609
196 0.000603
197 0.000597
198 0.000591
199 0.000586
200 0.000578
201 0.000574
202 0.000561
203 0.000552
204 0.000547
205 0.000545
206 0.000542
207 0.000540
208 0.000547
209 0.000555
210 0.000559
211 0.000559
212 0.000554
213 0.000561
214 0.000564
215 0.000569
216 0.000575
217 0.000573
218 0.000572
219 0.000570
220 0.000566
221 0.000563
222 0.000567
223 0.000567
224 0.000558
225 0.000552
226 0.000546
227 0.000545
228 0.000548
229 0.000556
230 0.000560
231 0.000553
232 0.000556
233 0.000558
234 0.000559
235 0.000557
236 0.000557
237 0.000564
238 0.000566
239 0.000568
240 0.000572
241 0.000576
242 0.000576
243 0.000572
244 0.000571
245 0.000567
246 0.000569
247 0.000568
248 0.000569
249 0.000565
