# i correlation
1 0.001813
2 0.001736
3 0.001667
4 0.001606
5 0.001556
6 0.001521
7 0.001490
8 0.001454
9 0.001424
10 0.001393
11 0.001363
12 0.001341
13 0.001317
14 0.001290
15 0.001273
16 0.001256
17 0.001245
18 0.001242
19 0.001240
20 0.001242
21 0.001237
22 0.001228
23 0.001216
24 0.001211
25 0.001204
26 0.001194
27 0.001189
28 0.001189
29 0.001188
30 0.001186
31 0.001180
32 0.001180
33 0.001169
34 0.001159
35 0.001148
36 0.001152
37 0.001151
38 0.001152
39 0.001155
40 0.001158
41 0.001160
42 0.001157
43 0.001151
44 0.001148
45 0.001135
46 0.001122
47 0.001119
48 0.001110
49 0.001103
50 0.001105
51 0.001103
52 0.001093
53 0.001088
54 0.001084
55 0.001085
56 0.001087
57 0.001087
58 0.001082
59 0.001080
60 0.001080
61 0.001083
62 0.001083
63 0.001078
64 0.001067
65 0.001059
66 0.001047
67 0.001039
68 0.001041
69 0.001033
70 0.001024
71 0.001020
72 0.001010
73 0.000998
74 0.000982
75 0.000976
76 0.000969
77 0.000964
78 0.000963
79 0.000962
80 0.000965
81 0.000976
82 0.000987
83 0.001000
84 0.001014
85 0.001018
86 0.001021
87 0.001018
88 0.001018
89 0.001013
90 0.001005
91 0.000989
92 0.000973
93 0.000961
94 0.000946
95 0.000936
96 0.000932
97 0.000933
98 0.000933
99 0.000928
100 0.000922
101 0.000915
102 0.000922
103 0.000926
104 0.000930
105 0.000927
106 0.000921
107 0.000914
108 0.000907
109 0.000900
110 0.000889
111 0.000881
112 0.000872
113 0.000868
114 0.000872
115 0.000877
116 0.000874
117 0.000874
118 0.000876
119 0.000876
120 0.000878
121 0.000876
122 0.000875
123 0.000873
124 0.000870
125 0.000863
126 0.000857
127 0.000851
128 0.000849
129 0.000845
130 0.000846
131 0.000842
132 0.000834
133 0.000822
134 0.000814
135 0.000813
136 0.000823
137 0.000828
138 0.000824
139 0.000824
140 0.000816
141 0.000808
142 0.000806
143 0.000812
144 0.000814
145 0.000821
146 0.000824
147 0.000814
148 0.000791
149 0.000772
150 0.000764
151 0.000758
152 0.000752
153 0.000746
154 0.000736
155 0.000723
156 0.000716
157 0.000722
158 0.000721
159 0.000720
160 0.000715
161 0.000709
162 0.000701
163 0.000694
164 0.000696
165 0.000708
166 0.000722
167 0.000734
168 0.000750
169 0.000762
170 0.000763
171 0.000772
172 0.000775
173 0.000775
174 0.000778
175 0.000788
176 0.000792
177 0.000800
178 0.000806
179 0.000811
180 0.000821
181 0.000827
182 0.000829
183 0.000834
184 0.000832
185 0.000821
186 0.000820
187 0.000822
188 0.000817
189 0.000818
190 0.000815
191 0.000814
192 0.000803
193 0.000803
194 0.000796
195 0.000788
196 0.000771
197 0.000752
198 0.000729
199 0.000708
200 0.000697
201 0.000689
202 0.000684
203 0.000671
204 0.000661
205 0.000653
206 0.000649
207 0.000655
208 0.000660
209 0.000663
210 0.000660
211 0.000645
212 0.000636
213 0.000636
214 0.000632
215 0.000626
216 0.000614
217 0.000604
218 0.000603
219 0.000606
220 0.000615
221 0.000620
222 0.000624
223 0.000627
224 0.000629
225 0.000637
226 0.000645
227 0.000657
228 0.000670
229 0.000681
230 0.000691
231 0.000696
232 0.000694
233 0.000696
234 0.000703
235 0.000707
236 0.000706
237 0.000702
238 0.000693
239 0.000689
240 0.000686
241 0.000679
242 0.000668
243 0.000661
244 0.000657
245 0.000653
246 0.000648
247 0.000646
248 0.000646
249 0.000657
