# i correlation
1 0.001853
2 0.001783
3 0.001727
4 0.001683
5 0.001641
6 0.001605
7 0.001578
8 0.001556
9 0.001540
10 0.001524
11 0.001513
12 0.001502
13 0.001485
14 0.001461
15 0.001437
16 0.001409
17 0.001389
18 0.001368
19 0.001356
20 0.001343
21 0.001337
22 0.001324
23 0.001311
24 0.001304
25 0.001292
26 0.001285
27 0.001280
28 0.001276
29 0.001270
30 0.001262
31 0.001264
32 0.001259
33 0.001259
34 0.001265
35 0.001270
36 0.001274
37 0.001266
38 0.001264
39 0.001264
40 0.001268
41 0.001271
42 0.001269
43 0.001272
44 0.001281
45 0.001286
46 0.001288
47 0.001295
48 0.001297
49 0.001300
50 0.001298
51 0.001286
52 0.001275
53 0.001257
54 0.001236
55 0.001220
56 0.001201
57 0.001178
58 0.001162
59 0.001148
60 0.001137
61 0.001131
62 0.001130
63 0.001130
64 0.001136
65 0.001137
66 0.001136
67 0.001126
68 0.001109
69 0.001094
70 0.001078
71 0.001070
72 0.001062
73 0.001060
74 0.001057
75 0.001052
76 0.001038
77 0.001033
78 0.001033
79 0.001033
80 0.001028
81 0.001016
82 0.001019
83 0.001027
84 0.001041
85 0.001049
86 0.001046
87 0.001041
88 0.001030
89 0.001016
90 0.000998
91 0.000979
92 0.000967
93 0.000959
94 0.000948
95 0.000952
96 0.000955
97 0.000955
98 0.000954
99 0.000955
100 0.000956
101 0.000947
102 0.000937
103 0.000931
104 0.000919
105 0.000912
106 0.000905
107 0.000904
108 0.000900
109 0.000899
110 0.000903
111 0.000910
112 0.000913
113 0.000919
114 0.000923
115 0.000921
116 0.000923
117 0.000925
118 0.000928
119 0.000929
120 0.000929
121 0.000918
122 0.000915
123 0.000910
124 0.000906
125 0.000900
126 0.000894
127 0.000893
128 0.000897
129 0.000900
130 0.000900
131 0.000901
132 0.000905
133 0.000905
134 0.000907
135 0.000904
136 0.000905
137 0.000903
138 0.000900
139 0.000890
140 0.000889
141 0.000883
142 0.000873
143 0.000866
144 0.000869
145 0.000867
146 0.000862
147 0.000862
148 0.000865
149 0.000873
150 0.000877
151 0.000879
152 0.000878
153 0.000876
154 0.000874
155 0.000870
156 0.000856
157 0.000849
158 0.000843
159 0.000843
160 0.000833
161 0.000832
162 0.000830
163 0.000824
164 0.000819
165 0.000814
166 0.000802
167 0.000796
168 0.000793
169 0.000788
170 0.000781
171 0.000768
172 0.000765
173 0.000751
174 0.000736
175 0.000729
176 0.000725
177 0.000718
178 0.000712
179 0.000713
180 0.000719
181 0.000721
182 0.000719
183 0.000725
184 0.000734
185 0.000748
186 0.000755
187 0.000755
188 0.000749
189 0.000751
190 0.000749
191 0.000747
192 0.000744
193 0.000746
194 0.000736
195 0.000738
196 0.000745
197 0.000751
198 0.000759
199 0.000773
200 0.000785
201 0.000789
202 0.000797
203 0.000800
204 0.000800
205 0.000795
206 0.000792
207 0.000790
208 0.000785
209 0.000774
210 0.000761
211 0.000761
212 0.000762
213 0.000758
214 0.000758
215 0.000753
216 0.000741
217 0.000734
218 0.000722
219 0.000716
220 0.000709
221 0.000706
222 0.000697
223 0.000690
224 0.000683
225 0.000681
226 0.000677
227 0.000677
228 0.000668
229 0.000665
230 0.000667
231 0.000675
232 0.000676
233 0.000685
234 0.000695
235 0.000699
236 0.000705
237 0.000708
238 0.000712
239 0.000710
240 0.000713
241 0.000712
242 0.000712
243 0.000721
244 0.000720
245 0.000720
246 0.000719
247 0.000726
248 0.000728
249 0.000731
