# i correlation
1 0.001648
2 0.001564
3 0.001478
4 0.001396
5 0.001322
6 0.001261
7 0.001213
8 0.001179
9 0.001142
10 0.001107
11 0.001090
12 0.001069
13 0.001052
14 0.001041
15 0.001035
16 0.001035
17 0.001032
18 0.001020
19 0.001017
20 0.001001
21 0.000989
22 0.000983
23 0.000976
24 0.000975
25 0.000966
26 0.000955
27 0.000946
28 0.000939
29 0.000929
30 0.000921
31 0.000921
32 0.000922
33 0.000926
34 0.000925
35 0.000927
36 0.000931
37 0.000932
38 0.000928
39 0.000919
40 0.000898
41 0.000888
42 0.000862
43 0.000850
44 0.000834
45 0.000827
46 0.000825
47 0.000815
48 0.000805
49 0.000803
50 0.000809
51 0.000815
52 0.000827
53 0.000843
54 0.000851
55 0.000848
56 0.000837
57 0.000832
58 0.000826
59 0.000813
60 0.000808
61 0.000805
62 0.000803
63 0.000791
64 0.000780
65 0.000781
66 0.000778
67 0.000776
68 0.000776
69 0.000790
70 0.000794
71 0.000790
72 0.000792
73 0.000783
74 0.000784
75 0.000780
76 0.000772
77 0.000765
78 0.000760
79 0.000753
80 0.000744
81 0.000731
82 0.000722
83 0.000722
84 0.000724
85 0.000723
86 0.000722
87 0.000718
88 0.000712
89 0.000708
90 0.000700
91 0.000699
92 0.000694
93 0.000693
94 0.000684
95 0.000677
96 0.000675
97 0.000652
98 0.000641
99 0.000628
100 0.000626
101 0.000621
102 0.000618
103 0.000619
104 0.000634
105 0.000644
106 0.000652
107 0.000677
108 0.000690
109 0.000697
110 0.000695
111 0.000694
112 0.000695
113 0.000690
114 0.000680
115 0.000677
116 0.000671
117 0.000657
118 0.000654
119 0.000644
120 0.000636
121 0.000624
122 0.000613
123 0.000611
124 0.000610
125 0.000597
126 0.000596
127 0.000593
128 0.000594
129 0.000602
130 0.000598
131 0.000604
132 0.000615
133 0.000620
134 0.000623
135 0.000620
136 0.000622
137 0.000629
138 0.000630
139 0.000633
140 0.000642
141 0.000640
142 0.000637
143 0.000638
144 0.000644
145 0.000657
146 0.000671
147 0.000675
148 0.000682
149 0.000678
150 0.000669
151 0.000664
152 0.000661
153 0.000664
154 0.000666
155 0.000661
156 0.000655
157 0.000657
158 0.000659
159 0.000649
160 0.000633
161 0.000623
162 0.000613
163 0.000604
164 0.000592
165 0.000596
166 0.000588
167 0.000585
168 0.000578
169 0.000583
170 0.000584
171 0.000576
172 0.000570
173 0.000565
174 0.000556
175 0.000543
176 0.000538
177 0.000539
178 0.000538
179 0.000529
180 0.000518
181 0.000514
182 0.000508
183 0.000505
184 0.000507
185 0.000513
186 0.000525
187 0.000542
188 0.000553
189 0.000572
190 0.000586
191 0.000600
192 0.000609
193 0.000612
194 0.000615
195 0.000613
196 0.000610
197 0.000607
198 0.000607
199 0.000596
200 0.000595
201 0.000589
202 0.000581
203 0.000569
204 0.000555
205 0.000536
206 0.000527
207 0.000517
208 0.000512
209 0.000508
210 0.000497
211 0.000490
212 0.000485
213 0.000479
214 0.000481
215 0.000488
216 0.000494
217 0.000492
218 0.000487
219 0.000487
220 0.000479
221 0.000463
222 0.000458
223 0.000459
224 0.000460
225 0.000467
226 0.000462
227 0.000465
228 0.000464
229 0.000456
230 0.000455
231 0.000457
232 0.000459
233 0.000462
234 0.000461
235 0.000463
236 0.000470
237 0.000469
238 0.000463
239 0.000456
240 0.000439
241 0.000430
242 0.000425
243 0.000423
244 0.000423
245 0.000416
246 0.000415
247 0.000421
248 0.000417
249 0.000415
