# i correlation
1 0.001814
2 0.001733
3 0.001663
4 0.001614
5 0.001578
6 0.001550
7 0.001522
8 0.001500
9 0.001490
10 0.001472
11 0.001453
12 0.001427
13 0.001409
14 0.001390
15 0.001383
16 0.001381
17 0.001378
18 0.001373
19 0.001363
20 0.001357
21 0.001350
22 0.001340
23 0.001336
24 0.001342
25 0.001356
26 0.001362
27 0.001361
28 0.001359
29 0.001362
30 0.001360
31 0.001355
32 0.001338
33 0.001324
34 0.001305
35 0.001287
36 0.001268
37 0.001240
38 0.001222
39 0.001202
40 0.001181
41 0.001165
42 0.001156
43 0.001152
44 0.001150
45 0.001140
46 0.001122
47 0.001108
48 0.001093
49 0.001083
50 0.001081
51 0.001090
52 0.001095
53 0.001104
54 0.001104
55 0.001107
56 0.001102
57 0.001089
58 0.001070
59 0.001059
60 0.001065
61 0.001069
62 0.001067
63 0.001058
64 0.001058
65 0.001045
66 0.001034
67 0.001013
68 0.000994
69 0.000977
70 0.000958
71 0.000944
72 0.000933
73 0.000927
74 0.000926
75 0.000923
76 0.000923
77 0.000926
78 0.000930
79 0.000928
80 0.000928
81 0.000930
82 0.000928
83 0.000925
84 0.000925
85 0.000928
86 0.000933
87 0.000938
88 0.000934
89 0.000935
90 0.000935
91 0.000936
92 0.000931
93 0.000930
94 0.000927
95 0.000928
96 0.000923
97 0.000923
98 0.000917
99 0.000913
100 0.000899
101 0.000892
102 0.000883
103 0.000883
104 0.000883
105 0.000879
106 0.000875
107 0.000877
108 0.000880
109 0.000875
110 0.000879
111 0.000871
112 0.000860
113 0.000850
114 0.000846
115 0.000848
116 0.000859
117 0.000872
118 0.000877
119 0.000875
120 0.000873
121 0.000877
122 0.000874
123 0.000869
124 0.000855
125 0.000840
126 0.000835
127 0.000834
128 0.000837
129 0.000833
130 0.000821
131 0.000807
132 0.000799
133 0.000794
134 0.000786
135 0.000764
136 0.000746
137 0.000742
138 0.000732
139 0.000729
140 0.000728
141 0.000727
142 0.000731
143 0.000740
144 0.000750
145 0.000746
146 0.000747
147 0.000742
148 0.000744
149 0.000747
150 0.000752
151 0.000755
152 0.000753
153 0.000749
154 0.000742
155 0.000733
156 0.000716
157 0.000708
158 0.000708
159 0.000709
160 0.000713
161 0.000717
162 0.000709
163 0.000695
164 0.000682
165 0.000673
166 0.000669
167 0.000663
168 0.000663
169 0.000658
170 0.000668
171 0.000686
172 0.000700
173 0.000703
174 0.000702
175 0.000701
176 0.000700
177 0.000699
178 0.000704
179 0.000706
180 0.000706
181 0.000705
182 0.000696
183 0.000691
184 0.000686
185 0.000674
186 0.000662
187 0.000653
188 0.000652
189 0.000648
190 0.000656
191 0.000653
192 0.000646
193 0.000632
194 0.000626
195 0.000626
196 0.000628
197 0.000624
198 0.000618
199 0.000619
200 0.000616
201 0.000614
202 0.000606
203 0.000596
204 0.000598
205 0.000613
206 0.000632
207 0.000636
208 0.000638
209 0.000634
210 0.000633
211 0.000636
212 0.000636
213 0.000634
214 0.000633
215 0.000636
216 0.000630
217 0.000627
218 0.000620
219 0.000610
220 0.000597
221 0.000592
222 0.000588
223 0.000588
224 0.000587
225 0.000588
226 0.000595
227 0.000597
228 0.000593
229 0.000581
230 0.000574
231 0.000573
232 0.000577
233 0.000578
234 0.000587
235 0.000600
236 0.000612
237 0.000622
238 0.000624
239 0.000626
240 0.000619
241 0.000619
242 0.000612
243 0.000608
244 0.000606
245 0.000607
246 0.000604
247 0.000607
248 0.000607
249 0.000608
