# i correlation
1 0.002009
2 0.001928
3 0.001856
4 0.001802
5 0.001756
6 0.001709
7 0.001668
8 0.001637
9 0.001611
10 0.001590
11 0.001571
12 0.001556
13 0.001541
14 0.001522
15 0.001502
16 0.001484
17 0.001477
18 0.001466
19 0.001455
20 0.001450
21 0.001445
22 0.001441
23 0.001438
24 0.001433
25 0.001418
26 0.001403
27 0.001389
28 0.001380
29 0.001368
30 0.001357
31 0.001347
32 0.001334
33 0.001329
34 0.001320
35 0.001316
36 0.001317
37 0.001317
38 0.001307
39 0.001303
40 0.001286
41 0.001270
42 0.001256
43 0.001234
44 0.001214
45 0.001190
46 0.001178
47 0.001159
48 0.001152
49 0.001147
50 0.001149
51 0.001150
52 0.001144
53 0.001147
54 0.001150
55 0.001157
56 0.001157
57 0.001154
58 0.001149
59 0.001141
60 0.001138
61 0.001137
62 0.001131
63 0.001125
64 0.001124
65 0.001118
66 0.001121
67 0.001116
68 0.001104
69 0.001088
70 0.001083
71 0.001077
72 0.001072
73 0.001070
74 0.001069
75 0.001070
76 0.001064
77 0.001059
78 0.001064
79 0.001063
80 0.001067
81 0.001069
82 0.001067
83 0.001065
84 0.001066
85 0.001073
86 0.001068
87 0.001063
88 0.001047
89 0.001034
90 0.001035
91 0.001041
92 0.001039
93 0.001035
94 0.001034
95 0.001035
96 0.001036
97 0.001038
98 0.001027
99 0.001024
100 0.001020
101 0.001020
102 0.001024
103 0.001031
104 0.001035
105 0.001041
106 0.001043
107 0.001038
108 0.001018
109 0.001000
110 0.000987
111 0.000982
112 0.000981
113 0.000981
114 0.000984
115 0.000989
116 0.000988
117 0.000981
118 0.000977
119 0.000975
120 0.000972
121 0.000972
122 0.000967
123 0.000954
124 0.000953
125 0.000943
126 0.000938
127 0.000938
128 0.000936
129 0.000924
130 0.000913
131 0.000899
132 0.000873
133 0.000854
134 0.000828
135 0.000816
136 0.000807
137 0.000798
138 0.000792
139 0.000790
140 0.000786
141 0.000786
142 0.000789
143 0.000783
144 0.000771
145 0.000760
146 0.000751
147 0.000740
148 0.000746
149 0.000746
150 0.000747
151 0.000742
152 0.000743
153 0.000750
154 0.000754
155 0.000751
156 0.000747
157 0.000750
158 0.000757
159 0.000758
160 0.000762
161 0.000768
162 0.000765
163 0.000766
164 0.000758
165 0.000760
166 0.000771
167 0.000780
168 0.000782
169 0.000779
170 0.000780
171 0.000778
172 0.000781
173 0.000784
174 0.000779
175 0.000769
176 0.000758
177 0.000754
178 0.000752
179 0.000757
180 0.000761
181 0.000771
182 0.000770
183 0.000769
184 0.000761
185 0.000759
186 0.000757
187 0.000753
188 0.000746
189 0.000733
190 0.000728
191 0.000718
192 0.000707
193 0.000691
194 0.000674
195 0.000658
196 0.000650
197 0.000651
198 0.000640
199 0.000626
200 0.000616
201 0.000603
202 0.000600
203 0.000604
204 0.000598
205 0.000610
206 0.000619
207 0.000626
208 0.000629
209 0.000633
210 0.000631
211 0.000626
212 0.000622
213 0.000608
214 0.000595
215 0.000585
216 0.000575
217 0.000564
218 0.000560
219 0.000561
220 0.000566
221 0.000568
222 0.000568
223 0.000575
224 0.000577
225 0.000577
226 0.000575
227 0.000579
228 0.000582
229 0.000576
230 0.000569
231 0.000567
232 0.000567
233 0.000577
234 0.000587
235 0.000583
236 0.000591
237 0.000598
238 0.000599
239 0.000603
240 0.000596
241 0.000596
242 0.000594
243 0.000592
244 0.000586
245 0.000596
246 0.000597
247 0.000601
248 0.000593
249 0.000584
