# i correlation
1 0.001926
2 0.001851
3 0.001784
4 0.001731
5 0.001694
6 0.001665
7 0.001640
8 0.001609
9 0.001590
10 0.001567
11 0.001544
12 0.001538
13 0.001522
14 0.001519
15 0.001503
16 0.001497
17 0.001489
18 0.001480
19 0.001477
20 0.001467
21 0.001448
22 0.001429
23 0.001424
24 0.001418
25 0.001414
26 0.001411
27 0.001403
28 0.001393
29 0.001382
30 0.001375
31 0.001361
32 0.001348
33 0.001341
34 0.001343
35 0.001341
36 0.001350
37 0.001342
38 0.001330
39 0.001322
40 0.001317
41 0.001316
42 0.001317
43 0.001315
44 0.001314
45 0.001315
46 0.001328
47 0.001331
48 0.001342
49 0.001339
50 0.001330
51 0.001320
52 0.001309
53 0.001307
54 0.001299
55 0.001292
56 0.001286
57 0.001276
58 0.001268
59 0.001256
60 0.001255
61 0.001246
62 0.001233
63 0.001229
64 0.001214
65 0.001217
66 0.001210
67 0.001203
68 0.001205
69 0.001209
70 0.001207
71 0.001197
72 0.001198
73 0.001188
74 0.001177
75 0.001172
76 0.001170
77 0.001160
78 0.001156
79 0.001151
80 0.001149
81 0.001148
82 0.001158
83 0.001158
84 0.001159
85 0.001153
86 0.001147
87 0.001139
88 0.001138
89 0.001141
90 0.001145
91 0.001148
92 0.001145
93 0.001137
94 0.001132
95 0.001136
96 0.001157
97 0.001167
98 0.001174
99 0.001184
100 0.001185
101 0.001181
102 0.001179
103 0.001178
104 0.001178
105 0.001172
106 0.001167
107 0.001162
108 0.001161
109 0.001157
110 0.001155
111 0.001145
112 0.001132
113 0.001117
114 0.001107
115 0.001102
116 0.001094
117 0.001075
118 0.001055
119 0.001039
120 0.001019
121 0.001007
122 0.000994
123 0.000987
124 0.000977
125 0.000976
126 0.000980
127 0.000985
128 0.000995
129 0.000999
130 0.000996
131 0.000984
132 0.000971
133 0.000962
134 0.000951
135 0.000954
136 0.000958
137 0.000959
138 0.000962
139 0.000962
140 0.000966
141 0.000965
142 0.000967
143 0.000962
144 0.000959
145 0.000960
146 0.000960
147 0.000963
148 0.000962
149 0.000952
150 0.000950
151 0.000944
152 0.000936
153 0.000929
154 0.000936
155 0.000928
156 0.000929
157 0.000926
158 0.000919
159 0.000914
160 0.000905
161 0.000893
162 0.000883
163 0.000870
164 0.000867
165 0.000862
166 0.000858
167 0.000849
168 0.000836
169 0.000818
170 0.000803
171 0.000793
172 0.000788
173 0.000787
174 0.000788
175 0.000787
176 0.000792
177 0.000796
178 0.000794
179 0.000794
180 0.000791
181 0.000789
182 0.000786
183 0.000786
184 0.000790
185 0.000776
186 0.000773
187 0.000773
188 0.000772
189 0.000771
190 0.000781
191 0.000783
192 0.000785
193 0.000780
194 0.000764
195 0.000757
196 0.000757
197 0.000758
198 0.000766
199 0.000771
200 0.000773
201 0.000776
202 0.000779
203 0.000780
204 0.000781
205 0.000778
206 0.000781
207 0.000787
208 0.000779
209 0.000770
210 0.000767
211 0.000771
212 0.000765
213 0.000759
214 0.000752
215 0.000744
216 0.000740
217 0.000731
218 0.000732
219 0.000736
220 0.000735
221 0.000725
222 0.000718
223 0.000722
224 0.000729
225 0.000743
226 0.000751
227 0.000757
228 0.000754
229 0.000752
230 0.000743
231 0.000727
232 0.000717
233 0.000700
234 0.000691
235 0.000683
236 0.000680
237 0.000670
238 0.000669
239 0.000672
240 0.000671
241 0.000668
242 0.000661
243 0.000661
244 0.000669
245 0.000677
246 0.000681
247 0.000683
248 0.000684
249 0.000685
