# i correlation
1 0.001813
2 0.001726
3 0.001644
4 0.001574
5 0.001510
6 0.001449
7 0.001399
8 0.001366
9 0.001336
10 0.001321
11 0.001303
12 0.001275
13 0.001256
14 0.001235
15 0.001218
16 0.001202
17 0.001180
18 0.001160
19 0.001144
20 0.001137
21 0.001134
22 0.001119
23 0.001104
24 0.001086
25 0.001062
26 0.001042
27 0.001026
28 0.000994
29 0.000975
30 0.000955
31 0.000944
32 0.000939
33 0.000938
34 0.000931
35 0.000921
36 0.000907
37 0.000901
38 0.000894
39 0.000885
40 0.000878
41 0.000875
42 0.000874
43 0.000877
44 0.000884
45 0.000886
46 0.000884
47 0.000879
48 0.000874
49 0.000872
50 0.000864
51 0.000854
52 0.000848
53 0.000844
54 0.000843
55 0.000846
56 0.000847
57 0.000853
58 0.000857
59 0.000861
60 0.000855
61 0.000841
62 0.000836
63 0.000828
64 0.000828
65 0.000832
66 0.000831
67 0.000828
68 0.000824
69 0.000820
70 0.000824
71 0.000825
72 0.000820
73 0.000817
74 0.000810
75 0.000807
76 0.000801
77 0.000787
78 0.000781
79 0.000773
80 0.000765
81 0.000755
82 0.000740
83 0.000728
84 0.000715
85 0.000710
86 0.000703
87 0.000689
88 0.000677
89 0.000666
90 0.000659
91 0.000665
92 0.000675
93 0.000679
94 0.000693
95 0.000701
96 0.000706
97 0.000713
98 0.000713
99 0.000710
100 0.000702
101 0.000689
102 0.000677
103 0.000666
104 0.000651
105 0.000644
106 0.000641
107 0.000637
108 0.000641
109 0.000642
110 0.000643
111 0.000633
112 0.000631
113 0.000636
114 0.000634
115 0.000632
116 0.000633
117 0.000629
118 0.000627
119 0.000627
120 0.000619
121 0.000604
122 0.000594
123 0.000595
124 0.000599
125 0.000590
126 0.000588
127 0.000592
128 0.000587
129 0.000580
130 0.000571
131 0.000559
132 0.000544
133 0.000526
134 0.000516
135 0.000512
136 0.000499
137 0.000495
138 0.000488
139 0.000488
140 0.000490
141 0.000495
142 0.000491
143 0.000488
144 0.000485
145 0.000483
146 0.000470
147 0.000457
148 0.000441
149 0.000426
150 0.000422
151 0.000422
152 0.000421
153 0.000414
154 0.000421
155 0.000427
156 0.000447
157 0.000455
158 0.000462
159 0.000467
160 0.000474
161 0.000481
162 0.000494
163 0.000503
164 0.000509
165 0.000518
166 0.000524
167 0.000532
168 0.000539
169 0.000533
170 0.000535
171 0.000537
172 0.000545
173 0.000550
174 0.000551
175 0.000560
176 0.000567
177 0.000569
178 0.000573
179 0.000571
180 0.000572
181 0.000577
182 0.000575
183 0.000571
184 0.000559
185 0.000537
186 0.000527
187 0.000508
188 0.000498
189 0.000493
190 0.000491
191 0.000490
192 0.000486
193 0.000484
194 0.000485
195 0.000491
196 0.000486
197 0.000481
198 0.000480
199 0.000487
200 0.000494
201 0.000502
202 0.000509
203 0.000520
204 0.000529
205 0.000537
206 0.000540
207 0.000542
208 0.000538
209 0.000524
210 0.000513
211 0.000503
212 0.000493
213 0.000499
214 0.000501
215 0.000512
216 0.000527
217 0.000530
218 0.000529
219 0.000523
220 0.000522
221 0.000525
222 0.000533
223 0.000536
224 0.000535
225 0.000529
226 0.000529
227 0.000529
228 0.000529
229 0.000523
230 0.000514
231 0.000497
232 0.000494
233 0.000502
234 0.000507
235 0.000506
236 0.000510
237 0.000516
238 0.000518
239 0.000520
240 0.000523
241 0.000509
242 0.000501
243 0.000500
244 0.000492
245 0.000483
246 0.000478
247 0.000476
248 0.000486
249 0.000485
