# i correlation
1 0.002094
2 0.002016
3 0.001947
4 0.001894
5 0.001851
6 0.001816
7 0.001785
8 0.001753
9 0.001729
10 0.001703
11 0.001683
12 0.001660
13 0.001639
14 0.001623
15 0.001609
16 0.001591
17 0.001581
18 0.001579
19 0.001572
20 0.001556
21 0.001537
22 0.001522
23 0.001509
24 0.001507
25 0.001513
26 0.001512
27 0.001508
28 0.001508
29 0.001499
30 0.001488
31 0.001467
32 0.001457
33 0.001455
34 0.001446
35 0.001434
36 0.001428
37 0.001424
38 0.001418
39 0.001411
40 0.001402
41 0.001395
42 0.001383
43 0.001370
44 0.001363
45 0.001354
46 0.001339
47 0.001324
48 0.001311
49 0.001303
50 0.001300
51 0.001300
52 0.001298
53 0.001295
54 0.001295
55 0.001295
56 0.001298
57 0.001298
58 0.001301
59 0.001293
60 0.001292
61 0.001289
62 0.001287
63 0.001288
64 0.001288
65 0.001288
66 0.001280
67 0.001279
68 0.001269
69 0.001268
70 0.001274
71 0.001277
72 0.001278
73 0.001279
74 0.001280
75 0.001280
76 0.001276
77 0.001267
78 0.001262
79 0.001252
80 0.001242
81 0.001242
82 0.001245
83 0.001245
84 0.001252
85 0.001254
86 0.001249
87 0.001246
88 0.001238
89 0.001233
90 0.001223
91 0.001213
92 0.001203
93 0.001193
94 0.001174
95 0.001155
96 0.001131
97 0.001110
98 0.001097
99 0.001093
100 0.001081
101 0.001068
102 0.001060
103 0.001051
104 0.001039
105 0.001026
106 0.001020
107 0.001014
108 0.001008
109 0.001009
110 0.001011
111 0.001011
112 0.001010
113 0.001008
114 0.001006
115 0.001006
116 0.001000
117 0.001000
118 0.000993
119 0.000984
120 0.000985
121 0.000988
122 0.000992
123 0.000993
124 0.000994
125 0.001001
126 0.001008
127 0.001018
128 0.001023
129 0.001027
130 0.001028
131 0.001022
132 0.001013
133 0.000996
134 0.000973
135 0.000958
136 0.000941
137 0.000935
138 0.000922
139 0.000914
140 0.000911
141 0.000915
142 0.000928
143 0.000942
144 0.000949
145 0.000956
146 0.000956
147 0.000955
148 0.000963
149 0.000977
150 0.000996
151 0.001008
152 0.001013
153 0.001007
154 0.001002
155 0.001010
156 0.001014
157 0.001023
158 0.001031
159 0.001035
160 0.001031
161 0.001028
162 0.001021
163 0.001014
164 0.001007
165 0.000998
166 0.000997
167 0.001002
168 0.001011
169 0.001021
170 0.001031
171 0.001033
172 0.001022
173 0.001009
174 0.001007
175 0.001006
176 0.001005
177 0.001005
178 0.001010
179 0.001005
180 0.000996
181 0.000989
182 0.000985
183 0.000981
184 0.000985
185 0.000989
186 0.000993
187 0.000996
188 0.000993
189 0.000995
190 0.000988
191 0.000986
192 0.000981
193 0.000973
194 0.000963
195 0.000955
196 0.000945
197 0.000938
198 0.000932
199 0.000927
200 0.000931
201 0.000930
202 0.000930
203 0.000930
204 0.000929
205 0.000924
206 0.000913
207 0.000905
208 0.000897
209 0.000894
210 0.000892
211 0.000887
212 0.000892
213 0.000892
214 0.000896
215 0.000899
216 0.000901
217 0.000893
218 0.000883
219 0.000879
220 0.000868
221 0.000864
222 0.000861
223 0.000848
224 0.000835
225 0.000828
226 0.000819
227 0.000807
228 0.000802
229 0.000805
230 0.000804
231 0.000810
232 0.000812
233 0.000824
234 0.000835
235 0.000843
236 0.000851
237 0.000854
238 0.000857
239 0.000857
240 0.000860
241 0.000862
242 0.000869
243 0.000870
244 0.000873
245 0.000874
246 0.000864
247 0.000844
248 0.000829
249 0.000822
