# i correlation
1 0.001742
2 0.001672
3 0.001619
4 0.001560
5 0.001498
6 0.001451
7 0.001408
8 0.001367
9 0.001335
10 0.001316
11 0.001309
12 0.001295
13 0.001285
14 0.001274
15 0.001257
16 0.001229
17 0.001211
18 0.001205
19 0.001202
20 0.001190
21 0.001183
22 0.001180
23 0.001175
24 0.001179
25 0.001185
26 0.001183
27 0.001176
28 0.001174
29 0.001169
30 0.001164
31 0.001160
32 0.001157
33 0.001159
34 0.001163
35 0.001155
36 0.001161
37 0.001167
38 0.001164
39 0.001160
40 0.001147
41 0.001129
42 0.001113
43 0.001098
44 0.001078
45 0.001065
46 0.001053
47 0.001049
48 0.001050
49 0.001048
50 0.001045
51 0.001047
52 0.001049
53 0.001042
54 0.001035
55 0.001032
56 0.001023
57 0.001007
58 0.001005
59 0.000994
60 0.000988
61 0.000992
62 0.000991
63 0.000988
64 0.000988
65 0.000980
66 0.000978
67 0.000973
68 0.000955
69 0.000933
70 0.000920
71 0.000900
72 0.000877
73 0.000862
74 0.000849
75 0.000834
76 0.000828
77 0.000825
78 0.000817
79 0.000808
80 0.000804
81 0.000805
82 0.000803
83 0.000795
84 0.000792
85 0.000793
86 0.000798
87 0.000807
88 0.000824
89 0.000840
90 0.000850
91 0.000868
92 0.000886
93 0.000881
94 0.000880
95 0.000878
96 0.000873
97 0.000866
98 0.000857
99 0.000845
100 0.000841
101 0.000835
102 0.000832
103 0.000833
104 0.000820
105 0.000807
106 0.000797
107 0.000790
108 0.000773
109 0.000767
110 0.000774
111 0.000775
112 0.000773
113 0.000774
114 0.000776
115 0.000773
116 0.000775
117 0.000770
118 0.000764
119 0.000760
120 0.000753
121 0.000747
122 0.000746
123 0.000739
124 0.000726
125 0.000730
126 0.000734
127 0.000730
128 0.000731
129 0.000730
130 0.000728
131 0.000721
132 0.000709
133 0.000705
134 0.000703
135 0.000701
136 0.000697
137 0.000695
138 0.000691
139 0.000689
140 0.000695
141 0.000701
142 0.000697
143 0.000687
144 0.000677
145 0.000669
146 0.000658
147 0.000649
148 0.000646
149 0.000644
150 0.000645
151 0.000645
152 0.000644
153 0.000643
154 0.000640
155 0.000639
156 0.000634
157 0.000620
158 0.000619
159 0.000619
160 0.000613
161 0.000601
162 0.000595
163 0.000586
164 0.000582
165 0.000577
166 0.000570
167 0.000565
168 0.000567
169 0.000565
170 0.000562
171 0.000559
172 0.000551
173 0.000552
174 0.000557
175 0.000553
176 0.000552
177 0.000554
178 0.000558
179 0.000568
180 0.000581
181 0.000589
182 0.000595
183 0.000601
184 0.000611
185 0.000606
186 0.000608
187 0.000606
188 0.000602
189 0.000585
190 0.000569
191 0.000561
192 0.000557
193 0.000556
194 0.000556
195 0.000557
196 0.000548
197 0.000537
198 0.000535
199 0.000531
200 0.000524
201 0.000518
202 0.000516
203 0.000516
204 0.000516
205 0.000523
206 0.000528
207 0.000545
208 0.000552
209 0.000550
210 0.000547
211 0.000538
212 0.000532
213 0.000525
214 0.000511
215 0.000493
216 0.000483
217 0.000476
218 0.000464
219 0.000451
220 0.000445
221 0.000433
222 0.000425
223 0.000419
224 0.000417
225 0.000415
226 0.000417
227 0.000415
228 0.000413
229 0.000416
230 0.000421
231 0.000430
232 0.000433
233 0.000433
234 0.000432
235 0.000437
236 0.000440
237 0.000441
238 0.000447
239 0.000452
240 0.000450
241 0.000450
242 0.000454
243 0.000457
244 0.000466
245 0.000466
246 0.000469
247 0.000474
248 0.000474
249 0.000474
