# i correlation
1 0.001998
2 0.001923
3 0.001856
4 0.001793
5 0.001740
6 0.001687
7 0.001636
8 0.001605
9 0.001565
10 0.001538
11 0.001520
12 0.001498
13 0.001480
14 0.001466
15 0.001457
16 0.001457
17 0.001461
18 0.001469
19 0.001474
20 0.001471
21 0.001465
22 0.001456
23 0.001435
24 0.001422
25 0.001405
26 0.001383
27 0.001361
28 0.001346
29 0.001331
30 0.001324
31 0.001316
32 0.001306
33 0.001289
34 0.001272
35 0.001259
36 0.001254
37 0.001254
38 0.001246
39 0.001243
40 0.001233
41 0.001224
42 0.001208
43 0.001190
44 0.001159
45 0.001130
46 0.001110
47 0.001096
48 0.001085
49 0.001090
50 0.001082
51 0.001081
52 0.001092
53 0.001089
54 0.001092
55 0.001095
56 0.001097
57 0.001107
58 0.001106
59 0.001095
60 0.001096
61 0.001090
62 0.001077
63 0.001052
64 0.001029
65 0.001008
66 0.000978
67 0.000957
68 0.000947
69 0.000934
70 0.000926
71 0.000923
72 0.000914
73 0.000916
74 0.000921
75 0.000922
76 0.000923
77 0.000922
78 0.000920
79 0.000923
80 0.000926
81 0.000924
82 0.000922
83 0.000908
84 0.000898
85 0.000887
86 0.000873
87 0.000845
88 0.000831
89 0.000820
90 0.000811
91 0.000808
92 0.000818
93 0.000827
94 0.000832
95 0.000842
96 0.000847
97 0.000854
98 0.000855
99 0.000852
100 0.000849
101 0.000841
102 0.000833
103 0.000834
104 0.000832
105 0.000831
106 0.000825
107 0.000817
108 0.000804
109 0.000793
110 0.000789
111 0.000786
112 0.000781
113 0.000782
114 0.000789
115 0.000798
116 0.000803
117 0.000808
118 0.000805
119 0.000798
120 0.000790
121 0.000776
122 0.000768
123 0.000770
124 0.000768
125 0.000762
126 0.000750
127 0.000745
128 0.000753
129 0.000757
130 0.000759
131 0.000763
132 0.000764
133 0.000769
134 0.000777
135 0.000788
136 0.000800
137 0.000804
138 0.000809
139 0.000815
140 0.000815
141 0.000816
142 0.000813
143 0.000811
144 0.000817
145 0.000822
146 0.000831
147 0.000838
148 0.000844
149 0.000847
150 0.000854
151 0.000847
152 0.000847
153 0.000847
154 0.000847
155 0.000851
156 0.000853
157 0.000852
158 0.000854
159 0.000848
160 0.000844
161 0.000839
162 0.000837
163 0.000831
164 0.000823
165 0.000825
166 0.000831
167 0.000838
168 0.000837
169 0.000829
170 0.000824
171 0.000820
172 0.000821
173 0.000815
174 0.000816
175 0.000812
176 0.000808
177 0.000806
178 0.000802
179 0.000795
180 0.000798
181 0.000798
182 0.000798
183 0.000795
184 0.000795
185 0.000803
186 0.000801
187 0.000803
188 0.000817
189 0.000829
190 0.000833
191 0.000843
192 0.000846
193 0.000851
194 0.000847
195 0.000844
196 0.000843
197 0.000849
198 0.000855
199 0.000870
200 0.000882
201 0.000888
202 0.000890
203 0.000889
204 0.000888
205 0.000889
206 0.000887
207 0.000889
208 0.000890
209 0.000896
210 0.000906
211 0.000910
212 0.000907
213 0.000899
214 0.000895
215 0.000894
216 0.000890
217 0.000887
218 0.000871
219 0.000864
220 0.000859
221 0.000851
222 0.000843
223 0.000844
224 0.000838
225 0.000830
226 0.000818
227 0.000812
228 0.000811
229 0.000806
230 0.000807
231 0.000807
232 0.000804
233 0.000797
234 0.000796
235 0.000789
236 0.000784
237 0.000776
238 0.000774
239 0.000768
240 0.000764
241 0.000760
242 0.000763
243 0.000759
244 0.000755
245 0.000745
246 0.000742
247 0.000734
248 0.000734
249 0.000734
