# i correlation
1 0.001599
2 0.001520
3 0.001446
4 0.001382
5 0.001331
6 0.001277
7 0.001243
8 0.001205
9 0.001167
10 0.001140
11 0.001117
12 0.001095
13 0.001084
14 0.001072
15 0.001064
16 0.001051
17 0.001047
18 0.001033
19 0.001028
20 0.001023
21 0.001016
22 0.001010
23 0.000997
24 0.000989
25 0.000981
26 0.000975
27 0.000968
28 0.000958
29 0.000950
30 0.000939
31 0.000932
32 0.000919
33 0.000908
34 0.000895
35 0.000882
36 0.000874
37 0.000863
38 0.000848
39 0.000834
40 0.000819
41 0.000806
42 0.000802
43 0.000807
44 0.000816
45 0.000816
46 0.000817
47 0.000815
48 0.000821
49 0.000826
50 0.000839
51 0.000846
52 0.000830
53 0.000816
54 0.000797
55 0.000790
56 0.000788
57 0.000795
58 0.000804
59 0.000811
60 0.000818
61 0.000825
62 0.000826
63 0.000827
64 0.000829
65 0.000824
66 0.000813
67 0.000808
68 0.000809
69 0.000813
70 0.000820
71 0.000831
72 0.000832
73 0.000833
74 0.000834
75 0.000839
76 0.000841
77 0.000845
78 0.000839
79 0.000845
80 0.000849
81 0.000853
82 0.000862
83 0.000859
84 0.000869
85 0.000877
86 0.000892
87 0.000914
88 0.000923
89 0.000925
90 0.000925
91 0.000918
92 0.000926
93 0.000928
94 0.000933
95 0.000943
96 0.000949
97 0.000958
98 0.000958
99 0.000958
100 0.000950
101 0.000944
102 0.000941
103 0.000930
104 0.000917
105 0.000902
106 0.000890
107 0.000878
108 0.000866
109 0.000853
110 0.000822
111 0.000792
112 0.000767
113 0.000747
114 0.000739
115 0.000740
116 0.000744
117 0.000749
118 0.000748
119 0.000756
120 0.000775
121 0.000784
122 0.000787
123 0.000785
124 0.000777
125 0.000765
126 0.000753
127 0.000735
128 0.000724
129 0.000708
130 0.000695
131 0.000690
132 0.000681
133 0.000673
134 0.000660
135 0.000651
136 0.000649
137 0.000654
138 0.000658
139 0.000657
140 0.000649
141 0.000637
142 0.000629
143 0.000624
144 0.000627
145 0.000634
146 0.000641
147 0.000651
148 0.000661
149 0.000678
150 0.000690
151 0.000692
152 0.000701
153 0.000705
154 0.000712
155 0.000709
156 0.000710
157 0.000717
158 0.000718
159 0.000724
160 0.000724
161 0.000712
162 0.000698
163 0.000683
164 0.000673
165 0.000668
166 0.000671
167 0.000678
168 0.000685
169 0.000692
170 0.000700
171 0.000713
172 0.000720
173 0.000723
174 0.000721
175 0.000716
176 0.000709
177 0.000699
178 0.000689
179 0.000688
180 0.000683
181 0.000684
182 0.000681
183 0.000674
184 0.000672
185 0.000671
186 0.000668
187 0.000663
188 0.000664
189 0.000668
190 0.000673
191 0.000681
192 0.000684
193 0.000680
194 0.000683
195 0.000695
196 0.000705
197 0.000707
198 0.000705
199 0.000701
200 0.000693
201 0.000690
202 0.000689
203 0.000681
204 0.000674
205 0.000670
206 0.000662
207 0.000664
208 0.000658
209 0.000643
210 0.000633
211 0.000616
212 0.000605
213 0.000587
214 0.000571
215 0.000562
216 0.000547
217 0.000534
218 0.000527
219 0.000521
220 0.000515
221 0.000512
222 0.000514
223 0.000524
224 0.000529
225 0.000537
226 0.000534
227 0.000527
228 0.000521
229 0.000520
230 0.000519
231 0.000516
232 0.000522
233 0.000521
234 0.000519
235 0.000518
236 0.000526
237 0.000529
238 0.000531
239 0.000540
240 0.000551
241 0.000562
242 0.000569
243 0.000570
244 0.000579
245 0.000592
246 0.000610
247 0.000621
248 0.000625
249 0.000621
