# i correlation
1 0.002055
2 0.001957
3 0.001873
4 0.001799
5 0.001753
6 0.001716
7 0.001675
8 0.001639
9 0.001619
10 0.001607
11 0.001601
12 0.001586
13 0.001576
14 0.001558
15 0.001542
16 0.001535
17 0.001527
18 0.001527
19 0.001519
20 0.001515
21 0.001502
22 0.001486
23 0.001470
24 0.001451
25 0.001428
26 0.001406
27 0.001393
28 0.001396
29 0.001404
30 0.001411
31 0.001415
32 0.001419
33 0.001419
34 0.001417
35 0.001419
36 0.001413
37 0.001396
38 0.001397
39 0.001395
40 0.001392
41 0.001384
42 0.001369
43 0.001348
44 0.001337
45 0.001325
46 0.001308
47 0.001293
48 0.001288
49 0.001285
50 0.001284
51 0.001294
52 0.001308
53 0.001313
54 0.001322
55 0.001332
56 0.001330
57 0.001331
58 0.001335
59 0.001335
60 0.001331
61 0.001319
62 0.001309
63 0.001300
64 0.001301
65 0.001310
66 0.001323
67 0.001324
68 0.001324
69 0.001315
70 0.001302
71 0.001288
72 0.001278
73 0.001277
74 0.001275
75 0.001270
76 0.001272
77 0.001267
78 0.001261
79 0.001250
80 0.001240
81 0.001227
82 0.001219
83 0.001212
84 0.001207
85 0.001197
86 0.001181
87 0.001176
88 0.001160
89 0.001152
90 0.001148
91 0.001139
92 0.001140
93 0.001146
94 0.001152
95 0.001150
96 0.001150
97 0.001160
98 0.001164
99 0.001164
100 0.001162
101 0.001155
102 0.001143
103 0.001131
104 0.001133
105 0.001131
106 0.001124
107 0.001111
108 0.001098
109 0.001090
110 0.001089
111 0.001088
112 0.001094
113 0.001096
114 0.001106
115 0.001127
116 0.001148
117 0.001163
118 0.001166
119 0.001152
120 0.001142
121 0.001124
122 0.001113
123 0.001103
124 0.001093
125 0.001083
126 0.001082
127 0.001072
128 0.001078
129 0.001073
130 0.001066
131 0.001058
132 0.001059
133 0.001061
134 0.001061
135 0.001052
136 0.001048
137 0.001053
138 0.001057
139 0.001062
140 0.001070
141 0.001068
142 0.001063
143 0.001055
144 0.001054
145 0.001055
146 0.001062
147 0.001055
148 0.001048
149 0.001040
150 0.001036
151 0.001033
152 0.001028
153 0.001014
154 0.001007
155 0.000994
156 0.000985
157 0.000989
158 0.000985
159 0.000982
160 0.000981
161 0.000973
162 0.000963
163 0.000954
164 0.000940
165 0.000917
166 0.000898
167 0.000888
168 0.000884
169 0.000887
170 0.000899
171 0.000909
172 0.000919
173 0.000919
174 0.000921
175 0.000920
176 0.000910
177 0.000898
178 0.000894
179 0.000888
180 0.000881
181 0.000886
182 0.000887
183 0.000883
184 0.000893
185 0.000900
186 0.000897
187 0.000892
188 0.000888
189 0.000879
190 0.000888
191 0.000899
192 0.000917
193 0.000929
194 0.000927
195 0.000919
196 0.000909
197 0.000888
198 0.000885
199 0.000879
200 0.000861
201 0.000847
202 0.000836
203 0.000829
204 0.000823
205 0.000826
206 0.000835
207 0.000832
208 0.000830
209 0.000829
210 0.000833
211 0.000842
212 0.000854
213 0.000856
214 0.000860
215 0.000860
216 0.000858
217 0.000859
218 0.000850
219 0.000837
220 0.000826
221 0.000817
222 0.000809
223 0.000805
224 0.000800
225 0.000795
226 0.000797
227 0.000796
228 0.000793
229 0.000786
230 0.000790
231 0.000790
232 0.000782
233 0.000773
234 0.000766
235 0.000760
236 0.000755
237 0.000751
238 0.000742
239 0.000733
240 0.000726
241 0.000723
242 0.000723
243 0.000724
244 0.000733
245 0.000734
246 0.000740
247 0.000743
248 0.000746
249 0.000746
