# i correlation
1 0.001988
2 0.001894
3 0.001815
4 0.001738
5 0.001668
6 0.001612
7 0.001559
8 0.001508
9 0.001470
10 0.001431
11 0.001399
12 0.001370
13 0.001342
14 0.001310
15 0.001287
16 0.001266
17 0.001244
18 0.001228
19 0.001221
20 0.001210
21 0.001203
22 0.001199
23 0.001192
24 0.001176
25 0.001165
26 0.001158
27 0.001152
28 0.001143
29 0.001130
30 0.001122
31 0.001119
32 0.001118
33 0.001117
34 0.001122
35 0.001133
36 0.001153
37 0.001176
38 0.001186
39 0.001190
40 0.001202
41 0.001203
42 0.001188
43 0.001174
44 0.001153
45 0.001133
46 0.001105
47 0.001076
48 0.001052
49 0.001027
50 0.001012
51 0.000989
52 0.000974
53 0.000968
54 0.000969
55 0.000965
56 0.000959
57 0.000956
58 0.000945
59 0.000932
60 0.000926
61 0.000916
62 0.000901
63 0.000897
64 0.000887
65 0.000868
66 0.000859
67 0.000850
68 0.000850
69 0.000847
70 0.000846
71 0.000852
72 0.000863
73 0.000870
74 0.000879
75 0.000889
76 0.000892
77 0.000891
78 0.000883
79 0.000881
80 0.000878
81 0.000880
82 0.000887
83 0.000896
84 0.000905
85 0.000909
86 0.000910
87 0.000914
88 0.000918
89 0.000914
90 0.000908
91 0.000903
92 0.000897
93 0.000895
94 0.000899
95 0.000897
96 0.000897
97 0.000900
98 0.000895
99 0.000883
100 0.000881
101 0.000884
102 0.000884
103 0.000892
104 0.000892
105 0.000886
106 0.000880
107 0.000881
108 0.000885
109 0.000886
110 0.000878
111 0.000872
112 0.000873
113 0.000877
114 0.000870
115 0.000867
116 0.000868
117 0.000868
118 0.000872
119 0.000874
120 0.000878
121 0.000879
122 0.000883
123 0.000888
124 0.000899
125 0.000908
126 0.000910
127 0.000920
128 0.000927
129 0.000936
130 0.000936
131 0.000940
132 0.000941
133 0.000932
134 0.000932
135 0.000932
136 0.000922
137 0.000901
138 0.000886
139 0.000870
140 0.000863
141 0.000864
142 0.000868
143 0.000870
144 0.000879
145 0.000886
146 0.000884
147 0.000880
148 0.000876
149 0.000867
150 0.000859
151 0.000847
152 0.000838
153 0.000830
154 0.000826
155 0.000826
156 0.000823
157 0.000818
158 0.000817
159 0.000815
160 0.000805
161 0.000803
162 0.000792
163 0.000792
164 0.000786
165 0.000785
166 0.000782
167 0.000785
168 0.000789
169 0.000798
170 0.000800
171 0.000798
172 0.000805
173 0.000800
174 0.000790
175 0.000780
176 0.000776
177 0.000770
178 0.000757
179 0.000739
180 0.000725
181 0.000724
182 0.000729
183 0.000739
184 0.000745
185 0.000749
186 0.000745
187 0.000728
188 0.000709
189 0.000698
190 0.000684
191 0.000675
192 0.000673
193 0.000670
194 0.000660
195 0.000662
196 0.000663
197 0.000666
198 0.000663
199 0.000662
200 0.000662
201 0.000655
202 0.000645
203 0.000634
204 0.000623
205 0.000615
206 0.000613
207 0.000610
208 0.000603
209 0.000593
210 0.000581
211 0.000563
212 0.000550
213 0.000541
214 0.000537
215 0.000534
216 0.000530
217 0.000526
218 0.000530
219 0.000533
220 0.000528
221 0.000521
222 0.000518
223 0.000514
224 0.000514
225 0.000519
226 0.000537
227 0.000561
228 0.000577
229 0.000599
230 0.000610
231 0.000624
232 0.000641
233 0.000656
234 0.000665
235 0.000669
236 0.000682
237 0.000698
238 0.000723
239 0.000737
240 0.000755
241 0.000769
242 0.000778
243 0.000781
244 0.000784
245 0.000789
246 0.000781
247 0.000777
248 0.000764
249 0.000750
