# i correlation
1 0.001844
2 0.001758
3 0.001693
4 0.001642
5 0.001595
6 0.001556
7 0.001535
8 0.001514
9 0.001488
10 0.001464
11 0.001454
12 0.001446
13 0.001434
14 0.001417
15 0.001398
16 0.001380
17 0.001359
18 0.001339
19 0.001325
20 0.001316
21 0.001308
22 0.001308
23 0.001304
24 0.001303
25 0.001294
26 0.001288
27 0.001277
28 0.001274
29 0.001279
30 0.001279
31 0.001277
32 0.001271
33 0.001266
34 0.001266
35 0.001265
36 0.001269
37 0.001263
38 0.001259
39 0.001247
40 0.001234
41 0.001220
42 0.001208
43 0.001199
44 0.001191
45 0.001179
46 0.001177
47 0.001172
48 0.001162
49 0.001152
50 0.001126
51 0.001103
52 0.001088
53 0.001083
54 0.001070
55 0.001047
56 0.001031
57 0.001032
58 0.001036
59 0.001030
60 0.001034
61 0.001030
62 0.001027
63 0.001023
64 0.001022
65 0.001024
66 0.001015
67 0.001006
68 0.000999
69 0.000996
70 0.000999
71 0.001000
72 0.001002
73 0.001015
74 0.001034
75 0.001045
76 0.001059
77 0.001067
78 0.001064
79 0.001052
80 0.001037
81 0.001022
82 0.001010
83 0.001006
84 0.001015
85 0.001018
86 0.001027
87 0.001037
88 0.001049
89 0.001059
90 0.001056
91 0.001053
92 0.001049
93 0.001037
94 0.001024
95 0.001019
96 0.001021
97 0.001015
98 0.001009
99 0.001004
100 0.000994
101 0.000988
102 0.000981
103 0.000974
104 0.000969
105 0.000963
106 0.000960
107 0.000957
108 0.000957
109 0.000951
110 0.000954
111 0.000958
112 0.000957
113 0.000951
114 0.000946
115 0.000941
116 0.000933
117 0.000925
118 0.000926
119 0.000926
120 0.000933
121 0.000938
122 0.000942
123 0.000942
124 0.000944
125 0.000938
126 0.000937
127 0.000945
128 0.000952
129 0.000951
130 0.000949
131 0.000941
132 0.000932
133 0.000918
134 0.000905
135 0.000893
136 0.000879
137 0.000866
138 0.000846
139 0.000827
140 0.000818
141 0.000818
142 0.000816
143 0.000812
144 0.000809
145 0.000800
146 0.000787
147 0.000771
148 0.000762
149 0.000757
150 0.000755
151 0.000750
152 0.000755
153 0.000758
154 0.000759
155 0.000759
156 0.000763
157 0.000779
158 0.000789
159 0.000801
160 0.000814
161 0.000821
162 0.000825
163 0.000836
164 0.000842
165 0.000855
166 0.000866
167 0.000869
168 0.000868
169 0.000859
170 0.000856
171 0.000854
172 0.000852
173 0.000846
174 0.000835
175 0.000826
176 0.000821
177 0.000816
178 0.000809
179 0.000797
180 0.000782
181 0.000762
182 0.000746
183 0.000734
184 0.000733
185 0.000730
186 0.000721
187 0.000718
188 0.000721
189 0.000728
190 0.000732
191 0.000738
192 0.000751
193 0.000754
194 0.000753
195 0.000754
196 0.000761
197 0.000764
198 0.000767
199 0.000772
200 0.000775
201 0.000777
202 0.000769
203 0.000763
204 0.000766
205 0.000770
206 0.000773
207 0.000775
208 0.000773
209 0.000766
210 0.000756
211 0.000747
212 0.000739
213 0.000732
214 0.000722
215 0.000709
216 0.000697
217 0.000685
218 0.000683
219 0.000687
220 0.000689
221 0.000687
222 0.000683
223 0.000682
224 0.000675
225 0.000671
226 0.000662
227 0.000648
228 0.000639
229 0.000629
230 0.000626
231 0.000623
232 0.000619
233 0.000616
234 0.000610
235 0.000611
236 0.000619
237 0.000630
238 0.000628
239 0.000625
240 0.000614
241 0.000605
242 0.000607
243 0.000605
244 0.000608
245 0.000611
246 0.000618
247 0.000624
248 0.000621
249 0.000615
