# i correlation
1 0.001997
2 0.001925
3 0.001862
4 0.001798
5 0.001756
6 0.001716
7 0.001692
8 0.001676
9 0.001657
10 0.001639
11 0.001621
12 0.001604
13 0.001601
14 0.001595
15 0.001592
16 0.001583
17 0.001571
18 0.001560
19 0.001552
20 0.001541
21 0.001538
22 0.001534
23 0.001543
24 0.001538
25 0.001524
26 0.001511
27 0.001490
28 0.001480
29 0.001474
30 0.001475
31 0.001485
32 0.001499
33 0.001503
34 0.001496
35 0.001484
36 0.001471
37 0.001448
38 0.001420
39 0.001393
40 0.001364
41 0.001341
42 0.001320
43 0.001298
44 0.001275
45 0.001268
46 0.001262
47 0.001256
48 0.001252
49 0.001252
50 0.001253
51 0.001250
52 0.001257
53 0.001263
54 0.001260
55 0.001265
56 0.001265
57 0.001264
58 0.001255
59 0.001236
60 0.001224
61 0.001216
62 0.001202
63 0.001192
64 0.001177
65 0.001166
66 0.001162
67 0.001158
68 0.001160
69 0.001165
70 0.001169
71 0.001169
72 0.001158
73 0.001147
74 0.001139
75 0.001137
76 0.001134
77 0.001128
78 0.001120
79 0.001104
80 0.001091
81 0.001080
82 0.001062
83 0.001052
84 0.001056
85 0.001059
86 0.001072
87 0.001076
88 0.001076
89 0.001082
90 0.001084
91 0.001089
92 0.001085
93 0.001083
94 0.001083
95 0.001066
96 0.001050
97 0.001028
98 0.001007
99 0.000995
100 0.000990
101 0.000987
102 0.000982
103 0.000970
104 0.000956
105 0.000950
106 0.000951
107 0.000965
108 0.000969
109 0.000976
110 0.000979
111 0.000983
112 0.000982
113 0.000982
114 0.000978
115 0.000969
116 0.000969
117 0.000966
118 0.000965
119 0.000972
120 0.000974
121 0.000981
122 0.000991
123 0.000997
124 0.001008
125 0.001007
126 0.001011
127 0.001011
128 0.001001
129 0.000991
130 0.000983
131 0.000976
132 0.000979
133 0.000972
134 0.000960
135 0.000947
136 0.000932
137 0.000920
138 0.000905
139 0.000894
140 0.000880
141 0.000873
142 0.000865
143 0.000862
144 0.000867
145 0.000872
146 0.000885
147 0.000892
148 0.000897
149 0.000900
150 0.000899
151 0.000894
152 0.000897
153 0.000892
154 0.000877
155 0.000874
156 0.000869
157 0.000871
158 0.000875
159 0.000875
160 0.000879
161 0.000879
162 0.000874
163 0.000877
164 0.000884
165 0.000891
166 0.000898
167 0.000900
168 0.000893
169 0.000884
170 0.000876
171 0.000866
172 0.000852
173 0.000834
174 0.000815
175 0.000800
176 0.000793
177 0.000785
178 0.000784
179 0.000786
180 0.000788
181 0.000793
182 0.000798
183 0.000811
184 0.000817
185 0.000820
186 0.000821
187 0.000825
188 0.000829
189 0.000834
190 0.000836
191 0.000843
192 0.000845
193 0.000838
194 0.000833
195 0.000821
196 0.000812
197 0.000803
198 0.000799
199 0.000804
200 0.000810
201 0.000817
202 0.000831
203 0.000838
204 0.000842
205 0.000841
206 0.000830
207 0.000823
208 0.000807
209 0.000791
210 0.000777
211 0.000758
212 0.000742
213 0.000734
214 0.000735
215 0.000743
216 0.000750
217 0.000748
218 0.000743
219 0.000740
220 0.000740
221 0.000736
222 0.000738
223 0.000746
224 0.000753
225 0.000752
226 0.000742
227 0.000727
228 0.000720
229 0.000700
230 0.000682
231 0.000661
232 0.000643
233 0.000636
234 0.000622
235 0.000612
236 0.000609
237 0.000614
238 0.000626
239 0.000639
240 0.000649
241 0.000662
242 0.000662
243 0.000654
244 0.000645
245 0.000632
246 0.000624
247 0.000623
248 0.000623
249 0.000621
