# i correlation
1 0.001975
2 0.001887
3 0.001814
4 0.001743
5 0.001684
6 0.001633
7 0.001584
8 0.001545
9 0.001521
10 0.001507
11 0.001499
12 0.001485
13 0.001483
14 0.001480
15 0.001480
16 0.001474
17 0.001455
18 0.001430
19 0.001411
20 0.001404
21 0.001390
22 0.001376
23 0.001364
24 0.001356
25 0.001345
26 0.001339
27 0.001336
28 0.001333
29 0.001334
30 0.001325
31 0.001309
32 0.001297
33 0.001274
34 0.001243
35 0.001218
36 0.001200
37 0.001185
38 0.001169
39 0.001168
40 0.001166
41 0.001165
42 0.001171
43 0.001181
44 0.001184
45 0.001179
46 0.001163
47 0.001145
48 0.001135
49 0.001121
50 0.001114
51 0.001104
52 0.001102
53 0.001116
54 0.001129
55 0.001134
56 0.001138
57 0.001143
58 0.001148
59 0.001158
60 0.001165
61 0.001164
62 0.001154
63 0.001141
64 0.001135
65 0.001130
66 0.001113
67 0.001105
68 0.001098
69 0.001092
70 0.001081
71 0.001069
72 0.001053
73 0.001051
74 0.001050
75 0.001046
76 0.001035
77 0.001033
78 0.001020
79 0.001010
80 0.000997
81 0.000989
82 0.000991
83 0.000986
84 0.000988
85 0.000990
86 0.000982
87 0.000980
88 0.000985
89 0.000982
90 0.000983
91 0.000982
92 0.000975
93 0.000968
94 0.000964
95 0.000954
96 0.000938
97 0.000936
98 0.000932
99 0.000926
100 0.000920
101 0.000912
102 0.000902
103 0.000895
104 0.000888
105 0.000880
106 0.000862
107 0.000840
108 0.000827
109 0.000814
110 0.000807
111 0.000802
112 0.000792
113 0.000783
114 0.000780
115 0.000771
116 0.000757
117 0.000750
118 0.000754
119 0.000759
120 0.000777
121 0.000789
122 0.000807
123 0.000820
124 0.000828
125 0.000827
126 0.000829
127 0.000832
128 0.000834
129 0.000827
130 0.000816
131 0.000799
132 0.000775
133 0.000768
134 0.000760
135 0.000748
136 0.000736
137 0.000733
138 0.000723
139 0.000720
140 0.000728
141 0.000734
142 0.000744
143 0.000764
144 0.000784
145 0.000793
146 0.000796
147 0.000804
148 0.000806
149 0.000799
150 0.000802
151 0.000800
152 0.000804
153 0.000814
154 0.000818
155 0.000825
156 0.000821
157 0.000810
158 0.000804
159 0.000802
160 0.000793
161 0.000780
162 0.000772
163 0.000769
164 0.000761
165 0.000756
166 0.000755
167 0.000753
168 0.000753
169 0.000752
170 0.000757
171 0.000754
172 0.000759
173 0.000764
174 0.000764
175 0.000765
176 0.000782
177 0.000791
178 0.000791
179 0.000801
180 0.000797
181 0.000789
182 0.000793
183 0.000797
184 0.000799
185 0.000794
186 0.000779
187 0.000777
188 0.000772
189 0.000772
190 0.000773
191 0.000772
192 0.000771
193 0.000771
194 0.000774
195 0.000779
196 0.000778
197 0.000777
198 0.000772
199 0.000769
200 0.000762
201 0.000751
202 0.000738
203 0.000727
204 0.000718
205 0.000716
206 0.000714
207 0.000714
208 0.000723
209 0.000723
210 0.000728
211 0.000735
212 0.000735
213 0.000730
214 0.000730
215 0.000726
216 0.000721
217 0.000722
218 0.000717
219 0.000721
220 0.000725
221 0.000736
222 0.000744
223 0.000754
224 0.000762
225 0.000766
226 0.000771
227 0.000778
228 0.000772
229 0.000757
230 0.000749
231 0.000735
232 0.000737
233 0.000733
234 0.000725
235 0.000717
236 0.000714
237 0.000720
238 0.000729
239 0.000729
240 0.000726
241 0.000730
242 0.000726
243 0.000719
244 0.000715
245 0.000713
246 0.000704
247 0.000705
248 0.000711
249 0.000720
