# i correlation
1 0.002012
2 0.001932
3 0.001865
4 0.001805
5 0.001748
6 0.001706
7 0.001676
8 0.001650
9 0.001623
10 0.001600
11 0.001580
12 0.001566
13 0.001558
14 0.001553
15 0.001547
16 0.001539
17 0.001528
18 0.001520
19 0.001508
20 0.001496
21 0.001483
22 0.001465
23 0.001446
24 0.001442
25 0.001439
26 0.001435
27 0.001431
28 0.001434
29 0.001436
30 0.001434
31 0.001423
32 0.001420
33 0.001421
34 0.001417
35 0.001413
36 0.001397
37 0.001387
38 0.001378
39 0.001370
40 0.001358
41 0.001347
42 0.001339
43 0.001336
44 0.001329
45 0.001337
46 0.001338
47 0.001334
48 0.001323
49 0.001317
50 0.001301
51 0.001284
52 0.001270
53 0.001256
54 0.001241
55 0.001227
56 0.001208
57 0.001199
58 0.001187
59 0.001178
60 0.001176
61 0.001185
62 0.001199
63 0.001208
64 0.001211
65 0.001214
66 0.001216
67 0.001212
68 0.001199
69 0.001190
70 0.001180
71 0.001171
72 0.001152
73 0.001140
74 0.001133
75 0.001134
76 0.001138
77 0.001136
78 0.001142
79 0.001143
80 0.001137
81 0.001129
82 0.001117
83 0.001102
84 0.001087
85 0.001084
86 0.001082
87 0.001080
88 0.001069
89 0.001052
90 0.001046
91 0.001046
92 0.001037
93 0.001031
94 0.001027
95 0.001027
96 0.001024
97 0.001019
98 0.001008
99 0.000992
100 0.000977
101 0.000954
102 0.000931
103 0.000912
104 0.000904
105 0.000897
106 0.000890
107 0.000883
108 0.000873
109 0.000867
110 0.000865
111 0.000864
112 0.000863
113 0.000864
114 0.000866
115 0.000875
116 0.000883
117 0.000884
118 0.000875
119 0.000872
120 0.000862
121 0.000851
122 0.000838
123 0.000830
124 0.000825
125 0.000826
126 0.000825
127 0.000813
128 0.000815
129 0.000810
130 0.000814
131 0.000813
132 0.000824
133 0.000834
134 0.000839
135 0.000831
136 0.000822
137 0.000820
138 0.000814
139 0.000805
140 0.000809
141 0.000810
142 0.000808
143 0.000807
144 0.000807
145 0.000802
146 0.000796
147 0.000790
148 0.000789
149 0.000787
150 0.000785
151 0.000775
152 0.000763
153 0.000760
154 0.000761
155 0.000752
156 0.000752
157 0.000755
158 0.000770
159 0.000776
160 0.000784
161 0.000795
162 0.000804
163 0.000806
164 0.000806
165 0.000802
166 0.000797
167 0.000788
168 0.000776
169 0.000758
170 0.000741
171 0.000725
172 0.000713
173 0.000710
174 0.000709
175 0.000714
176 0.000720
177 0.000732
178 0.000732
179 0.000727
180 0.000719
181 0.000710
182 0.000704
183 0.000698
184 0.000692
185 0.000680
186 0.000674
187 0.000662
188 0.000654
189 0.000648
190 0.000642
191 0.000645
192 0.000654
193 0.000661
194 0.000664
195 0.000683
196 0.000693
197 0.000697
198 0.000690
199 0.000681
200 0.000669
201 0.000659
202 0.000654
203 0.000654
204 0.000648
205 0.000640
206 0.000630
207 0.000625
208 0.000613
209 0.000605
210 0.000609
211 0.000612
212 0.000619
213 0.000622
214 0.000612
215 0.000601
216 0.000590
217 0.000577
218 0.000562
219 0.000556
220 0.000556
221 0.000559
222 0.000569
223 0.000576
224 0.000586
225 0.000597
226 0.000601
227 0.000607
228 0.000609
229 0.000614
230 0.000614
231 0.000613
232 0.000613
233 0.000612
234 0.000607
235 0.000603
236 0.000597
237 0.000589
238 0.000588
239 0.000590
240 0.000598
241 0.000607
242 0.000610
243 0.000610
244 0.000611
245 0.000622
246 0.000628
247 0.000630
248 0.000627
249 0.000621
