# i correlation
1 0.001933
2 0.001854
3 0.001781
4 0.001721
5 0.001674
6 0.001634
7 0.001607
8 0.001578
9 0.001550
10 0.001527
11 0.001509
12 0.001490
13 0.001469
14 0.001444
15 0.001420
16 0.001392
17 0.001363
18 0.001341
19 0.001330
20 0.001321
21 0.001306
22 0.001287
23 0.001269
24 0.001250
25 0.001236
26 0.001218
27 0.001203
28 0.001184
29 0.001170
30 0.001166
31 0.001174
32 0.001182
33 0.001184
34 0.001186
35 0.001181
36 0.001175
37 0.001164
38 0.001161
39 0.001164
40 0.001158
41 0.001152
42 0.001144
43 0.001140
44 0.001135
45 0.001129
46 0.001124
47 0.001122
48 0.001120
49 0.001121
50 0.001124
51 0.001124
52 0.001123
53 0.001122
54 0.001126
55 0.001124
56 0.001127
57 0.001120
58 0.001117
59 0.001114
60 0.001108
61 0.001106
62 0.001101
63 0.001103
64 0.001105
65 0.001099
66 0.001086
67 0.001072
68 0.001053
69 0.001036
70 0.001027
71 0.001025
72 0.001023
73 0.001016
74 0.001013
75 0.001006
76 0.001002
77 0.000993
78 0.000983
79 0.000969
80 0.000960
81 0.000949
82 0.000939
83 0.000935
84 0.000936
85 0.000932
86 0.000934
87 0.000932
88 0.000932
89 0.000927
90 0.000915
91 0.000904
92 0.000891
93 0.000874
94 0.000860
95 0.000856
96 0.000860
97 0.000863
98 0.000866
99 0.000858
100 0.000840
101 0.000824
102 0.000810
103 0.000807
104 0.000799
105 0.000798
106 0.000798
107 0.000803
108 0.000813
109 0.000827
110 0.000842
111 0.000854
112 0.000861
113 0.000863
114 0.000860
115 0.000855
116 0.000842
117 0.000838
118 0.000841
119 0.000844
120 0.000846
121 0.000844
122 0.000855
123 0.000872
124 0.000891
125 0.000897
126 0.000893
127 0.000888
128 0.000885
129 0.000879
130 0.000883
131 0.000881
132 0.000879
133 0.000875
134 0.000868
135 0.000865
136 0.000857
137 0.000855
138 0.000854
139 0.000860
140 0.000860
141 0.000855
142 0.000856
143 0.000855
144 0.000851
145 0.000848
146 0.000848
147 0.000846
148 0.000847
149 0.000847
150 0.000847
151 0.000844
152 0.000843
153 0.000849
154 0.000853
155 0.000856
156 0.000860
157 0.000856
158 0.000848
159 0.000847
160 0.000840
161 0.000834
162 0.000834
163 0.000831
164 0.000821
165 0.000817
166 0.000807
167 0.000796
168 0.000784
169 0.000773
170 0.000764
171 0.000755
172 0.000750
173 0.000760
174 0.000775
175 0.000786
176 0.000783
177 0.000773
178 0.000763
179 0.000754
180 0.000739
181 0.000735
182 0.000727
183 0.000713
184 0.000700
185 0.000693
186 0.000688
187 0.000687
188 0.000693
189 0.000711
190 0.000707
191 0.000701
192 0.000696
193 0.000697
194 0.000700
195 0.000707
196 0.000715
197 0.000715
198 0.000716
199 0.000708
200 0.000698
201 0.000693
202 0.000687
203 0.000681
204 0.000681
205 0.000685
206 0.000695
207 0.000699
208 0.000712
209 0.000723
210 0.000729
211 0.000732
212 0.000738
213 0.000745
214 0.000749
215 0.000749
216 0.000748
217 0.000755
218 0.000753
219 0.000749
220 0.000751
221 0.000743
222 0.000734
223 0.000731
224 0.000724
225 0.000713
226 0.000700
227 0.000685
228 0.000676
229 0.000671
230 0.000673
231 0.000667
232 0.000660
233 0.000653
234 0.000641
235 0.000629
236 0.000619
237 0.000619
238 0.000617
239 0.000620
240 0.000618
241 0.000615
242 0.000613
243 0.000609
244 0.000594
245 0.000589
246 0.000576
247 0.000562
248 0.000550
249 0.000540
