# i correlation
1 0.002420
2 0.002328
3 0.002257
4 0.002203
5 0.002154
6 0.002119
7 0.002091
8 0.002062
9 0.002032
10 0.002004
11 0.001981
12 0.001962
13 0.001928
14 0.001890
15 0.001855
16 0.001834
17 0.001816
18 0.001796
19 0.001784
20 0.001770
21 0.001756
22 0.001733
23 0.001719
24 0.001708
25 0.001698
26 0.001684
27 0.001658
28 0.001637
29 0.001621
30 0.001593
31 0.001576
32 0.001562
33 0.001554
34 0.001541
35 0.001532
36 0.001517
37 0.001503
38 0.001481
39 0.001454
40 0.001435
41 0.001425
42 0.001417
43 0.001420
44 0.001420
45 0.001427
46 0.001425
47 0.001416
48 0.001406
49 0.001391
50 0.001378
51 0.001374
52 0.001364
53 0.001358
54 0.001361
55 0.001363
56 0.001357
57 0.001355
58 0.001353
59 0.001348
60 0.001345
61 0.001331
62 0.001315
63 0.001312
64 0.001304
65 0.001296
66 0.001292
67 0.001292
68 0.001292
69 0.001283
70 0.001276
71 0.001261
72 0.001251
73 0.001236
74 0.001228
75 0.001218
76 0.001209
77 0.001197
78 0.001182
79 0.001179
80 0.001182
81 0.001184
82 0.001178
83 0.001183
84 0.001189
85 0.001190
86 0.001196
87 0.001208
88 0.001215
89 0.001212
90 0.001202
91 0.001191
92 0.001189
93 0.001193
94 0.001197
95 0.001209
96 0.001211
97 0.001214
98 0.001213
99 0.001210
100 0.001207
101 0.001213
102 0.001213
103 0.001218
104 0.001222
105 0.001230
106 0.001227
107 0.001223
108 0.001220
109 0.001227
110 0.001226
111 0.001221
112 0.001228
113 0.001235
114 0.001240
115 0.001247
116 0.001246
117 0.001238
118 0.001239
119 0.001233
120 0.001231
121 0.001228
122 0.001226
123 0.001222
124 0.001220
125 0.001218
126 0.001215
127 0.001207
128 0.001206
129 0.001202
130 0.001196
131 0.001198
132 0.001207
133 0.001212
134 0.001206
135 0.001193
136 0.001168
137 0.001146
138 0.001131
139 0.001118
140 0.001105
141 0.001092
142 0.001071
143 0.001047
144 0.001038
145 0.001032
146 0.001027
147 0.001015
148 0.001004
149 0.001002
150 0.000999
151 0.000996
152 0.000996
153 0.000990
154 0.000993
155 0.001002
156 0.001009
157 0.001018
158 0.001027
159 0.001024
160 0.001028
161 0.001036
162 0.001031
163 0.001024
164 0.001016
165 0.001009
166 0.000998
167 0.000991
168 0.000974
169 0.000963
170 0.000965
171 0.000960
172 0.000954
173 0.000944
174 0.000936
175 0.000920
176 0.000906
177 0.000907
178 0.000910
179 0.000900
180 0.000888
181 0.000878
182 0.000880
183 0.000883
184 0.000880
185 0.000872
186 0.000871
187 0.000868
188 0.000862
189 0.000867
190 0.000871
191 0.000867
192 0.000868
193 0.000871
194 0.000867
195 0.000858
196 0.000853
197 0.000837
198 0.000826
199 0.000821
200 0.000829
201 0.000832
202 0.000840
203 0.000856
204 0.000865
205 0.000875
206 0.000874
207 0.000877
208 0.000881
209 0.000881
210 0.000881
211 0.000873
212 0.000865
213 0.000866
214 0.000867
215 0.000872
216 0.000873
217 0.000876
218 0.000873
219 0.000868
220 0.000869
221 0.000871
222 0.000870
223 0.000864
224 0.000863
225 0.000865
226 0.000868
227 0.000868
228 0.000864
229 0.000864
230 0.000859
231 0.000863
232 0.000857
233 0.000849
234 0.000847
235 0.000838
236 0.000832
237 0.000822
238 0.000820
239 0.000808
240 0.000802
241 0.000801
242 0.000797
243 0.000785
244 0.000779
245 0.000773
246 0.000771
247 0.000764
248 0.000758
249 0.000753
