# i correlation
1 0.001835
2 0.001757
3 0.001680
4 0.001615
5 0.001558
6 0.001512
7 0.001461
8 0.001412
9 0.001367
10 0.001320
11 0.001281
12 0.001252
13 0.001233
14 0.001206
15 0.001182
16 0.001156
17 0.001133
18 0.001115
19 0.001099
20 0.001088
21 0.001086
22 0.001080
23 0.001069
24 0.001057
25 0.001049
26 0.001049
27 0.001045
28 0.001052
29 0.001053
30 0.001056
31 0.001057
32 0.001057
33 0.001050
34 0.001053
35 0.001065
36 0.001083
37 0.001101
38 0.001116
39 0.001133
40 0.001144
41 0.001159
42 0.001170
43 0.001180
44 0.001190
45 0.001181
46 0.001165
47 0.001152
48 0.001140
49 0.001128
50 0.001114
51 0.001093
52 0.001066
53 0.001033
54 0.001011
55 0.000995
56 0.000981
57 0.000966
58 0.000954
59 0.000938
60 0.000919
61 0.000906
62 0.000897
63 0.000893
64 0.000883
65 0.000885
66 0.000878
67 0.000883
68 0.000884
69 0.000884
70 0.000882
71 0.000875
72 0.000875
73 0.000876
74 0.000879
75 0.000885
76 0.000893
77 0.000896
78 0.000894
79 0.000883
80 0.000872
81 0.000865
82 0.000863
83 0.000867
84 0.000867
85 0.000868
86 0.000860
87 0.000858
88 0.000844
89 0.000829
90 0.000819
91 0.000812
92 0.000805
93 0.000802
94 0.000793
95 0.000778
96 0.000764
97 0.000752
98 0.000743
99 0.000745
100 0.000743
101 0.000734
102 0.000722
103 0.000715
104 0.000708
105 0.000704
106 0.000707
107 0.000706
108 0.000710
109 0.000708
110 0.000709
111 0.000711
112 0.000713
113 0.000723
114 0.000734
115 0.000739
116 0.000733
117 0.000725
118 0.000706
119 0.000696
120 0.000686
121 0.000685
122 0.000681
123 0.000671
124 0.000663
125 0.000661
126 0.000653
127 0.000647
128 0.000638
129 0.000626
130 0.000612
131 0.000598
132 0.000582
133 0.000575
134 0.000569
135 0.000562
136 0.000553
137 0.000545
138 0.000534
139 0.000525
140 0.000516
141 0.000517
142 0.000518
143 0.000521
144 0.000522
145 0.000523
146 0.000520
147 0.000522
148 0.000516
149 0.000516
150 0.000514
151 0.000514
152 0.000510
153 0.000509
154 0.000514
155 0.000521
156 0.000526
157 0.000535
158 0.000543
159 0.000548
160 0.000553
161 0.000556
162 0.000558
163 0.000557
164 0.000555
165 0.000561
166 0.000564
167 0.000546
168 0.000531
169 0.000529
170 0.000526
171 0.000524
172 0.000523
173 0.000520
174 0.000506
175 0.000493
176 0.000479
177 0.000470
178 0.000467
179 0.000465
180 0.000462
181 0.000457
182 0.000455
183 0.000459
184 0.000465
185 0.000468
186 0.000478
187 0.000489
188 0.000495
189 0.000493
190 0.000485
191 0.000474
192 0.000465
193 0.000456
194 0.000446
195 0.000442
196 0.000439
197 0.000443
198 0.000445
199 0.000444
200 0.000446
201 0.000450
202 0.000453
203 0.000457
204 0.000455
205 0.000453
206 0.000451
207 0.000452
208 0.000460
209 0.000471
210 0.000479
211 0.000478
212 0.000474
213 0.000464
214 0.000461
215 0.000458
216 0.000461
217 0.000453
218 0.000451
219 0.000447
220 0.000451
221 0.000451
222 0.000453
223 0.000460
224 0.000471
225 0.000478
226 0.000482
227 0.000488
228 0.000491
229 0.000492
230 0.000492
231 0.000487
232 0.000481
233 0.000478
234 0.000476
235 0.000467
236 0.000457
237 0.000455
238 0.000455
239 0.000460
240 0.000465
241 0.000473
242 0.000483
243 0.000494
244 0.000501
245 0.000510
246 0.000518
247 0.000524
248 0.000526
249 0.000527
