# i correlation
1 0.001488
2 0.001398
3 0.001325
4 0.001261
5 0.001207
6 0.001166
7 0.001142
8 0.001116
9 0.001095
10 0.001077
11 0.001055
12 0.001049
13 0.001051
14 0.001060
15 0.001060
16 0.001062
17 0.001067
18 0.001068
19 0.001054
20 0.001040
21 0.001028
22 0.001013
23 0.001003
24 0.001006
25 0.001005
26 0.000990
27 0.000971
28 0.000957
29 0.000934
30 0.000915
31 0.000902
32 0.000893
33 0.000867
34 0.000841
35 0.000831
36 0.000820
37 0.000806
38 0.000795
39 0.000785
40 0.000789
41 0.000790
42 0.000805
43 0.000805
44 0.000806
45 0.000814
46 0.000821
47 0.000826
48 0.000840
49 0.000843
50 0.000834
51 0.000822
52 0.000812
53 0.000798
54 0.000789
55 0.000780
56 0.000781
57 0.000782
58 0.000783
59 0.000788
60 0.000801
61 0.000827
62 0.000837
63 0.000834
64 0.000834
65 0.000830
66 0.000823
67 0.000815
68 0.000812
69 0.000800
70 0.000793
71 0.000782
72 0.000777
73 0.000780
74 0.000784
75 0.000792
76 0.000797
77 0.000805
78 0.000807
79 0.000806
80 0.000799
81 0.000787
82 0.000776
83 0.000768
84 0.000768
85 0.000769
86 0.000760
87 0.000753
88 0.000749
89 0.000745
90 0.000737
91 0.000736
92 0.000732
93 0.000729
94 0.000730
95 0.000727
96 0.000723
97 0.000731
98 0.000730
99 0.000724
100 0.000721
101 0.000726
102 0.000735
103 0.000735
104 0.000733
105 0.000738
106 0.000732
107 0.000723
108 0.000708
109 0.000714
110 0.000724
111 0.000729
112 0.000733
113 0.000722
114 0.000719
115 0.000716
116 0.000711
117 0.000711
118 0.000709
119 0.000706
120 0.000689
121 0.000679
122 0.000670
123 0.000665
124 0.000659
125 0.000654
126 0.000662
127 0.000669
128 0.000670
129 0.000676
130 0.000680
131 0.000683
132 0.000678
133 0.000678
134 0.000676
135 0.000680
136 0.000687
137 0.000694
138 0.000690
139 0.000684
140 0.000672
141 0.000663
142 0.000654
143 0.000639
144 0.000628
145 0.000624
146 0.000625
147 0.000625
148 0.000622
149 0.000622
150 0.000614
151 0.000610
152 0.000600
153 0.000593
154 0.000584
155 0.000583
156 0.000581
157 0.000580
158 0.000582
159 0.000593
160 0.000589
161 0.000590
162 0.000588
163 0.000595
164 0.000599
165 0.000596
166 0.000593
167 0.000590
168 0.000582
169 0.000574
170 0.000572
171 0.000573
172 0.000578
173 0.000590
174 0.000594
175 0.000597
176 0.000586
177 0.000588
178 0.000591
179 0.000590
180 0.000586
181 0.000586
182 0.000593
183 0.000591
184 0.000590
185 0.000583
186 0.000576
187 0.000581
188 0.000580
189 0.000578
190 0.000575
191 0.000583
192 0.000579
193 0.000569
194 0.000562
195 0.000568
196 0.000574
197 0.000583
198 0.000589
199 0.000591
200 0.000585
201 0.000572
202 0.000561
203 0.000552
204 0.000548
205 0.000549
206 0.000549
207 0.000542
208 0.000531
209 0.000517
210 0.000507
211 0.000503
212 0.000506
213 0.000508
214 0.000504
215 0.000515
216 0.000518
217 0.000523
218 0.000514
219 0.000505
220 0.000507
221 0.000505
222 0.000494
223 0.000492
224 0.000492
225 0.000490
226 0.000487
227 0.000486
228 0.000479
229 0.000478
230 0.000481
231 0.000485
232 0.000480
233 0.000478
234 0.000474
235 0.000471
236 0.000480
237 0.000481
238 0.000488
239 0.000497
240 0.000505
241 0.000509
242 0.000510
243 0.000522
244 0.000528
245 0.000534
246 0.000535
247 0.000538
248 0.000548
249 0.000556
