# i correlation
1 0.001251
2 0.001175
3 0.001120
4 0.001072
5 0.001026
6 0.000986
7 0.000955
8 0.000928
9 0.000900
10 0.000872
11 0.000842
12 0.000821
13 0.000807
14 0.000797
15 0.000786
16 0.000775
17 0.000771
18 0.000772
19 0.000761
20 0.000756
21 0.000754
22 0.000755
23 0.000747
24 0.000739
25 0.000733
26 0.000731
27 0.000734
28 0.000737
29 0.000737
30 0.000740
31 0.000737
32 0.000729
33 0.000724
34 0.000726
35 0.000722
36 0.000714
37 0.000709
38 0.000699
39 0.000687
40 0.000677
41 0.000677
42 0.000679
43 0.000668
44 0.000653
45 0.000647
46 0.000649
47 0.000644
48 0.000642
49 0.000649
50 0.000656
51 0.000661
52 0.000659
53 0.000655
54 0.000657
55 0.000662
56 0.000658
57 0.000653
58 0.000643
59 0.000640
60 0.000639
61 0.000635
62 0.000620
63 0.000615
64 0.000607
65 0.000597
66 0.000583
67 0.000575
68 0.000576
69 0.000578
70 0.000572
71 0.000564
72 0.000556
73 0.000541
74 0.000523
75 0.000506
76 0.000493
77 0.000491
78 0.000485
79 0.000484
80 0.000479
81 0.000478
82 0.000476
83 0.000477
84 0.000490
85 0.000498
86 0.000504
87 0.000514
88 0.000515
89 0.000520
90 0.000526
91 0.000540
92 0.000560
93 0.000563
94 0.000560
95 0.000554
96 0.000551
97 0.000556
98 0.000563
99 0.000564
100 0.000564
101 0.000562
102 0.000553
103 0.000541
104 0.000533
105 0.000535
106 0.000539
107 0.000542
108 0.000527
109 0.000518
110 0.000507
111 0.000502
112 0.000495
113 0.000487
114 0.000493
115 0.000500
116 0.000509
117 0.000517
118 0.000527
119 0.000529
120 0.000536
121 0.000548
122 0.000554
123 0.000556
124 0.000552
125 0.000550
126 0.000551
127 0.000550
128 0.000550
129 0.000556
130 0.000552
131 0.000537
132 0.000527
133 0.000521
134 0.000517
135 0.000511
136 0.000510
137 0.000509
138 0.000506
139 0.000500
140 0.000489
141 0.000482
142 0.000476
143 0.000475
144 0.000481
145 0.000471
146 0.000464
147 0.000463
148 0.000458
149 0.000458
150 0.000451
151 0.000452
152 0.000456
153 0.000455
154 0.000445
155 0.000438
156 0.000440
157 0.000443
158 0.000449
159 0.000457
160 0.000448
161 0.000441
162 0.000434
163 0.000424
164 0.000409
165 0.000404
166 0.000408
167 0.000410
168 0.000418
169 0.000426
170 0.000430
171 0.000442
172 0.000452
173 0.000458
174 0.000462
175 0.000470
176 0.000477
177 0.000485
178 0.000485
179 0.000482
180 0.000472
181 0.000457
182 0.000443
183 0.000432
184 0.000425
185 0.000418
186 0.000415
187 0.000410
188 0.000400
189 0.000398
190 0.000403
191 0.000404
192 0.000402
193 0.000404
194 0.000401
195 0.000397
196 0.000394
197 0.000395
198 0.000398
199 0.000403
200 0.000407
201 0.000408
202 0.000411
203 0.000411
204 0.000405
205 0.000401
206 0.000396
207 0.000399
208 0.000401
209 0.000397
210 0.000390
211 0.000383
212 0.000380
213 0.000387
214 0.000397
215 0.000401
216 0.000410
217 0.000423
218 0.000434
219 0.000441
220 0.000442
221 0.000454
222 0.000458
223 0.000463
224 0.000470
225 0.000470
226 0.000470
227 0.000473
228 0.000482
229 0.000482
230 0.000483
231 0.000484
232 0.000479
233 0.000473
234 0.000467
235 0.000460
236 0.000459
237 0.000459
238 0.000450
239 0.000440
240 0.000427
241 0.000420
242 0.000411
243 0.000411
244 0.000409
245 0.000410
246 0.000405
247 0.000400
248 0.000395
249 0.000387
