# i correlation
1 0.002026
2 0.001945
3 0.001881
4 0.001825
5 0.001771
6 0.001718
7 0.001674
8 0.001632
9 0.001595
10 0.001563
11 0.001533
12 0.001510
13 0.001484
14 0.001463
15 0.001447
16 0.001437
17 0.001422
18 0.001405
19 0.001393
20 0.001375
21 0.001352
22 0.001336
23 0.001332
24 0.001333
25 0.001333
26 0.001327
27 0.001321
28 0.001323
29 0.001323
30 0.001318
31 0.001311
32 0.001306
33 0.001312
34 0.001313
35 0.001316
36 0.001320
37 0.001318
38 0.001322
39 0.001324
40 0.001322
41 0.001315
42 0.001310
43 0.001298
44 0.001289
45 0.001282
46 0.001269
47 0.001260
48 0.001242
49 0.001228
50 0.001220
51 0.001214
52 0.001223
53 0.001217
54 0.001211
55 0.001202
56 0.001187
57 0.001166
58 0.001155
59 0.001148
60 0.001138
61 0.001132
62 0.001128
63 0.001119
64 0.001116
65 0.001117
66 0.001115
67 0.001115
68 0.001120
69 0.001123
70 0.001120
71 0.001122
72 0.001124
73 0.001118
74 0.001103
75 0.001092
76 0.001084
77 0.001079
78 0.001075
79 0.001078
80 0.001080
81 0.001079
82 0.001068
83 0.001073
84 0.001068
85 0.001067
86 0.001063
87 0.001064
88 0.001066
89 0.001068
90 0.001057
91 0.001050
92 0.001046
93 0.001040
94 0.001036
95 0.001030
96 0.001023
97 0.001024
98 0.001019
99 0.001021
100 0.001014
101 0.001009
102 0.000999
103 0.000987
104 0.000993
105 0.001002
106 0.001002
107 0.000999
108 0.001003
109 0.001012
110 0.001015
111 0.001014
112 0.001021
113 0.001027
114 0.001041
115 0.001049
116 0.001057
117 0.001058
118 0.001056
119 0.001062
120 0.001065
121 0.001071
122 0.001074
123 0.001075
124 0.001077
125 0.001079
126 0.001073
127 0.001069
128 0.001068
129 0.001056
130 0.001052
131 0.001050
132 0.001042
133 0.001034
134 0.001027
135 0.001014
136 0.000993
137 0.000979
138 0.000969
139 0.000965
140 0.000958
141 0.000957
142 0.000957
143 0.000951
144 0.000952
145 0.000949
146 0.000942
147 0.000941
148 0.000944
149 0.000949
150 0.000952
151 0.000949
152 0.000944
153 0.000938
154 0.000928
155 0.000910
156 0.000911
157 0.000909
158 0.000906
159 0.000909
160 0.000910
161 0.000918
162 0.000919
163 0.000913
164 0.000914
165 0.000912
166 0.000915
167 0.000918
168 0.000923
169 0.000929
170 0.000925
171 0.000913
172 0.000907
173 0.000900
174 0.000886
175 0.000877
176 0.000871
177 0.000866
178 0.000854
179 0.000835
180 0.000829
181 0.000827
182 0.000815
183 0.000803
184 0.000803
185 0.000807
186 0.000815
187 0.000819
188 0.000825
189 0.000824
190 0.000818
191 0.000804
192 0.000796
193 0.000798
194 0.000805
195 0.000807
196 0.000809
197 0.000802
198 0.000787
199 0.000779
200 0.000778
201 0.000771
202 0.000769
203 0.000770
204 0.000775
205 0.000776
206 0.000772
207 0.000767
208 0.000764
209 0.000760
210 0.000759
211 0.000762
212 0.000758
213 0.000764
214 0.000779
215 0.000792
216 0.000797
217 0.000797
218 0.000798
219 0.000805
220 0.000823
221 0.000829
222 0.000825
223 0.000827
224 0.000827
225 0.000818
226 0.000804
227 0.000794
228 0.000780
229 0.000769
230 0.000760
231 0.000756
232 0.000753
233 0.000755
234 0.000749
235 0.000741
236 0.000732
237 0.000721
238 0.000722
239 0.000731
240 0.000729
241 0.000727
242 0.000724
243 0.000724
244 0.000720
245 0.000712
246 0.000704
247 0.000698
248 0.000693
249 0.000699
