# i correlation
1 0.001975
2 0.001895
3 0.001833
4 0.001782
5 0.001731
6 0.001686
7 0.001645
8 0.001608
9 0.001566
10 0.001530
11 0.001497
12 0.001470
13 0.001453
14 0.001434
15 0.001416
16 0.001397
17 0.001386
18 0.001386
19 0.001377
20 0.001369
21 0.001362
22 0.001356
23 0.001354
24 0.001355
25 0.001352
26 0.001349
27 0.001343
28 0.001335
29 0.001325
30 0.001308
31 0.001295
32 0.001289
33 0.001286
34 0.001286
35 0.001289
36 0.001283
37 0.001280
38 0.001275
39 0.001269
40 0.001254
41 0.001256
42 0.001249
43 0.001249
44 0.001243
45 0.001246
46 0.001244
47 0.001237
48 0.001232
49 0.001233
50 0.001231
51 0.001229
52 0.001228
53 0.001221
54 0.001214
55 0.001209
56 0.001195
57 0.001189
58 0.001184
59 0.001184
60 0.001175
61 0.001178
62 0.001178
63 0.001171
64 0.001157
65 0.001149
66 0.001146
67 0.001153
68 0.001154
69 0.001155
70 0.001168
71 0.001172
72 0.001171
73 0.001176
74 0.001190
75 0.001193
76 0.001191
77 0.001180
78 0.001166
79 0.001163
80 0.001157
81 0.001141
82 0.001126
83 0.001109
84 0.001092
85 0.001082
86 0.001073
87 0.001073
88 0.001075
89 0.001069
90 0.001052
91 0.001031
92 0.001020
93 0.001004
94 0.000994
95 0.000984
96 0.000978
97 0.000967
98 0.000951
99 0.000928
100 0.000917
101 0.000903
102 0.000899
103 0.000898
104 0.000895
105 0.000888
106 0.000879
107 0.000866
108 0.000865
109 0.000869
110 0.000868
111 0.000874
112 0.000873
113 0.000874
114 0.000872
115 0.000870
116 0.000866
117 0.000875
118 0.000881
119 0.000878
120 0.000875
121 0.000878
122 0.000890
123 0.000907
124 0.000918
125 0.000922
126 0.000929
127 0.000935
128 0.000944
129 0.000959
130 0.000972
131 0.000981
132 0.000996
133 0.000998
134 0.000997
135 0.000998
136 0.001000
137 0.001013
138 0.001011
139 0.000998
140 0.000988
141 0.000991
142 0.000985
143 0.000975
144 0.000971
145 0.000958
146 0.000942
147 0.000935
148 0.000925
149 0.000912
150 0.000899
151 0.000884
152 0.000867
153 0.000841
154 0.000812
155 0.000791
156 0.000770
157 0.000747
158 0.000718
159 0.000698
160 0.000686
161 0.000681
162 0.000675
163 0.000667
164 0.000654
165 0.000646
166 0.000641
167 0.000645
168 0.000651
169 0.000660
170 0.000673
171 0.000681
172 0.000692
173 0.000696
174 0.000694
175 0.000690
176 0.000697
177 0.000694
178 0.000693
179 0.000700
180 0.000702
181 0.000697
182 0.000684
183 0.000675
184 0.000674
185 0.000677
186 0.000679
187 0.000675
188 0.000663
189 0.000652
190 0.000643
191 0.000641
192 0.000638
193 0.000634
194 0.000642
195 0.000637
196 0.000637
197 0.000639
198 0.000651
199 0.000658
200 0.000666
201 0.000668
202 0.000669
203 0.000667
204 0.000672
205 0.000676
206 0.000686
207 0.000690
208 0.000693
209 0.000691
210 0.000686
211 0.000689
212 0.000687
213 0.000678
214 0.000678
215 0.000681
216 0.000676
217 0.000670
218 0.000672
219 0.000679
220 0.000689
221 0.000693
222 0.000701
223 0.000707
224 0.000714
225 0.000715
226 0.000713
227 0.000710
228 0.000701
229 0.000693
230 0.000688
231 0.000677
232 0.000662
233 0.000657
234 0.000635
235 0.000617
236 0.000596
237 0.000582
238 0.000567
239 0.000555
240 0.000556
241 0.000555
242 0.000553
243 0.000555
244 0.000553
245 0.000548
246 0.000543
247 0.000543
248 0.000546
249 0.000552
