# i correlation
1 0.001551
2 0.001481
3 0.001428
4 0.001389
5 0.001352
6 0.001310
7 0.001278
8 0.001249
9 0.001225
10 0.001205
11 0.001189
12 0.001180
13 0.001170
14 0.001157
15 0.001140
16 0.001124
17 0.001112
18 0.001098
19 0.001083
20 0.001066
21 0.001051
22 0.001037
23 0.001027
24 0.001017
25 0.001004
26 0.001000
27 0.001005
28 0.001010
29 0.001005
30 0.000997
31 0.000991
32 0.000983
33 0.000979
34 0.000973
35 0.000973
36 0.000975
37 0.000973
38 0.000970
39 0.000961
40 0.000960
41 0.000954
42 0.000943
43 0.000933
44 0.000923
45 0.000915
46 0.000906
47 0.000889
48 0.000873
49 0.000871
50 0.000865
51 0.000858
52 0.000858
53 0.000856
54 0.000857
55 0.000853
56 0.000849
57 0.000839
58 0.000829
59 0.000824
60 0.000826
61 0.000824
62 0.000814
63 0.000815
64 0.000816
65 0.000825
66 0.000840
67 0.000844
68 0.000843
69 0.000847
70 0.000854
71 0.000866
72 0.000879
73 0.000888
74 0.000893
75 0.000889
76 0.000893
77 0.000895
78 0.000895
79 0.000892
80 0.000893
81 0.000891
82 0.000884
83 0.000874
84 0.000866
85 0.000862
86 0.000855
87 0.000842
88 0.000819
89 0.000802
90 0.000798
91 0.000797
92 0.000788
93 0.000788
94 0.000797
95 0.000802
96 0.000804
97 0.000803
98 0.000804
99 0.000804
100 0.000794
101 0.000781
102 0.000768
103 0.000763
104 0.000764
105 0.000760
106 0.000754
107 0.000754
108 0.000755
109 0.000759
110 0.000755
111 0.000746
112 0.000742
113 0.000738
114 0.000729
115 0.000717
116 0.000704
117 0.000692
118 0.000682
119 0.000675
120 0.000669
121 0.000667
122 0.000665
123 0.000660
124 0.000651
125 0.000640
126 0.000643
127 0.000648
128 0.000641
129 0.000631
130 0.000618
131 0.000607
132 0.000601
133 0.000582
134 0.000572
135 0.000563
136 0.000558
137 0.000559
138 0.000554
139 0.000563
140 0.000565
141 0.000561
142 0.000562
143 0.000560
144 0.000564
145 0.000570
146 0.000572
147 0.000577
148 0.000579
149 0.000582
150 0.000589
151 0.000593
152 0.000597
153 0.000601
154 0.000597
155 0.000595
156 0.000587
157 0.000583
158 0.000578
159 0.000578
160 0.000578
161 0.000574
162 0.000573
163 0.000575
164 0.000581
165 0.000576
166 0.000569
167 0.000565
168 0.000564
169 0.000560
170 0.000551
171 0.000546
172 0.000544
173 0.000537
174 0.000526
175 0.000522
176 0.000520
177 0.000520
178 0.000518
179 0.000513
180 0.000516
181 0.000517
182 0.000512
183 0.000508
184 0.000504
185 0.000503
186 0.000494
187 0.000488
188 0.000482
189 0.000477
190 0.000476
191 0.000475
192 0.000475
193 0.000475
194 0.000474
195 0.000477
196 0.000481
197 0.000478
198 0.000479
199 0.000484
200 0.000481
201 0.000478
202 0.000477
203 0.000478
204 0.000483
205 0.000482
206 0.000479
207 0.000475
208 0.000478
209 0.000474
210 0.000469
211 0.000461
212 0.000457
213 0.000457
214 0.000461
215 0.000458
216 0.000453
217 0.000449
218 0.000452
219 0.000458
220 0.000466
221 0.000470
222 0.000467
223 0.000466
224 0.000469
225 0.000470
226 0.000463
227 0.000452
228 0.000439
229 0.000429
230 0.000420
231 0.000408
232 0.000402
233 0.000408
234 0.000407
235 0.000399
236 0.000398
237 0.000394
238 0.000393
239 0.000389
240 0.000389
241 0.000392
242 0.000398
243 0.000405
244 0.000412
245 0.000414
246 0.000415
247 0.000419
248 0.000433
249 0.000442
