# i correlation
1 0.001714
2 0.001647
3 0.001590
4 0.001539
5 0.001491
6 0.001449
7 0.001410
8 0.001373
9 0.001351
10 0.001322
11 0.001296
12 0.001274
13 0.001252
14 0.001234
15 0.001221
16 0.001210
17 0.001195
18 0.001188
19 0.001184
20 0.001180
21 0.001172
22 0.001159
23 0.001151
24 0.001146
25 0.001133
26 0.001115
27 0.001095
28 0.001073
29 0.001051
30 0.001025
31 0.001001
32 0.000985
33 0.000967
34 0.000962
35 0.000961
36 0.000955
37 0.000949
38 0.000939
39 0.000936
40 0.000932
41 0.000923
42 0.000920
43 0.000916
44 0.000923
45 0.000929
46 0.000928
47 0.000924
48 0.000917
49 0.000909
50 0.000902
51 0.000890
52 0.000876
53 0.000866
54 0.000864
55 0.000867
56 0.000872
57 0.000865
58 0.000865
59 0.000869
60 0.000871
61 0.000863
62 0.000865
63 0.000866
64 0.000860
65 0.000847
66 0.000825
67 0.000809
68 0.000802
69 0.000807
70 0.000813
71 0.000825
72 0.000837
73 0.000845
74 0.000859
75 0.000865
76 0.000876
77 0.000885
78 0.000889
79 0.000896
80 0.000903
81 0.000901
82 0.000901
83 0.000897
84 0.000897
85 0.000896
86 0.000893
87 0.000884
88 0.000878
89 0.000869
90 0.000853
91 0.000844
92 0.000826
93 0.000809
94 0.000794
95 0.000791
96 0.000790
97 0.000786
98 0.000789
99 0.000798
100 0.000809
101 0.000808
102 0.000802
103 0.000800
104 0.000802
105 0.000795
106 0.000792
107 0.000783
108 0.000778
109 0.000771
110 0.000765
111 0.000765
112 0.000751
113 0.000742
114 0.000735
115 0.000729
116 0.000725
117 0.000720
118 0.000715
119 0.000719
120 0.000721
121 0.000718
122 0.000723
123 0.000730
124 0.000732
125 0.000736
126 0.000734
127 0.000736
128 0.000730
129 0.000726
130 0.000722
131 0.000713
132 0.000707
133 0.000701
134 0.000698
135 0.000691
136 0.000685
137 0.000676
138 0.000674
139 0.000672
140 0.000665
141 0.000660
142 0.000657
143 0.000664
144 0.000665
145 0.000670
146 0.000672
147 0.000665
148 0.000660
149 0.000657
150 0.000649
151 0.000641
152 0.000628
153 0.000617
154 0.000607
155 0.000605
156 0.000600
157 0.000594
158 0.000589
159 0.000578
160 0.000568
161 0.000568
162 0.000574
163 0.000575
164 0.000573
165 0.000568
166 0.000553
167 0.000536
168 0.000517
169 0.000504
170 0.000489
171 0.000486
172 0.000474
173 0.000466
174 0.000458
175 0.000453
176 0.000449
177 0.000447
178 0.000449
179 0.000455
180 0.000466
181 0.000470
182 0.000476
183 0.000485
184 0.000482
185 0.000480
186 0.000480
187 0.000477
188 0.000469
189 0.000466
190 0.000470
191 0.000466
192 0.000469
193 0.000462
194 0.000452
195 0.000439
196 0.000429
197 0.000420
198 0.000415
199 0.000421
200 0.000429
201 0.000437
202 0.000447
203 0.000455
204 0.000467
205 0.000475
206 0.000480
207 0.000488
208 0.000494
209 0.000504
210 0.000515
211 0.000523
212 0.000521
213 0.000516
214 0.000519
215 0.000529
216 0.000536
217 0.000545
218 0.000552
219 0.000561
220 0.000571
221 0.000569
222 0.000564
223 0.000558
224 0.000554
225 0.000547
226 0.000538
227 0.000534
228 0.000524
229 0.000518
230 0.000503
231 0.000492
232 0.000474
233 0.000464
234 0.000459
235 0.000453
236 0.000456
237 0.000456
238 0.000457
239 0.000460
240 0.000464
241 0.000464
242 0.000461
243 0.000459
244 0.000450
245 0.000436
246 0.000422
247 0.000404
248 0.000380
249 0.000358
