# i correlation
1 0.001834
2 0.001755
3 0.001693
4 0.001631
5 0.001589
6 0.001556
7 0.001533
8 0.001517
9 0.001511
10 0.001506
11 0.001488
12 0.001473
13 0.001450
14 0.001422
15 0.001405
16 0.001391
17 0.001377
18 0.001359
19 0.001347
20 0.001346
21 0.001338
22 0.001328
23 0.001329
24 0.001327
25 0.001336
26 0.001338
27 0.001331
28 0.001322
29 0.001306
30 0.001286
31 0.001272
32 0.001264
33 0.001261
34 0.001261
35 0.001255
36 0.001260
37 0.001269
38 0.001273
39 0.001266
40 0.001260
41 0.001253
42 0.001254
43 0.001256
44 0.001255
45 0.001262
46 0.001265
47 0.001262
48 0.001255
49 0.001239
50 0.001227
51 0.001213
52 0.001202
53 0.001191
54 0.001179
55 0.001162
56 0.001152
57 0.001147
58 0.001140
59 0.001128
60 0.001125
61 0.001117
62 0.001109
63 0.001107
64 0.001094
65 0.001084
66 0.001076
67 0.001066
68 0.001066
69 0.001061
70 0.001053
71 0.001043
72 0.001036
73 0.001033
74 0.001016
75 0.001009
76 0.001005
77 0.001008
78 0.001011
79 0.001009
80 0.001005
81 0.001000
82 0.000995
83 0.000981
84 0.000975
85 0.000979
86 0.000979
87 0.000988
88 0.001002
89 0.001021
90 0.001026
91 0.001027
92 0.001021
93 0.001011
94 0.001000
95 0.000991
96 0.000983
97 0.000977
98 0.000978
99 0.000972
100 0.000963
101 0.000959
102 0.000953
103 0.000949
104 0.000946
105 0.000950
106 0.000947
107 0.000940
108 0.000921
109 0.000906
110 0.000895
111 0.000880
112 0.000870
113 0.000867
114 0.000869
115 0.000878
116 0.000875
117 0.000873
118 0.000873
119 0.000864
120 0.000853
121 0.000842
122 0.000830
123 0.000823
124 0.000821
125 0.000827
126 0.000831
127 0.000843
128 0.000852
129 0.000854
130 0.000857
131 0.000858
132 0.000857
133 0.000861
134 0.000871
135 0.000882
136 0.000893
137 0.000905
138 0.000910
139 0.000914
140 0.000915
141 0.000914
142 0.000917
143 0.000923
144 0.000922
145 0.000924
146 0.000916
147 0.000911
148 0.000905
149 0.000896
150 0.000887
151 0.000870
152 0.000858
153 0.000846
154 0.000830
155 0.000815
156 0.000795
157 0.000779
158 0.000772
159 0.000766
160 0.000758
161 0.000759
162 0.000768
163 0.000778
164 0.000779
165 0.000774
166 0.000770
167 0.000765
168 0.000763
169 0.000757
170 0.000756
171 0.000757
172 0.000755
173 0.000762
174 0.000765
175 0.000774
176 0.000787
177 0.000792
178 0.000801
179 0.000801
180 0.000796
181 0.000800
182 0.000804
183 0.000813
184 0.000820
185 0.000820
186 0.000821
187 0.000830
188 0.000829
189 0.000822
190 0.000823
191 0.000822
192 0.000818
193 0.000816
194 0.000808
195 0.000805
196 0.000811
197 0.000814
198 0.000814
199 0.000808
200 0.000803
201 0.000793
202 0.000787
203 0.000786
204 0.000781
205 0.000774
206 0.000768
207 0.000760
208 0.000754
209 0.000749
210 0.000743
211 0.000738
212 0.000736
213 0.000735
214 0.000730
215 0.000724
216 0.000725
217 0.000716
218 0.000713
219 0.000715
220 0.000717
221 0.000728
222 0.000735
223 0.000748
224 0.000760
225 0.000767
226 0.000774
227 0.000772
228 0.000777
229 0.000784
230 0.000792
231 0.000799
232 0.000802
233 0.000805
234 0.000815
235 0.000818
236 0.000821
237 0.000818
238 0.000817
239 0.000817
240 0.000811
241 0.000813
242 0.000806
243 0.000799
244 0.000804
245 0.000795
246 0.000788
247 0.000780
248 0.000772
249 0.000769
