# i correlation
1 0.001856
2 0.001768
3 0.001684
4 0.001612
5 0.001551
6 0.001498
7 0.001454
8 0.001414
9 0.001386
10 0.001357
11 0.001335
12 0.001322
13 0.001316
14 0.001308
15 0.001302
16 0.001297
17 0.001291
18 0.001277
19 0.001268
20 0.001257
21 0.001246
22 0.001229
23 0.001209
24 0.001187
25 0.001161
26 0.001144
27 0.001127
28 0.001110
29 0.001105
30 0.001095
31 0.001091
32 0.001091
33 0.001080
34 0.001070
35 0.001058
36 0.001048
37 0.001037
38 0.001033
39 0.001030
40 0.001021
41 0.001007
42 0.000997
43 0.000988
44 0.000977
45 0.000976
46 0.000972
47 0.000981
48 0.000996
49 0.001010
50 0.001025
51 0.001036
52 0.001050
53 0.001051
54 0.001056
55 0.001051
56 0.001036
57 0.001018
58 0.000998
59 0.000983
60 0.000967
61 0.000963
62 0.000960
63 0.000952
64 0.000942
65 0.000931
66 0.000937
67 0.000936
68 0.000937
69 0.000940
70 0.000942
71 0.000942
72 0.000936
73 0.000929
74 0.000915
75 0.000909
76 0.000907
77 0.000898
78 0.000885
79 0.000885
80 0.000893
81 0.000887
82 0.000893
83 0.000899
84 0.000893
85 0.000886
86 0.000872
87 0.000858
88 0.000847
89 0.000837
90 0.000826
91 0.000822
92 0.000817
93 0.000816
94 0.000811
95 0.000806
96 0.000803
97 0.000806
98 0.000808
99 0.000809
100 0.000814
101 0.000808
102 0.000814
103 0.000811
104 0.000815
105 0.000803
106 0.000799
107 0.000793
108 0.000781
109 0.000778
110 0.000758
111 0.000749
112 0.000741
113 0.000735
114 0.000728
115 0.000718
116 0.000713
117 0.000713
118 0.000716
119 0.000718
120 0.000719
121 0.000724
122 0.000728
123 0.000736
124 0.000745
125 0.000746
126 0.000743
127 0.000742
128 0.000736
129 0.000726
130 0.000720
131 0.000711
132 0.000706
133 0.000700
134 0.000693
135 0.000688
136 0.000684
137 0.000673
138 0.000666
139 0.000654
140 0.000649
141 0.000656
142 0.000655
143 0.000658
144 0.000657
145 0.000659
146 0.000662
147 0.000661
148 0.000663
149 0.000664
150 0.000664
151 0.000660
152 0.000657
153 0.000659
154 0.000663
155 0.000667
156 0.000665
157 0.000662
158 0.000658
159 0.000656
160 0.000651
161 0.000651
162 0.000650
163 0.000644
164 0.000644
165 0.000653
166 0.000671
167 0.000687
168 0.000695
169 0.000692
170 0.000692
171 0.000685
172 0.000688
173 0.000693
174 0.000697
175 0.000704
176 0.000694
177 0.000690
178 0.000677
179 0.000670
180 0.000669
181 0.000670
182 0.000668
183 0.000662
184 0.000654
185 0.000644
186 0.000643
187 0.000646
188 0.000652
189 0.000659
190 0.000667
191 0.000664
192 0.000662
193 0.000662
194 0.000658
195 0.000653
196 0.000650
197 0.000652
198 0.000660
199 0.000662
200 0.000658
201 0.000655
202 0.000653
203 0.000643
204 0.000636
205 0.000622
206 0.000610
207 0.000598
208 0.000587
209 0.000584
210 0.000586
211 0.000581
212 0.000573
213 0.000565
214 0.000560
215 0.000557
216 0.000555
217 0.000559
218 0.000558
219 0.000550
220 0.000538
221 0.000531
222 0.000518
223 0.000507
224 0.000503
225 0.000504
226 0.000513
227 0.000524
228 0.000538
229 0.000552
230 0.000567
231 0.000582
232 0.000591
233 0.000600
234 0.000605
235 0.000606
236 0.000610
237 0.000614
238 0.000615
239 0.000608
240 0.000594
241 0.000593
242 0.000594
243 0.000596
244 0.000598
245 0.000600
246 0.000609
247 0.000631
248 0.000648
249 0.000666
