# i correlation
1 0.001679
2 0.001597
3 0.001529
4 0.001463
5 0.001404
6 0.001356
7 0.001320
8 0.001288
9 0.001264
10 0.001243
11 0.001221
12 0.001209
13 0.001197
14 0.001188
15 0.001184
16 0.001180
17 0.001186
18 0.001190
19 0.001178
20 0.001161
21 0.001149
22 0.001129
23 0.001118
24 0.001114
25 0.001102
26 0.001095
27 0.001084
28 0.001080
29 0.001076
30 0.001075
31 0.001074
32 0.001067
33 0.001058
34 0.001050
35 0.001048
36 0.001047
37 0.001035
38 0.001021
39 0.001010
40 0.001000
41 0.000997
42 0.000998
43 0.001000
44 0.001008
45 0.001004
46 0.001010
47 0.001018
48 0.001012
49 0.001003
50 0.000999
51 0.000990
52 0.000976
53 0.000974
54 0.000975
55 0.000979
56 0.000985
57 0.000986
58 0.000979
59 0.000979
60 0.000988
61 0.000992
62 0.000991
63 0.000998
64 0.001003
65 0.001009
66 0.001010
67 0.001008
68 0.000997
69 0.000984
70 0.000966
71 0.000947
72 0.000936
73 0.000928
74 0.000919
75 0.000905
76 0.000894
77 0.000895
78 0.000905
79 0.000917
80 0.000922
81 0.000932
82 0.000936
83 0.000934
84 0.000930
85 0.000923
86 0.000918
87 0.000914
88 0.000905
89 0.000900
90 0.000905
91 0.000911
92 0.000911
93 0.000908
94 0.000902
95 0.000898
96 0.000897
97 0.000897
98 0.000893
99 0.000891
100 0.000896
101 0.000897
102 0.000896
103 0.000896
104 0.000891
105 0.000885
106 0.000876
107 0.000868
108 0.000859
109 0.000850
110 0.000853
111 0.000847
112 0.000841
113 0.000834
114 0.000826
115 0.000825
116 0.000812
117 0.000804
118 0.000794
119 0.000785
120 0.000783
121 0.000779
122 0.000778
123 0.000784
124 0.000793
125 0.000808
126 0.000817
127 0.000829
128 0.000834
129 0.000831
130 0.000826
131 0.000819
132 0.000814
133 0.000820
134 0.000824
135 0.000824
136 0.000825
137 0.000822
138 0.000815
139 0.000808
140 0.000794
141 0.000784
142 0.000767
143 0.000761
144 0.000759
145 0.000762
146 0.000765
147 0.000757
148 0.000752
149 0.000739
150 0.000719
151 0.000715
152 0.000708
153 0.000709
154 0.000717
155 0.000719
156 0.000727
157 0.000734
158 0.000742
159 0.000748
160 0.000749
161 0.000760
162 0.000769
163 0.000777
164 0.000779
165 0.000785
166 0.000788
167 0.000784
168 0.000785
169 0.000785
170 0.000777
171 0.000772
172 0.000761
173 0.000749
174 0.000728
175 0.000708
176 0.000687
177 0.000669
178 0.000650
179 0.000640
180 0.000639
181 0.000638
182 0.000644
183 0.000654
184 0.000664
185 0.000665
186 0.000664
187 0.000660
188 0.000649
189 0.000641
190 0.000634
191 0.000623
192 0.000624
193 0.000626
194 0.000630
195 0.000633
196 0.000634
197 0.000630
198 0.000629
199 0.000636
200 0.000637
201 0.000634
202 0.000630
203 0.000618
204 0.000609
205 0.000610
206 0.000603
207 0.000593
208 0.000583
209 0.000571
210 0.000570
211 0.000567
212 0.000567
213 0.000571
214 0.000575
215 0.000583
216 0.000592
217 0.000606
218 0.000628
219 0.000639
220 0.000646
221 0.000647
222 0.000644
223 0.000638
224 0.000633
225 0.000629
226 0.000628
227 0.000630
228 0.000629
229 0.000626
230 0.000622
231 0.000621
232 0.000618
233 0.000614
234 0.000609
235 0.000604
236 0.000607
237 0.000612
238 0.000622
239 0.000629
240 0.000634
241 0.000634
242 0.000625
243 0.000614
244 0.000602
245 0.000592
246 0.000583
247 0.000571
248 0.000557
249 0.000550
