# i correlation
1 0.001484
2 0.001408
3 0.001341
4 0.001287
5 0.001247
6 0.001214
7 0.001181
8 0.001155
9 0.001139
10 0.001125
11 0.001112
12 0.001094
13 0.001078
14 0.001065
15 0.001063
16 0.001059
17 0.001058
18 0.001046
19 0.001034
20 0.001031
21 0.001030
22 0.001025
23 0.001026
24 0.001022
25 0.001012
26 0.000999
27 0.000985
28 0.000971
29 0.000957
30 0.000956
31 0.000959
32 0.000963
33 0.000963
34 0.000958
35 0.000949
36 0.000938
37 0.000928
38 0.000920
39 0.000912
40 0.000901
41 0.000896
42 0.000885
43 0.000863
44 0.000848
45 0.000843
46 0.000835
47 0.000837
48 0.000829
49 0.000817
50 0.000806
51 0.000794
52 0.000792
53 0.000796
54 0.000797
55 0.000799
56 0.000799
57 0.000795
58 0.000795
59 0.000783
60 0.000763
61 0.000744
62 0.000729
63 0.000707
64 0.000693
65 0.000681
66 0.000672
67 0.000664
68 0.000652
69 0.000639
70 0.000638
71 0.000632
72 0.000639
73 0.000643
74 0.000637
75 0.000625
76 0.000622
77 0.000624
78 0.000631
79 0.000640
80 0.000644
81 0.000643
82 0.000643
83 0.000637
84 0.000628
85 0.000620
86 0.000617
87 0.000609
88 0.000605
89 0.000598
90 0.000596
91 0.000598
92 0.000605
93 0.000609
94 0.000617
95 0.000616
96 0.000610
97 0.000607
98 0.000597
99 0.000593
100 0.000585
101 0.000579
102 0.000571
103 0.000572
104 0.000572
105 0.000569
106 0.000563
107 0.000559
108 0.000556
109 0.000548
110 0.000536
111 0.000522
112 0.000508
113 0.000503
114 0.000502
115 0.000507
116 0.000501
117 0.000502
118 0.000501
119 0.000512
120 0.000528
121 0.000541
122 0.000549
123 0.000552
124 0.000567
125 0.000572
126 0.000578
127 0.000576
128 0.000575
129 0.000580
130 0.000584
131 0.000590
132 0.000587
133 0.000583
134 0.000582
135 0.000579
136 0.000574
137 0.000566
138 0.000565
139 0.000568
140 0.000565
141 0.000566
142 0.000564
143 0.000555
144 0.000553
145 0.000554
146 0.000559
147 0.000560
148 0.000561
149 0.000559
150 0.000555
151 0.000552
152 0.000552
153 0.000544
154 0.000538
155 0.000540
156 0.000541
157 0.000543
158 0.000544
159 0.000541
160 0.000533
161 0.000525
162 0.000515
163 0.000506
164 0.000500
165 0.000500
166 0.000504
167 0.000507
168 0.000507
169 0.000505
170 0.000501
171 0.000493
172 0.000490
173 0.000490
174 0.000487
175 0.000493
176 0.000494
177 0.000494
178 0.000496
179 0.000500
180 0.000498
181 0.000496
182 0.000495
183 0.000498
184 0.000496
185 0.000497
186 0.000501
187 0.000502
188 0.000508
189 0.000511
190 0.000504
191 0.000500
192 0.000493
193 0.000488
194 0.000490
195 0.000478
196 0.000472
197 0.000461
198 0.000457
199 0.000453
200 0.000452
201 0.000455
202 0.000455
203 0.000459
204 0.000458
205 0.000459
206 0.000457
207 0.000451
208 0.000444
209 0.000445
210 0.000442
211 0.000446
212 0.000450
213 0.000454
214 0.000459
215 0.000461
216 0.000462
217 0.000467
218 0.000470
219 0.000471
220 0.000467
221 0.000466
222 0.000463
223 0.000455
224 0.000448
225 0.000441
226 0.000435
227 0.000430
228 0.000436
229 0.000436
230 0.000437
231 0.000436
232 0.000435
233 0.000426
234 0.000423
235 0.000423
236 0.000419
237 0.000422
238 0.000417
239 0.000416
240 0.000412
241 0.000410
242 0.000403
243 0.000405
244 0.000410
245 0.000424
246 0.000431
247 0.000441
248 0.000445
249 0.000458
