# i correlation
1 0.002162
2 0.002086
3 0.002015
4 0.001945
5 0.001894
6 0.001846
7 0.001809
8 0.001776
9 0.001746
10 0.001723
11 0.001707
12 0.001691
13 0.001685
14 0.001676
15 0.001666
16 0.001659
17 0.001650
18 0.001633
19 0.001617
20 0.001601
21 0.001588
22 0.001580
23 0.001574
24 0.001562
25 0.001550
26 0.001535
27 0.001520
28 0.001509
29 0.001507
30 0.001496
31 0.001485
32 0.001483
33 0.001481
34 0.001479
35 0.001468
36 0.001463
37 0.001453
38 0.001441
39 0.001432
40 0.001435
41 0.001443
42 0.001446
43 0.001448
44 0.001439
45 0.001426
46 0.001409
47 0.001398
48 0.001382
49 0.001373
50 0.001364
51 0.001355
52 0.001341
53 0.001331
54 0.001325
55 0.001316
56 0.001301
57 0.001292
58 0.001279
59 0.001278
60 0.001264
61 0.001251
62 0.001241
63 0.001239
64 0.001241
65 0.001242
66 0.001239
67 0.001229
68 0.001218
69 0.001204
70 0.001201
71 0.001195
72 0.001202
73 0.001208
74 0.001212
75 0.001227
76 0.001244
77 0.001258
78 0.001269
79 0.001280
80 0.001284
81 0.001274
82 0.001271
83 0.001261
84 0.001247
85 0.001237
86 0.001229
87 0.001229
88 0.001226
89 0.001219
90 0.001214
91 0.001204
92 0.001197
93 0.001193
94 0.001186
95 0.001177
96 0.001172
97 0.001163
98 0.001160
99 0.001156
100 0.001147
101 0.001139
102 0.001125
103 0.001110
104 0.001098
105 0.001081
106 0.001070
107 0.001063
108 0.001057
109 0.001056
110 0.001055
111 0.001057
112 0.001063
113 0.001073
114 0.001085
115 0.001087
116 0.001086
117 0.001087
118 0.001087
119 0.001085
120 0.001089
121 0.001093
122 0.001097
123 0.001104
124 0.001101
125 0.001112
126 0.001114
127 0.001121
128 0.001115
129 0.001111
130 0.001113
131 0.001108
132 0.001106
133 0.001104
134 0.001099
135 0.001093
136 0.001086
137 0.001078
138 0.001070
139 0.001062
140 0.001050
141 0.001042
142 0.001036
143 0.001037
144 0.001037
145 0.001033
146 0.001024
147 0.001014
148 0.001006
149 0.000992
150 0.000981
151 0.000970
152 0.000964
153 0.000951
154 0.000937
155 0.000935
156 0.000940
157 0.000934
158 0.000930
159 0.000925
160 0.000921
161 0.000920
162 0.000919
163 0.000921
164 0.000925
165 0.000918
166 0.000917
167 0.000918
168 0.000926
169 0.000926
170 0.000921
171 0.000917
172 0.000909
173 0.000904
174 0.000908
175 0.000906
176 0.000892
177 0.000890
178 0.000879
179 0.000872
180 0.000865
181 0.000855
182 0.000828
183 0.000797
184 0.000780
185 0.000764
186 0.000761
187 0.000754
188 0.000747
189 0.000746
190 0.000753
191 0.000764
192 0.000771
193 0.000781
194 0.000780
195 0.000765
196 0.000753
197 0.000741
198 0.000727
199 0.000712
200 0.000698
201 0.000682
202 0.000677
203 0.000682
204 0.000692
205 0.000699
206 0.000698
207 0.000703
208 0.000702
209 0.000701
210 0.000699
211 0.000700
212 0.000700
213 0.000699
214 0.000692
215 0.000684
216 0.000672
217 0.000665
218 0.000662
219 0.000668
220 0.000682
221 0.000695
222 0.000707
223 0.000713
224 0.000721
225 0.000718
226 0.000711
227 0.000709
228 0.000706
229 0.000704
230 0.000700
231 0.000696
232 0.000688
233 0.000675
234 0.000671
235 0.000665
236 0.000662
237 0.000658
238 0.000652
239 0.000651
240 0.000642
241 0.000636
242 0.000628
243 0.000622
244 0.000623
245 0.000626
246 0.000630
247 0.000632
248 0.000637
249 0.000637
