# i correlation
1 0.002141
2 0.002069
3 0.002012
4 0.001965
5 0.001923
6 0.001884
7 0.001846
8 0.001818
9 0.001791
10 0.001761
11 0.001734
12 0.001711
13 0.001690
14 0.001665
15 0.001644
16 0.001642
17 0.001642
18 0.001646
19 0.001643
20 0.001633
21 0.001620
22 0.001616
23 0.001604
24 0.001593
25 0.001574
26 0.001552
27 0.001537
28 0.001524
29 0.001511
30 0.001497
31 0.001490
32 0.001479
33 0.001467
34 0.001454
35 0.001445
36 0.001431
37 0.001418
38 0.001408
39 0.001398
40 0.001380
41 0.001369
42 0.001358
43 0.001339
44 0.001327
45 0.001317
46 0.001302
47 0.001292
48 0.001287
49 0.001275
50 0.001266
51 0.001263
52 0.001255
53 0.001241
54 0.001238
55 0.001225
56 0.001215
57 0.001200
58 0.001187
59 0.001180
60 0.001168
61 0.001153
62 0.001141
63 0.001130
64 0.001116
65 0.001102
66 0.001094
67 0.001087
68 0.001074
69 0.001063
70 0.001062
71 0.001061
72 0.001063
73 0.001065
74 0.001068
75 0.001072
76 0.001068
77 0.001064
78 0.001065
79 0.001076
80 0.001076
81 0.001076
82 0.001076
83 0.001081
84 0.001084
85 0.001084
86 0.001076
87 0.001065
88 0.001066
89 0.001060
90 0.001055
91 0.001047
92 0.001041
93 0.001038
94 0.001034
95 0.001034
96 0.001032
97 0.001029
98 0.001026
99 0.001025
100 0.001017
101 0.001016
102 0.001016
103 0.001017
104 0.001012
105 0.001005
106 0.000996
107 0.000988
108 0.000980
109 0.000968
110 0.000963
111 0.000954
112 0.000943
113 0.000934
114 0.000936
115 0.000932
116 0.000932
117 0.000928
118 0.000929
119 0.000933
120 0.000936
121 0.000939
122 0.000938
123 0.000947
124 0.000947
125 0.000946
126 0.000942
127 0.000949
128 0.000947
129 0.000944
130 0.000929
131 0.000913
132 0.000905
133 0.000897
134 0.000890
135 0.000880
136 0.000869
137 0.000847
138 0.000832
139 0.000808
140 0.000788
141 0.000775
142 0.000772
143 0.000762
144 0.000755
145 0.000747
146 0.000740
147 0.000730
148 0.000729
149 0.000732
150 0.000738
151 0.000744
152 0.000747
153 0.000740
154 0.000738
155 0.000736
156 0.000725
157 0.000712
158 0.000703
159 0.000697
160 0.000689
161 0.000680
162 0.000675
163 0.000667
164 0.000668
165 0.000676
166 0.000675
167 0.000678
168 0.000688
169 0.000703
170 0.000714
171 0.000724
172 0.000728
173 0.000741
174 0.000742
175 0.000746
176 0.000742
177 0.000741
178 0.000743
179 0.000745
180 0.000740
181 0.000744
182 0.000741
183 0.000741
184 0.000736
185 0.000724
186 0.000722
187 0.000727
188 0.000725
189 0.000728
190 0.000730
191 0.000731
192 0.000726
193 0.000720
194 0.000717
195 0.000721
196 0.000729
197 0.000737
198 0.000743
199 0.000743
200 0.000744
201 0.000740
202 0.000740
203 0.000745
204 0.000747
205 0.000751
206 0.000762
207 0.000764
208 0.000769
209 0.000776
210 0.000781
211 0.000778
212 0.000776
213 0.000774
214 0.000771
215 0.000770
216 0.000764
217 0.000758
218 0.000755
219 0.000749
220 0.000740
221 0.000733
222 0.000731
223 0.000728
224 0.000726
225 0.000723
226 0.000720
227 0.000715
228 0.000707
229 0.000703
230 0.000700
231 0.000708
232 0.000704
233 0.000705
234 0.000707
235 0.000708
236 0.000698
237 0.000694
238 0.000686
239 0.000681
240 0.000681
241 0.000674
242 0.000667
243 0.000664
244 0.000662
245 0.000650
246 0.000640
247 0.000630
248 0.000629
249 0.000630
