# i correlation
1 0.001894
2 0.001826
3 0.001757
4 0.001704
5 0.001662
6 0.001631
7 0.001602
8 0.001564
9 0.001529
10 0.001492
11 0.001462
12 0.001440
13 0.001424
14 0.001420
15 0.001415
16 0.001408
17 0.001404
18 0.001392
19 0.001387
20 0.001388
21 0.001389
22 0.001394
23 0.001407
24 0.001418
25 0.001413
26 0.001407
27 0.001391
28 0.001377
29 0.001365
30 0.001356
31 0.001345
32 0.001334
33 0.001319
34 0.001294
35 0.001277
36 0.001268
37 0.001258
38 0.001252
39 0.001236
40 0.001225
41 0.001217
42 0.001218
43 0.001222
44 0.001227
45 0.001230
46 0.001218
47 0.001207
48 0.001190
49 0.001171
50 0.001150
51 0.001135
52 0.001121
53 0.001107
54 0.001090
55 0.001078
56 0.001073
57 0.001069
58 0.001065
59 0.001067
60 0.001063
61 0.001071
62 0.001079
63 0.001088
64 0.001102
65 0.001105
66 0.001107
67 0.001101
68 0.001103
69 0.001104
70 0.001105
71 0.001100
72 0.001095
73 0.001080
74 0.001063
75 0.001046
76 0.001039
77 0.001029
78 0.001024
79 0.001017
80 0.001010
81 0.001002
82 0.000987
83 0.000980
84 0.000970
85 0.000969
86 0.000968
87 0.000967
88 0.000965
89 0.000961
90 0.000961
91 0.000965
92 0.000970
93 0.000977
94 0.000980
95 0.000979
96 0.000978
97 0.000972
98 0.000962
99 0.000952
100 0.000953
101 0.000950
102 0.000948
103 0.000940
104 0.000934
105 0.000927
106 0.000921
107 0.000918
108 0.000916
109 0.000917
110 0.000920
111 0.000917
112 0.000915
113 0.000907
114 0.000899
115 0.000890
116 0.000890
117 0.000886
118 0.000885
119 0.000883
120 0.000877
121 0.000869
122 0.000869
123 0.000871
124 0.000872
125 0.000872
126 0.000874
127 0.000868
128 0.000867
129 0.000861
130 0.000859
131 0.000854
132 0.000854
133 0.000855
134 0.000862
135 0.000864
136 0.000863
137 0.000867
138 0.000872
139 0.000881
140 0.000886
141 0.000887
142 0.000889
143 0.000896
144 0.000900
145 0.000907
146 0.000903
147 0.000899
148 0.000894
149 0.000892
150 0.000889
151 0.000885
152 0.000887
153 0.000882
154 0.000880
155 0.000875
156 0.000869
157 0.000860
158 0.000853
159 0.000852
160 0.000844
161 0.000839
162 0.000837
163 0.000837
164 0.000834
165 0.000832
166 0.000832
167 0.000834
168 0.000839
169 0.000846
170 0.000852
171 0.000850
172 0.000844
173 0.000843
174 0.000844
175 0.000837
176 0.000838
177 0.000830
178 0.000820
179 0.000804
180 0.000787
181 0.000777
182 0.000773
183 0.000768
184 0.000761
185 0.000748
186 0.000732
187 0.000720
188 0.000715
189 0.000717
190 0.000718
191 0.000723
192 0.000728
193 0.000726
194 0.000724
195 0.000716
196 0.000716
197 0.000719
198 0.000730
199 0.000732
200 0.000737
201 0.000739
202 0.000736
203 0.000734
204 0.000728
205 0.000726
206 0.000728
207 0.000733
208 0.000736
209 0.000730
210 0.000717
211 0.000705
212 0.000692
213 0.000683
214 0.000685
215 0.000690
216 0.000689
217 0.000686
218 0.000677
219 0.000669
220 0.000669
221 0.000674
222 0.000680
223 0.000682
224 0.000683
225 0.000687
226 0.000681
227 0.000674
228 0.000669
229 0.000663
230 0.000654
231 0.000651
232 0.000650
233 0.000642
234 0.000631
235 0.000631
236 0.000625
237 0.000629
238 0.000628
239 0.000632
240 0.000632
241 0.000628
242 0.000638
243 0.000644
244 0.000652
245 0.000664
246 0.000672
247 0.000672
248 0.000667
249 0.000659
