# i correlation
1 0.001785
2 0.001714
3 0.001643
4 0.001590
5 0.001550
6 0.001517
7 0.001485
8 0.001462
9 0.001447
10 0.001429
11 0.001418
12 0.001413
13 0.001410
14 0.001400
15 0.001384
16 0.001360
17 0.001340
18 0.001324
19 0.001315
20 0.001301
21 0.001299
22 0.001298
23 0.001299
24 0.001300
25 0.001305
26 0.001309
27 0.001312
28 0.001309
29 0.001296
30 0.001287
31 0.001278
32 0.001272
33 0.001264
34 0.001260
35 0.001260
36 0.001267
37 0.001273
38 0.001275
39 0.001279
40 0.001270
41 0.001264
42 0.001258
43 0.001251
44 0.001244
45 0.001229
46 0.001221
47 0.001221
48 0.001224
49 0.001238
50 0.001250
51 0.001261
52 0.001268
53 0.001256
54 0.001243
55 0.001237
56 0.001235
57 0.001228
58 0.001226
59 0.001218
60 0.001216
61 0.001217
62 0.001218
63 0.001215
64 0.001217
65 0.001213
66 0.001195
67 0.001184
68 0.001165
69 0.001148
70 0.001135
71 0.001121
72 0.001102
73 0.001090
74 0.001075
75 0.001062
76 0.001059
77 0.001059
78 0.001050
79 0.001043
80 0.001050
81 0.001049
82 0.001053
83 0.001053
84 0.001060
85 0.001052
86 0.001057
87 0.001051
88 0.001048
89 0.001046
90 0.001043
91 0.001041
92 0.001037
93 0.001027
94 0.001020
95 0.001019
96 0.001012
97 0.001010
98 0.001007
99 0.001006
100 0.001002
101 0.001007
102 0.000996
103 0.000990
104 0.000970
105 0.000956
106 0.000937
107 0.000927
108 0.000926
109 0.000923
110 0.000914
111 0.000907
112 0.000897
113 0.000893
114 0.000889
115 0.000886
116 0.000894
117 0.000893
118 0.000886
119 0.000884
120 0.000879
121 0.000870
122 0.000865
123 0.000867
124 0.000870
125 0.000867
126 0.000860
127 0.000852
128 0.000849
129 0.000852
130 0.000860
131 0.000868
132 0.000874
133 0.000880
134 0.000882
135 0.000885
136 0.000886
137 0.000884
138 0.000884
139 0.000877
140 0.000870
141 0.000851
142 0.000840
143 0.000825
144 0.000814
145 0.000803
146 0.000793
147 0.000794
148 0.000795
149 0.000794
150 0.000797
151 0.000797
152 0.000802
153 0.000803
154 0.000803
155 0.000801
156 0.000792
157 0.000787
158 0.000785
159 0.000787
160 0.000788
161 0.000784
162 0.000777
163 0.000775
164 0.000775
165 0.000771
166 0.000763
167 0.000757
168 0.000755
169 0.000743
170 0.000723
171 0.000707
172 0.000702
173 0.000689
174 0.000680
175 0.000675
176 0.000664
177 0.000651
178 0.000643
179 0.000631
180 0.000617
181 0.000616
182 0.000616
183 0.000618
184 0.000618
185 0.000620
186 0.000624
187 0.000633
188 0.000635
189 0.000636
190 0.000636
191 0.000638
192 0.000637
193 0.000636
194 0.000629
195 0.000625
196 0.000625
197 0.000618
198 0.000604
199 0.000590
200 0.000595
201 0.000593
202 0.000592
203 0.000581
204 0.000568
205 0.000554
206 0.000541
207 0.000535
208 0.000528
209 0.000523
210 0.000528
211 0.000534
212 0.000538
213 0.000541
214 0.000549
215 0.000555
216 0.000564
217 0.000577
218 0.000584
219 0.000598
220 0.000606
221 0.000613
222 0.000617
223 0.000622
224 0.000631
225 0.000632
226 0.000630
227 0.000624
228 0.000618
229 0.000617
230 0.000609
231 0.000599
232 0.000594
233 0.000585
234 0.000575
235 0.000562
236 0.000550
237 0.000540
238 0.000538
239 0.000530
240 0.000521
241 0.000513
242 0.000502
243 0.000493
244 0.000490
245 0.000489
246 0.000493
247 0.000488
248 0.000489
249 0.000494
