# i correlation
1 0.001585
2 0.001550
3 0.001522
4 0.001494
5 0.001470
6 0.001446
7 0.001428
8 0.001414
9 0.001403
10 0.001391
11 0.001378
12 0.001368
13 0.001360
14 0.001351
15 0.001338
16 0.001325
17 0.001315
18 0.001306
19 0.001298
20 0.001293
21 0.001290
22 0.001284
23 0.001278
24 0.001274
25 0.001268
26 0.001262
27 0.001256
28 0.001250
29 0.001245
30 0.001243
31 0.001243
32 0.001238
33 0.001232
34 0.001230
35 0.001227
36 0.001227
37 0.001226
38 0.001226
39 0.001226
40 0.001225
41 0.001222
42 0.001220
43 0.001218
44 0.001216
45 0.001214
46 0.001206
47 0.001196
48 0.001190
49 0.001182
50 0.001175
51 0.001173
52 0.001171
53 0.001169
54 0.001168
55 0.001164
56 0.001161
57 0.001161
58 0.001158
59 0.001153
60 0.001143
61 0.001134
62 0.001126
63 0.001119
64 0.001111
65 0.001104
66 0.001097
67 0.001091
68 0.001083
69 0.001073
70 0.001064
71 0.001054
72 0.001046
73 0.001038
74 0.001029
75 0.001019
76 0.001010
77 0.001003
78 0.001000
79 0.000996
80 0.000990
81 0.000988
82 0.000984
83 0.000983
84 0.000981
85 0.000980
86 0.000978
87 0.000979
88 0.000979
89 0.000980
90 0.000981
91 0.000983
92 0.000985
93 0.000989
94 0.000989
95 0.000991
96 0.000992
97 0.000990
98 0.000991
99 0.000986
100 0.000979
101 0.000973
102 0.000967
103 0.000966
104 0.000962
105 0.000959
106 0.000954
107 0.000949
108 0.000946
109 0.000942
110 0.000940
111 0.000939
112 0.000935
113 0.000931
114 0.000924
115 0.000918
116 0.000913
117 0.000911
118 0.000907
119 0.000904
120 0.000900
121 0.000895
122 0.000890
123 0.000887
124 0.000885
125 0.000881
126 0.000878
127 0.000875
128 0.000872
129 0.000873
130 0.000876
131 0.000877
132 0.000879
133 0.000881
134 0.000881
135 0.000880
136 0.000879
137 0.000880
138 0.000880
139 0.000878
140 0.000876
141 0.000873
142 0.000868
143 0.000865
144 0.000860
145 0.000855
146 0.000852
147 0.000849
148 0.000848
149 0.000845
150 0.000842
151 0.000842
152 0.000844
153 0.000843
154 0.000844
155 0.000848
156 0.000848
157 0.000846
158 0.000840
159 0.000833
160 0.000830
161 0.000824
162 0.000820
163 0.000815
164 0.000812
165 0.000806
166 0.000798
167 0.000790
168 0.000784
169 0.000780
170 0.000776
171 0.000767
172 0.000759
173 0.000753
174 0.000750
175 0.000748
176 0.000746
177 0.000744
178 0.000740
179 0.000734
180 0.000729
181 0.000725
182 0.000722
183 0.000723
184 0.000726
185 0.000729
186 0.000728
187 0.000726
188 0.000724
189 0.000720
190 0.000716
191 0.000716
192 0.000718
193 0.000719
194 0.000720
195 0.000722
196 0.000725
197 0.000729
198 0.000731
199 0.000728
200 0.000730
201 0.000730
202 0.000726
203 0.000720
204 0.000713
205 0.000708
206 0.000707
207 0.000702
208 0.000700
209 0.000697
210 0.000692
211 0.000687
212 0.000680
213 0.000677
214 0.000675
215 0.000672
216 0.000668
217 0.000660
218 0.000655
219 0.000649
220 0.000642
221 0.000638
222 0.000636
223 0.000636
224 0.000633
225 0.000629
226 0.000629
227 0.000629
228 0.000628
229 0.000626
230 0.000622
231 0.000617
232 0.000611
233 0.000604
234 0.000597
235 0.000592
236 0.000590
237 0.000588
238 0.000590
239 0.000589
240 0.000588
241 0.000587
242 0.000587
243 0.000586
244 0.000587
245 0.000586
246 0.000588
247 0.000592
248 0.000597
249 0.000598
250 0.000598
251 0.000600
252 0.000603
253 0.000608
254 0.000610
255 0.000609
256 0.000607
257 0.000606
258 0.000602
259 0.000598
260 0.000597
261 0.000594
262 0.000594
263 0.000593
264 0.000592
265 0.000594
266 0.000595
267 0.000598
268 0.000598
269 0.000597
270 0.000592
271 0.000584
272 0.000577
273 0.000568
274 0.000562
275 0.000557
276 0.000552
277 0.000545
278 0.000541
279 0.000540
280 0.000539
281 0.000539
282 0.000539
283 0.000540
284 0.000538
285 0.000535
286 0.000535
287 0.000535
288 0.000536
289 0.000537
290 0.000539
291 0.000539
292 0.000539
293 0.000542
294 0.000543
295 0.000543
296 0.000546
297 0.000547
298 0.000545
299 0.000543
300 0.000537
301 0.000533
302 0.000531
303 0.000530
304 0.000530
305 0.000529
306 0.000527
307 0.000526
308 0.000528
309 0.000528
310 0.000527
311 0.000530
312 0.000531
313 0.000531
314 0.000530
315 0.000527
316 0.000524
317 0.000522
318 0.000516
319 0.000516
320 0.000516
321 0.000519
322 0.000522
323 0.000522
324 0.000523
325 0.000524
326 0.000525
327 0.000525
328 0.000522
329 0.000520
330 0.000517
331 0.000517
332 0.000517
333 0.000517
334 0.000519
335 0.000520
336 0.000520
337 0.000519
338 0.000516
339 0.000514
340 0.000515
341 0.000516
342 0.000517
343 0.000515
344 0.000512
345 0.000509
346 0.000509
347 0.000510
348 0.000511
349 0.000511
350 0.000508
351 0.000507
352 0.000509
353 0.000510
354 0.000509
355 0.000509
356 0.000510
357 0.000512
358 0.000512
359 0.000510
360 0.000509
361 0.000510
362 0.000509
363 0.000504
364 0.000499
365 0.000496
366 0.000492
367 0.000486
368 0.000479
369 0.000471
370 0.000466
371 0.000463
372 0.000459
373 0.000457
374 0.000454
375 0.000454
376 0.000453
377 0.000454
378 0.000453
379 0.000456
380 0.000455
381 0.000453
382 0.000451
383 0.000451
384 0.000449
385 0.000448
386 0.000451
387 0.000452
388 0.000450
389 0.000448
390 0.000445
391 0.000440
392 0.000439
393 0.000438
394 0.000437
395 0.000435
396 0.000435
397 0.000436
398 0.000436
399 0.000441
400 0.000450
401 0.000454
402 0.000457
403 0.000460
404 0.000461
405 0.000462
406 0.000464
407 0.000465
408 0.000464
409 0.000465
410 0.000467
411 0.000468
412 0.000466
413 0.000463
414 0.000460
415 0.000458
416 0.000455
417 0.000452
418 0.000447
419 0.000445
420 0.000447
421 0.000447
422 0.000447
423 0.000447
424 0.000449
425 0.000448
426 0.000446
427 0.000446
428 0.000444
429 0.000444
430 0.000442
431 0.000440
432 0.000438
433 0.000436
434 0.000433
435 0.000431
436 0.000429
437 0.000428
438 0.000428
439 0.000425
440 0.000421
441 0.000418
442 0.000415
443 0.000412
444 0.000412
445 0.000413
446 0.000414
447 0.000414
448 0.000412
449 0.000411
450 0.000411
451 0.000412
452 0.000414
453 0.000417
454 0.000419
455 0.000418
456 0.000415
457 0.000413
458 0.000413
459 0.000414
460 0.000417
461 0.000418
462 0.000419
463 0.000419
464 0.000421
465 0.000424
466 0.000426
467 0.000427
468 0.000431
469 0.000434
470 0.000431
471 0.000429
472 0.000424
473 0.000421
474 0.000418
475 0.000414
476 0.000410
477 0.000407
478 0.000407
479 0.000402
480 0.000400
481 0.000401
482 0.000400
483 0.000397
484 0.000396
485 0.000393
486 0.000389
487 0.000382
488 0.000378
489 0.000376
490 0.000378
491 0.000381
492 0.000383
493 0.000384
494 0.000386
495 0.000389
496 0.000392
497 0.000394
498 0.000397
499 0.000396
500 0.000394
501 0.000390
502 0.000386
503 0.000383
504 0.000381
505 0.000379
506 0.000376
507 0.000373
508 0.000371
509 0.000369
510 0.000365
511 0.000360
512 0.000357
513 0.000353
514 0.000349
515 0.000344
516 0.000343
517 0.000343
518 0.000345
519 0.000347
520 0.000348
521 0.000348
522 0.000350
523 0.000351
524 0.000349
525 0.000347
526 0.000344
527 0.000339
528 0.000333
529 0.000329
530 0.000326
531 0.000324
532 0.000322
533 0.000319
534 0.000317
535 0.000315
536 0.000314
537 0.000312
538 0.000310
539 0.000310
540 0.000308
541 0.000306
542 0.000304
543 0.000302
544 0.000299
545 0.000295
546 0.000290
547 0.000284
548 0.000281
549 0.000280
550 0.000282
551 0.000284
552 0.000284
553 0.000285
554 0.000283
555 0.000282
556 0.000281
557 0.000280
558 0.000282
559 0.000283
560 0.000285
561 0.000288
562 0.000293
563 0.000301
564 0.000305
565 0.000308
566 0.000307
567 0.000305
568 0.000301
569 0.000295
570 0.000290
571 0.000286
572 0.000280
573 0.000276
574 0.000271
575 0.000266
576 0.000262
577 0.000259
578 0.000253
579 0.000249
580 0.000246
581 0.000243
582 0.000239
583 0.000236
584 0.000236
585 0.000235
586 0.000233
587 0.000232
588 0.000234
589 0.000238
590 0.000241
591 0.000241
592 0.000239
593 0.000239
594 0.000241
595 0.000241
596 0.000242
597 0.000243
598 0.000243
599 0.000243
600 0.000241
601 0.000242
602 0.000246
603 0.000250
604 0.000249
605 0.000253
606 0.000257
607 0.000263
608 0.000268
609 0.000271
610 0.000271
611 0.000269
612 0.000265
613 0.000262
614 0.000259
615 0.000259
616 0.000258
617 0.000259
618 0.000259
619 0.000258
620 0.000257
621 0.000257
622 0.000256
623 0.000255
624 0.000253
625 0.000251
626 0.000248
627 0.000246
628 0.000246
629 0.000245
630 0.000244
631 0.000241
632 0.000236
633 0.000232
634 0.000224
635 0.000219
636 0.000215
637 0.000211
638 0.000210
639 0.000209
640 0.000207
641 0.000204
642 0.000201
643 0.000197
644 0.000194
645 0.000189
646 0.000187
647 0.000184
648 0.000183
649 0.000183
650 0.000184
651 0.000186
652 0.000186
653 0.000189
654 0.000192
655 0.000195
656 0.000196
657 0.000196
658 0.000195
659 0.000194
660 0.000194
661 0.000194
662 0.000196
663 0.000198
664 0.000201
665 0.000202
666 0.000203
667 0.000203
668 0.000206
669 0.000210
670 0.000209
671 0.000207
672 0.000205
673 0.000203
674 0.000201
675 0.000200
676 0.000197
677 0.000194
678 0.000191
679 0.000187
680 0.000182
681 0.000178
682 0.000177
683 0.000175
684 0.000174
685 0.000172
686 0.000169
687 0.000168
688 0.000164
689 0.000160
690 0.000157
691 0.000154
692 0.000151
693 0.000147
694 0.000143
695 0.000139
696 0.000137
697 0.000132
698 0.000129
699 0.000128
700 0.000130
701 0.000131
702 0.000130
703 0.000130
704 0.000128
705 0.000126
706 0.000125
707 0.000126
708 0.000127
709 0.000129
710 0.000130
711 0.000130
712 0.000129
713 0.000130
714 0.000132
715 0.000131
716 0.000131
717 0.000133
718 0.000134
719 0.000136
720 0.000140
721 0.000143
722 0.000145
723 0.000146
724 0.000146
725 0.000145
726 0.000146
727 0.000145
728 0.000144
729 0.000143
730 0.000139
731 0.000134
732 0.000132
733 0.000129
734 0.000125
735 0.000121
736 0.000118
737 0.000115
738 0.000112
739 0.000109
740 0.000104
741 0.000101
742 0.000100
743 0.000097
744 0.000092
745 0.000090
746 0.000087
747 0.000086
748 0.000086
749 0.000085
750 0.000084
751 0.000083
752 0.000081
753 0.000080
754 0.000077
755 0.000073
756 0.000073
757 0.000073
758 0.000075
759 0.000076
760 0.000079
761 0.000081
762 0.000083
763 0.000086
764 0.000088
765 0.000089
766 0.000091
767 0.000091
768 0.000089
769 0.000085
770 0.000081
771 0.000078
772 0.000075
773 0.000072
774 0.000068
775 0.000061
776 0.000056
777 0.000053
778 0.000048
779 0.000045
780 0.000041
781 0.000037
782 0.000034
783 0.000031
784 0.000025
785 0.000020
786 0.000017
787 0.000015
788 0.000011
789 0.000006
790 0.000004
791 0.000002
792 -0.000001
793 -0.000004
794 -0.000006
795 -0.000009
796 -0.000012
797 -0.000018
798 -0.000025
799 -0.000029
800 -0.000034
801 -0.000036
802 -0.000038
803 -0.000040
804 -0.000040
805 -0.000039
806 -0.000037
807 -0.000035
808 -0.000033
809 -0.000032
