# i correlation
1 0.001314
2 0.001280
3 0.001253
4 0.001228
5 0.001207
6 0.001193
7 0.001178
8 0.001164
9 0.001150
10 0.001135
11 0.001120
12 0.001104
13 0.001093
14 0.001088
15 0.001084
16 0.001079
17 0.001074
18 0.001068
19 0.001059
20 0.001053
21 0.001049
22 0.001043
23 0.001039
24 0.001036
25 0.001031
26 0.001027
27 0.001021
28 0.001017
29 0.001014
30 0.001008
31 0.001006
32 0.001005
33 0.000999
34 0.000989
35 0.000979
36 0.000966
37 0.000954
38 0.000942
39 0.000934
40 0.000931
41 0.000924
42 0.000917
43 0.000904
44 0.000892
45 0.000885
46 0.000881
47 0.000878
48 0.000874
49 0.000872
50 0.000870
51 0.000864
52 0.000856
53 0.000849
54 0.000846
55 0.000845
56 0.000842
57 0.000840
58 0.000838
59 0.000834
60 0.000831
61 0.000829
62 0.000824
63 0.000820
64 0.000814
65 0.000809
66 0.000802
67 0.000794
68 0.000783
69 0.000772
70 0.000766
71 0.000764
72 0.000761
73 0.000756
74 0.000750
75 0.000745
76 0.000741
77 0.000738
78 0.000736
79 0.000735
80 0.000733
81 0.000736
82 0.000736
83 0.000735
84 0.000733
85 0.000731
86 0.000729
87 0.000733
88 0.000734
89 0.000737
90 0.000739
91 0.000737
92 0.000735
93 0.000735
94 0.000736
95 0.000734
96 0.000731
97 0.000730
98 0.000723
99 0.000717
100 0.000712
101 0.000707
102 0.000704
103 0.000701
104 0.000699
105 0.000699
106 0.000698
107 0.000693
108 0.000686
109 0.000679
110 0.000673
111 0.000673
112 0.000674
113 0.000675
114 0.000672
115 0.000669
116 0.000666
117 0.000664
118 0.000660
119 0.000655
120 0.000653
121 0.000652
122 0.000653
123 0.000654
124 0.000652
125 0.000651
126 0.000650
127 0.000651
128 0.000648
129 0.000649
130 0.000649
131 0.000649
132 0.000651
133 0.000651
134 0.000650
135 0.000647
136 0.000645
137 0.000647
138 0.000644
139 0.000642
140 0.000641
141 0.000637
142 0.000637
143 0.000638
144 0.000638
145 0.000636
146 0.000637
147 0.000635
148 0.000633
149 0.000630
150 0.000628
151 0.000628
152 0.000631
153 0.000637
154 0.000642
155 0.000645
156 0.000648
157 0.000647
158 0.000648
159 0.000641
160 0.000638
161 0.000638
162 0.000637
163 0.000634
164 0.000629
165 0.000622
166 0.000617
167 0.000613
168 0.000613
169 0.000615
170 0.000612
171 0.000608
172 0.000604
173 0.000600
174 0.000596
175 0.000594
176 0.000592
177 0.000593
178 0.000597
179 0.000602
180 0.000600
181 0.000596
182 0.000594
183 0.000596
184 0.000596
185 0.000597
186 0.000596
187 0.000595
188 0.000592
189 0.000587
190 0.000583
191 0.000578
192 0.000572
193 0.000572
194 0.000575
195 0.000577
196 0.000579
197 0.000577
198 0.000577
199 0.000573
200 0.000570
201 0.000566
202 0.000564
203 0.000564
204 0.000564
205 0.000560
206 0.000559
207 0.000557
208 0.000559
209 0.000559
210 0.000558
211 0.000557
212 0.000559
213 0.000559
214 0.000560
215 0.000558
216 0.000555
217 0.000553
218 0.000550
219 0.000549
220 0.000546
221 0.000540
222 0.000535
223 0.000528
224 0.000520
225 0.000514
226 0.000509
227 0.000504
228 0.000503
229 0.000504
230 0.000502
231 0.000497
232 0.000493
233 0.000492
234 0.000491
235 0.000490
236 0.000488
237 0.000488
238 0.000486
239 0.000484
240 0.000487
241 0.000487
242 0.000490
243 0.000494
244 0.000496
245 0.000498
246 0.000498
247 0.000498
248 0.000497
249 0.000498
250 0.000503
251 0.000506
252 0.000501
253 0.000496
254 0.000492
255 0.000487
256 0.000481
257 0.000477
258 0.000476
259 0.000474
260 0.000471
261 0.000472
262 0.000473
263 0.000472
264 0.000472
265 0.000471
266 0.000472
267 0.000472
268 0.000473
269 0.000476
270 0.000477
271 0.000474
272 0.000471
273 0.000467
274 0.000466
275 0.000465
276 0.000465
277 0.000464
278 0.000463
279 0.000463
280 0.000463
281 0.000461
282 0.000460
283 0.000460
284 0.000459
285 0.000460
286 0.000459
287 0.000459
288 0.000458
289 0.000456
290 0.000455
291 0.000456
292 0.000457
293 0.000459
294 0.000458
295 0.000460
296 0.000463
297 0.000466
298 0.000470
299 0.000472
300 0.000476
301 0.000484
302 0.000487
303 0.000486
304 0.000484
305 0.000481
306 0.000480
307 0.000477
308 0.000475
309 0.000473
310 0.000472
311 0.000472
312 0.000473
313 0.000469
314 0.000466
315 0.000465
316 0.000466
317 0.000465
318 0.000465
319 0.000463
320 0.000461
321 0.000461
322 0.000458
323 0.000454
324 0.000450
325 0.000448
326 0.000443
327 0.000442
328 0.000439
329 0.000439
330 0.000439
331 0.000438
332 0.000435
333 0.000431
334 0.000428
335 0.000424
336 0.000421
337 0.000421
338 0.000419
339 0.000418
340 0.000419
341 0.000418
342 0.000416
343 0.000414
344 0.000413
345 0.000414
346 0.000414
347 0.000413
348 0.000413
349 0.000411
350 0.000408
351 0.000407
352 0.000409
353 0.000410
354 0.000408
355 0.000407
356 0.000408
357 0.000406
358 0.000404
359 0.000398
360 0.000393
361 0.000389
362 0.000391
363 0.000393
364 0.000394
365 0.000390
366 0.000390
367 0.000388
368 0.000384
369 0.000382
370 0.000380
371 0.000378
372 0.000377
373 0.000374
374 0.000369
375 0.000366
376 0.000365
377 0.000366
378 0.000365
379 0.000367
380 0.000368
381 0.000371
382 0.000372
383 0.000371
384 0.000368
385 0.000363
386 0.000359
387 0.000360
388 0.000359
389 0.000359
390 0.000359
391 0.000359
392 0.000358
393 0.000357
394 0.000355
395 0.000356
396 0.000356
397 0.000356
398 0.000358
399 0.000359
400 0.000357
401 0.000354
402 0.000354
403 0.000357
404 0.000359
405 0.000363
406 0.000364
407 0.000362
408 0.000364
409 0.000362
410 0.000359
411 0.000356
412 0.000359
413 0.000360
414 0.000361
415 0.000359
416 0.000355
417 0.000351
418 0.000349
419 0.000348
420 0.000347
421 0.000345
422 0.000344
423 0.000343
424 0.000343
425 0.000340
426 0.000338
427 0.000338
428 0.000337
429 0.000335
430 0.000335
431 0.000333
432 0.000330
433 0.000328
434 0.000324
435 0.000323
436 0.000323
437 0.000326
438 0.000329
439 0.000329
440 0.000327
441 0.000324
442 0.000320
443 0.000314
444 0.000310
445 0.000306
446 0.000301
447 0.000299
448 0.000296
449 0.000294
450 0.000290
451 0.000287
452 0.000285
453 0.000283
454 0.000284
455 0.000286
456 0.000285
457 0.000288
458 0.000287
459 0.000287
460 0.000286
461 0.000285
462 0.000282
463 0.000278
464 0.000276
465 0.000271
466 0.000269
467 0.000266
468 0.000266
469 0.000266
470 0.000267
471 0.000265
472 0.000264
473 0.000263
474 0.000261
475 0.000259
476 0.000260
477 0.000260
478 0.000261
479 0.000262
480 0.000265
481 0.000263
482 0.000263
483 0.000263
484 0.000264
485 0.000267
486 0.000271
487 0.000275
488 0.000276
489 0.000274
490 0.000272
491 0.000270
492 0.000267
493 0.000267
494 0.000268
495 0.000268
496 0.000270
497 0.000273
498 0.000274
499 0.000277
500 0.000278
501 0.000279
502 0.000281
503 0.000282
504 0.000282
505 0.000280
506 0.000279
507 0.000277
508 0.000278
509 0.000282
510 0.000285
511 0.000286
512 0.000287
513 0.000285
514 0.000287
515 0.000288
516 0.000286
517 0.000283
518 0.000281
519 0.000279
520 0.000278
521 0.000276
522 0.000274
523 0.000272
524 0.000269
525 0.000269
526 0.000267
527 0.000268
528 0.000266
529 0.000263
530 0.000261
531 0.000260
532 0.000261
533 0.000261
534 0.000260
535 0.000261
536 0.000259
537 0.000259
538 0.000259
539 0.000257
540 0.000254
541 0.000255
542 0.000254
543 0.000255
544 0.000256
545 0.000257
546 0.000258
547 0.000259
548 0.000258
549 0.000259
550 0.000259
551 0.000262
552 0.000265
553 0.000264
554 0.000261
555 0.000257
556 0.000253
557 0.000245
558 0.000240
559 0.000239
560 0.000241
561 0.000243
562 0.000244
563 0.000244
564 0.000247
565 0.000247
566 0.000250
567 0.000254
568 0.000254
569 0.000256
570 0.000259
571 0.000261
572 0.000264
573 0.000265
574 0.000265
575 0.000267
576 0.000264
577 0.000261
578 0.000257
579 0.000252
580 0.000247
581 0.000246
582 0.000245
583 0.000243
584 0.000243
585 0.000243
586 0.000243
587 0.000241
588 0.000239
589 0.000236
590 0.000231
591 0.000230
592 0.000231
593 0.000233
594 0.000232
595 0.000230
596 0.000227
597 0.000223
598 0.000219
599 0.000220
600 0.000218
601 0.000218
602 0.000216
603 0.000215
604 0.000212
605 0.000209
606 0.000207
607 0.000205
608 0.000200
609 0.000197
610 0.000194
611 0.000188
612 0.000183
613 0.000179
614 0.000176
615 0.000173
616 0.000171
617 0.000169
618 0.000167
619 0.000164
620 0.000162
621 0.000159
622 0.000158
623 0.000155
624 0.000153
625 0.000149
626 0.000150
627 0.000150
628 0.000147
629 0.000143
630 0.000138
631 0.000136
632 0.000135
633 0.000136
634 0.000137
635 0.000136
636 0.000134
637 0.000131
638 0.000130
639 0.000128
640 0.000129
641 0.000129
642 0.000128
643 0.000128
644 0.000124
645 0.000119
646 0.000116
647 0.000113
648 0.000110
649 0.000111
650 0.000110
651 0.000110
652 0.000110
653 0.000110
654 0.000110
655 0.000110
656 0.000112
657 0.000114
658 0.000116
659 0.000118
660 0.000118
661 0.000117
662 0.000114
663 0.000111
664 0.000112
665 0.000113
666 0.000116
667 0.000118
668 0.000120
669 0.000120
670 0.000120
671 0.000119
672 0.000118
673 0.000118
674 0.000119
675 0.000119
676 0.000118
677 0.000115
678 0.000115
679 0.000112
680 0.000111
681 0.000112
682 0.000115
683 0.000116
684 0.000118
685 0.000119
686 0.000119
687 0.000117
688 0.000118
689 0.000121
690 0.000123
691 0.000123
692 0.000123
693 0.000125
694 0.000126
695 0.000126
696 0.000126
697 0.000127
698 0.000128
699 0.000131
700 0.000135
701 0.000138
702 0.000140
703 0.000139
704 0.000141
705 0.000142
706 0.000142
707 0.000144
708 0.000146
709 0.000148
710 0.000150
711 0.000152
712 0.000151
713 0.000149
714 0.000148
715 0.000148
716 0.000152
717 0.000155
718 0.000158
719 0.000160
720 0.000162
721 0.000164
722 0.000166
723 0.000170
724 0.000172
725 0.000174
726 0.000175
727 0.000176
728 0.000176
729 0.000176
730 0.000175
731 0.000175
732 0.000172
733 0.000171
734 0.000167
735 0.000164
736 0.000160
737 0.000158
738 0.000154
739 0.000153
740 0.000152
741 0.000149
742 0.000148
743 0.000148
744 0.000149
745 0.000151
746 0.000151
747 0.000152
748 0.000152
749 0.000154
750 0.000156
751 0.000158
752 0.000159
753 0.000160
754 0.000160
755 0.000158
756 0.000155
757 0.000152
758 0.000152
759 0.000149
760 0.000148
761 0.000146
762 0.000142
763 0.000138
764 0.000132
765 0.000128
766 0.000122
767 0.000116
768 0.000108
769 0.000103
770 0.000097
771 0.000091
772 0.000086
773 0.000080
774 0.000073
775 0.000067
776 0.000062
777 0.000059
778 0.000057
779 0.000055
780 0.000054
781 0.000053
782 0.000053
783 0.000052
784 0.000052
785 0.000054
786 0.000055
787 0.000056
788 0.000056
789 0.000056
790 0.000055
791 0.000053
792 0.000051
793 0.000048
794 0.000047
795 0.000047
796 0.000044
797 0.000042
798 0.000040
799 0.000035
800 0.000030
801 0.000028
802 0.000025
803 0.000023
804 0.000020
805 0.000019
806 0.000017
807 0.000017
808 0.000015
809 0.000012
