# i correlation
1 0.001595
2 0.001558
3 0.001524
4 0.001490
5 0.001463
6 0.001437
7 0.001414
8 0.001394
9 0.001376
10 0.001363
11 0.001349
12 0.001340
13 0.001328
14 0.001315
15 0.001304
16 0.001293
17 0.001284
18 0.001271
19 0.001262
20 0.001248
21 0.001238
22 0.001228
23 0.001216
24 0.001204
25 0.001194
26 0.001187
27 0.001178
28 0.001170
29 0.001165
30 0.001163
31 0.001159
32 0.001153
33 0.001150
34 0.001149
35 0.001146
36 0.001145
37 0.001140
38 0.001139
39 0.001137
40 0.001131
41 0.001121
42 0.001113
43 0.001109
44 0.001106
45 0.001102
46 0.001097
47 0.001089
48 0.001079
49 0.001071
50 0.001059
51 0.001049
52 0.001040
53 0.001034
54 0.001033
55 0.001026
56 0.001016
57 0.001009
58 0.001000
59 0.000992
60 0.000985
61 0.000978
62 0.000974
63 0.000970
64 0.000969
65 0.000967
66 0.000971
67 0.000972
68 0.000971
69 0.000972
70 0.000972
71 0.000971
72 0.000968
73 0.000967
74 0.000964
75 0.000959
76 0.000958
77 0.000953
78 0.000947
79 0.000941
80 0.000929
81 0.000916
82 0.000905
83 0.000902
84 0.000900
85 0.000900
86 0.000899
87 0.000897
88 0.000900
89 0.000895
90 0.000893
91 0.000890
92 0.000886
93 0.000884
94 0.000879
95 0.000876
96 0.000874
97 0.000872
98 0.000869
99 0.000865
100 0.000859
101 0.000855
102 0.000852
103 0.000851
104 0.000851
105 0.000851
106 0.000851
107 0.000852
108 0.000852
109 0.000856
110 0.000858
111 0.000860
112 0.000863
113 0.000863
114 0.000861
115 0.000860
116 0.000858
117 0.000853
118 0.000850
119 0.000848
120 0.000849
121 0.000850
122 0.000854
123 0.000858
124 0.000861
125 0.000860
126 0.000859
127 0.000856
128 0.000851
129 0.000848
130 0.000841
131 0.000838
132 0.000830
133 0.000821
134 0.000816
135 0.000807
136 0.000800
137 0.000799
138 0.000798
139 0.000798
140 0.000798
141 0.000799
142 0.000803
143 0.000806
144 0.000803
145 0.000803
146 0.000798
147 0.000794
148 0.000790
149 0.000786
150 0.000785
151 0.000783
152 0.000783
153 0.000783
154 0.000780
155 0.000779
156 0.000781
157 0.000780
158 0.000778
159 0.000777
160 0.000775
161 0.000771
162 0.000765
163 0.000756
164 0.000754
165 0.000749
166 0.000745
167 0.000744
168 0.000742
169 0.000739
170 0.000738
171 0.000737
172 0.000730
173 0.000723
174 0.000715
175 0.000713
176 0.000711
177 0.000708
178 0.000705
179 0.000702
180 0.000699
181 0.000696
182 0.000693
183 0.000691
184 0.000687
185 0.000685
186 0.000682
187 0.000678
188 0.000674
189 0.000671
190 0.000670
191 0.000668
192 0.000668
193 0.000666
194 0.000667
195 0.000668
196 0.000669
197 0.000674
198 0.000678
199 0.000680
200 0.000679
201 0.000675
202 0.000670
203 0.000661
204 0.000653
205 0.000647
206 0.000637
207 0.000630
208 0.000624
209 0.000620
210 0.000619
211 0.000617
212 0.000614
213 0.000608
214 0.000601
215 0.000597
216 0.000593
217 0.000589
218 0.000587
219 0.000585
220 0.000584
221 0.000584
222 0.000584
223 0.000584
224 0.000584
225 0.000585
226 0.000586
227 0.000588
228 0.000590
229 0.000593
230 0.000598
231 0.000600
232 0.000600
233 0.000601
234 0.000601
235 0.000600
236 0.000601
237 0.000604
238 0.000608
239 0.000612
240 0.000616
241 0.000617
242 0.000621
243 0.000624
244 0.000629
245 0.000629
246 0.000626
247 0.000622
248 0.000619
249 0.000618
250 0.000618
251 0.000620
252 0.000624
253 0.000623
254 0.000626
255 0.000630
256 0.000632
257 0.000630
258 0.000627
259 0.000621
260 0.000612
261 0.000603
262 0.000595
263 0.000589
264 0.000582
265 0.000578
266 0.000575
267 0.000574
268 0.000573
269 0.000567
270 0.000560
271 0.000554
272 0.000548
273 0.000546
274 0.000547
275 0.000546
276 0.000544
277 0.000541
278 0.000540
279 0.000538
280 0.000536
281 0.000531
282 0.000527
283 0.000523
284 0.000518
285 0.000514
286 0.000509
287 0.000506
288 0.000503
289 0.000497
290 0.000493
291 0.000490
292 0.000484
293 0.000482
294 0.000478
295 0.000478
296 0.000480
297 0.000482
298 0.000487
299 0.000487
300 0.000485
301 0.000484
302 0.000481
303 0.000479
304 0.000475
305 0.000471
306 0.000469
307 0.000464
308 0.000460
309 0.000459
310 0.000460
311 0.000459
312 0.000462
313 0.000463
314 0.000464
315 0.000461
316 0.000459
317 0.000460
318 0.000459
319 0.000456
320 0.000457
321 0.000458
322 0.000458
323 0.000455
324 0.000453
325 0.000450
326 0.000447
327 0.000442
328 0.000442
329 0.000442
330 0.000441
331 0.000441
332 0.000440
333 0.000438
334 0.000435
335 0.000432
336 0.000431
337 0.000431
338 0.000428
339 0.000426
340 0.000425
341 0.000423
342 0.000424
343 0.000422
344 0.000419
345 0.000414
346 0.000412
347 0.000413
348 0.000411
349 0.000408
350 0.000407
351 0.000406
352 0.000411
353 0.000414
354 0.000417
355 0.000418
356 0.000418
357 0.000417
358 0.000411
359 0.000406
360 0.000402
361 0.000396
362 0.000390
363 0.000386
364 0.000384
365 0.000385
366 0.000387
367 0.000388
368 0.000393
369 0.000397
370 0.000400
371 0.000402
372 0.000404
373 0.000403
374 0.000402
375 0.000401
376 0.000404
377 0.000403
378 0.000403
379 0.000403
380 0.000397
381 0.000394
382 0.000394
383 0.000394
384 0.000390
385 0.000385
386 0.000386
387 0.000382
388 0.000377
389 0.000374
390 0.000372
391 0.000374
392 0.000373
393 0.000369
394 0.000369
395 0.000370
396 0.000372
397 0.000371
398 0.000368
399 0.000366
400 0.000361
401 0.000359
402 0.000356
403 0.000353
404 0.000352
405 0.000351
406 0.000349
407 0.000346
408 0.000349
409 0.000352
410 0.000357
411 0.000360
412 0.000364
413 0.000364
414 0.000364
415 0.000364
416 0.000366
417 0.000371
418 0.000375
419 0.000376
420 0.000379
421 0.000382
422 0.000384
423 0.000385
424 0.000384
425 0.000386
426 0.000386
427 0.000388
428 0.000384
429 0.000382
430 0.000382
431 0.000378
432 0.000377
433 0.000374
434 0.000372
435 0.000372
436 0.000371
437 0.000370
438 0.000371
439 0.000371
440 0.000376
441 0.000378
442 0.000378
443 0.000380
444 0.000380
445 0.000379
446 0.000374
447 0.000369
448 0.000367
449 0.000366
450 0.000365
451 0.000363
452 0.000362
453 0.000361
454 0.000360
455 0.000361
456 0.000362
457 0.000362
458 0.000360
459 0.000359
460 0.000356
461 0.000354
462 0.000354
463 0.000354
464 0.000352
465 0.000352
466 0.000351
467 0.000349
468 0.000343
469 0.000338
470 0.000332
471 0.000325
472 0.000319
473 0.000313
474 0.000312
475 0.000309
476 0.000306
477 0.000301
478 0.000296
479 0.000292
480 0.000291
481 0.000294
482 0.000295
483 0.000293
484 0.000293
485 0.000291
486 0.000287
487 0.000283
488 0.000280
489 0.000281
490 0.000277
491 0.000273
492 0.000267
493 0.000263
494 0.000260
495 0.000259
496 0.000261
497 0.000262
498 0.000263
499 0.000263
500 0.000262
501 0.000261
502 0.000257
503 0.000254
504 0.000250
505 0.000247
506 0.000246
507 0.000245
508 0.000246
509 0.000247
510 0.000251
511 0.000259
512 0.000264
513 0.000267
514 0.000267
515 0.000264
516 0.000260
517 0.000257
518 0.000255
519 0.000253
520 0.000250
521 0.000248
522 0.000243
523 0.000240
524 0.000233
525 0.000227
526 0.000221
527 0.000216
528 0.000212
529 0.000211
530 0.000208
531 0.000207
532 0.000208
533 0.000209
534 0.000213
535 0.000215
536 0.000218
537 0.000217
538 0.000212
539 0.000209
540 0.000205
541 0.000203
542 0.000202
543 0.000202
544 0.000203
545 0.000202
546 0.000201
547 0.000205
548 0.000208
549 0.000215
550 0.000222
551 0.000230
552 0.000237
553 0.000245
554 0.000253
555 0.000260
556 0.000263
557 0.000266
558 0.000267
559 0.000268
560 0.000268
561 0.000269
562 0.000266
563 0.000266
564 0.000265
565 0.000265
566 0.000268
567 0.000270
568 0.000274
569 0.000276
570 0.000276
571 0.000277
572 0.000279
573 0.000277
574 0.000274
575 0.000271
576 0.000268
577 0.000267
578 0.000266
579 0.000265
580 0.000266
581 0.000266
582 0.000265
583 0.000262
584 0.000260
585 0.000259
586 0.000259
587 0.000262
588 0.000265
589 0.000268
590 0.000271
591 0.000271
592 0.000268
593 0.000263
594 0.000260
595 0.000256
596 0.000254
597 0.000255
598 0.000253
599 0.000252
600 0.000251
601 0.000248
602 0.000242
603 0.000237
604 0.000232
605 0.000227
606 0.000224
607 0.000223
608 0.000223
609 0.000224
610 0.000224
611 0.000227
612 0.000229
613 0.000228
614 0.000223
615 0.000222
616 0.000217
617 0.000213
618 0.000208
619 0.000202
620 0.000199
621 0.000199
622 0.000200
623 0.000199
624 0.000201
625 0.000202
626 0.000205
627 0.000210
628 0.000211
629 0.000210
630 0.000208
631 0.000204
632 0.000201
633 0.000199
634 0.000198
635 0.000198
636 0.000195
637 0.000194
638 0.000194
639 0.000194
640 0.000193
641 0.000189
642 0.000187
643 0.000185
644 0.000180
645 0.000176
646 0.000172
647 0.000168
648 0.000162
649 0.000157
650 0.000153
651 0.000151
652 0.000149
653 0.000145
654 0.000143
655 0.000142
656 0.000142
657 0.000142
658 0.000142
659 0.000142
660 0.000144
661 0.000145
662 0.000145
663 0.000146
664 0.000148
665 0.000151
666 0.000154
667 0.000159
668 0.000162
669 0.000165
670 0.000166
671 0.000168
672 0.000171
673 0.000176
674 0.000182
675 0.000188
676 0.000194
677 0.000201
678 0.000205
679 0.000210
680 0.000210
681 0.000211
682 0.000212
683 0.000213
684 0.000214
685 0.000212
686 0.000211
687 0.000208
688 0.000204
689 0.000201
690 0.000196
691 0.000192
692 0.000191
693 0.000191
694 0.000193
695 0.000194
696 0.000194
697 0.000197
698 0.000198
699 0.000198
700 0.000200
701 0.000198
702 0.000195
703 0.000194
704 0.000191
705 0.000190
706 0.000191
707 0.000190
708 0.000189
709 0.000191
710 0.000191
711 0.000193
712 0.000198
713 0.000201
714 0.000204
715 0.000206
716 0.000207
717 0.000208
718 0.000208
719 0.000207
720 0.000206
721 0.000205
722 0.000206
723 0.000207
724 0.000208
725 0.000206
726 0.000203
727 0.000199
728 0.000195
729 0.000191
730 0.000187
731 0.000182
732 0.000179
733 0.000178
734 0.000177
735 0.000175
736 0.000175
737 0.000174
738 0.000174
739 0.000178
740 0.000179
741 0.000181
742 0.000183
743 0.000185
744 0.000187
745 0.000185
746 0.000185
747 0.000184
748 0.000184
749 0.000185
750 0.000186
751 0.000188
752 0.000190
753 0.000192
754 0.000191
755 0.000191
756 0.000195
757 0.000197
758 0.000200
759 0.000201
760 0.000203
761 0.000205
762 0.000208
763 0.000209
764 0.000209
765 0.000210
766 0.000208
767 0.000205
768 0.000205
769 0.000206
770 0.000205
771 0.000205
772 0.000204
773 0.000203
774 0.000200
775 0.000195
776 0.000188
777 0.000184
778 0.000180
779 0.000175
780 0.000170
781 0.000166
782 0.000163
783 0.000159
784 0.000155
785 0.000149
786 0.000145
787 0.000144
788 0.000147
789 0.000148
790 0.000150
791 0.000152
792 0.000152
793 0.000153
794 0.000154
795 0.000153
796 0.000155
797 0.000154
798 0.000156
799 0.000158
800 0.000158
801 0.000157
802 0.000156
803 0.000157
804 0.000154
805 0.000153
806 0.000155
807 0.000156
808 0.000157
809 0.000159
