# i correlation
1 0.001766
2 0.001730
3 0.001705
4 0.001684
5 0.001666
6 0.001651
7 0.001639
8 0.001625
9 0.001613
10 0.001601
11 0.001587
12 0.001574
13 0.001562
14 0.001554
15 0.001544
16 0.001535
17 0.001531
18 0.001524
19 0.001515
20 0.001503
21 0.001492
22 0.001483
23 0.001473
24 0.001462
25 0.001451
26 0.001439
27 0.001426
28 0.001413
29 0.001402
30 0.001393
31 0.001388
32 0.001379
33 0.001371
34 0.001364
35 0.001360
36 0.001352
37 0.001341
38 0.001333
39 0.001330
40 0.001329
41 0.001328
42 0.001325
43 0.001317
44 0.001308
45 0.001301
46 0.001294
47 0.001286
48 0.001282
49 0.001277
50 0.001270
51 0.001265
52 0.001259
53 0.001250
54 0.001243
55 0.001238
56 0.001232
57 0.001224
58 0.001217
59 0.001209
60 0.001201
61 0.001192
62 0.001185
63 0.001176
64 0.001170
65 0.001170
66 0.001167
67 0.001164
68 0.001158
69 0.001150
70 0.001144
71 0.001138
72 0.001134
73 0.001130
74 0.001127
75 0.001123
76 0.001122
77 0.001120
78 0.001113
79 0.001108
80 0.001107
81 0.001108
82 0.001109
83 0.001110
84 0.001109
85 0.001109
86 0.001110
87 0.001108
88 0.001107
89 0.001105
90 0.001099
91 0.001097
92 0.001093
93 0.001093
94 0.001094
95 0.001097
96 0.001094
97 0.001090
98 0.001086
99 0.001080
100 0.001078
101 0.001078
102 0.001074
103 0.001071
104 0.001067
105 0.001064
106 0.001064
107 0.001067
108 0.001072
109 0.001069
110 0.001066
111 0.001063
112 0.001059
113 0.001054
114 0.001049
115 0.001044
116 0.001045
117 0.001043
118 0.001043
119 0.001039
120 0.001034
121 0.001028
122 0.001024
123 0.001019
124 0.001017
125 0.001014
126 0.001012
127 0.001009
128 0.001007
129 0.001005
130 0.001001
131 0.001000
132 0.000995
133 0.000993
134 0.000990
135 0.000990
136 0.000991
137 0.000992
138 0.000988
139 0.000983
140 0.000978
141 0.000971
142 0.000966
143 0.000961
144 0.000957
145 0.000955
146 0.000954
147 0.000953
148 0.000948
149 0.000944
150 0.000939
151 0.000931
152 0.000922
153 0.000920
154 0.000916
155 0.000913
156 0.000911
157 0.000908
158 0.000903
159 0.000901
160 0.000898
161 0.000892
162 0.000890
163 0.000891
164 0.000888
165 0.000884
166 0.000884
167 0.000885
168 0.000886
169 0.000884
170 0.000883
171 0.000881
172 0.000878
173 0.000878
174 0.000878
175 0.000879
176 0.000882
177 0.000885
178 0.000885
179 0.000885
180 0.000886
181 0.000883
182 0.000882
183 0.000877
184 0.000873
185 0.000869
186 0.000869
187 0.000869
188 0.000870
189 0.000874
190 0.000876
191 0.000875
192 0.000870
193 0.000862
194 0.000855
195 0.000851
196 0.000848
197 0.000846
198 0.000845
199 0.000843
200 0.000837
201 0.000834
202 0.000833
203 0.000830
204 0.000830
205 0.000831
206 0.000829
207 0.000826
208 0.000826
209 0.000823
210 0.000819
211 0.000819
212 0.000821
213 0.000818
214 0.000814
215 0.000811
216 0.000807
217 0.000802
218 0.000795
219 0.000788
220 0.000786
221 0.000783
222 0.000785
223 0.000786
224 0.000786
225 0.000783
226 0.000780
227 0.000777
228 0.000775
229 0.000773
230 0.000774
231 0.000774
232 0.000778
233 0.000778
234 0.000777
235 0.000771
236 0.000766
237 0.000759
238 0.000753
239 0.000747
240 0.000743
241 0.000739
242 0.000731
243 0.000725
244 0.000724
245 0.000720
246 0.000715
247 0.000712
248 0.000712
249 0.000708
250 0.000706
251 0.000705
252 0.000700
253 0.000697
254 0.000697
255 0.000699
256 0.000701
257 0.000704
258 0.000704
259 0.000702
260 0.000697
261 0.000694
262 0.000691
263 0.000692
264 0.000694
265 0.000696
266 0.000696
267 0.000691
268 0.000687
269 0.000683
270 0.000679
271 0.000676
272 0.000674
273 0.000671
274 0.000670
275 0.000671
276 0.000668
277 0.000663
278 0.000657
279 0.000652
280 0.000644
281 0.000633
282 0.000625
283 0.000621
284 0.000617
285 0.000616
286 0.000612
287 0.000609
288 0.000604
289 0.000598
290 0.000591
291 0.000583
292 0.000576
293 0.000571
294 0.000566
295 0.000558
296 0.000555
297 0.000554
298 0.000552
299 0.000550
300 0.000547
301 0.000541
302 0.000538
303 0.000533
304 0.000527
305 0.000527
306 0.000530
307 0.000531
308 0.000531
309 0.000531
310 0.000531
311 0.000529
312 0.000527
313 0.000523
314 0.000521
315 0.000524
316 0.000528
317 0.000530
318 0.000531
319 0.000531
320 0.000531
321 0.000531
322 0.000530
323 0.000529
324 0.000531
325 0.000531
326 0.000527
327 0.000525
328 0.000521
329 0.000521
330 0.000519
331 0.000518
332 0.000519
333 0.000520
334 0.000518
335 0.000517
336 0.000517
337 0.000517
338 0.000513
339 0.000513
340 0.000514
341 0.000515
342 0.000516
343 0.000515
344 0.000513
345 0.000511
346 0.000509
347 0.000505
348 0.000503
349 0.000501
350 0.000501
351 0.000504
352 0.000508
353 0.000510
354 0.000512
355 0.000514
356 0.000515
357 0.000518
358 0.000523
359 0.000527
360 0.000527
361 0.000529
362 0.000529
363 0.000529
364 0.000530
365 0.000533
366 0.000533
367 0.000532
368 0.000531
369 0.000531
370 0.000531
371 0.000533
372 0.000535
373 0.000533
374 0.000532
375 0.000535
376 0.000538
377 0.000536
378 0.000533
379 0.000537
380 0.000539
381 0.000539
382 0.000538
383 0.000537
384 0.000534
385 0.000530
386 0.000526
387 0.000520
388 0.000518
389 0.000514
390 0.000511
391 0.000506
392 0.000501
393 0.000498
394 0.000498
395 0.000496
396 0.000494
397 0.000496
398 0.000495
399 0.000490
400 0.000487
401 0.000489
402 0.000492
403 0.000497
404 0.000501
405 0.000503
406 0.000505
407 0.000510
408 0.000511
409 0.000507
410 0.000508
411 0.000508
412 0.000508
413 0.000510
414 0.000513
415 0.000512
416 0.000509
417 0.000506
418 0.000504
419 0.000501
420 0.000502
421 0.000503
422 0.000505
423 0.000505
424 0.000508
425 0.000511
426 0.000513
427 0.000515
428 0.000517
429 0.000515
430 0.000515
431 0.000517
432 0.000519
433 0.000520
434 0.000520
435 0.000519
436 0.000519
437 0.000519
438 0.000523
439 0.000523
440 0.000522
441 0.000523
442 0.000521
443 0.000520
444 0.000515
445 0.000516
446 0.000518
447 0.000518
448 0.000517
449 0.000515
450 0.000512
451 0.000506
452 0.000507
453 0.000512
454 0.000512
455 0.000511
456 0.000508
457 0.000503
458 0.000499
459 0.000495
460 0.000494
461 0.000492
462 0.000491
463 0.000489
464 0.000488
465 0.000488
466 0.000487
467 0.000486
468 0.000484
469 0.000481
470 0.000479
471 0.000478
472 0.000479
473 0.000480
474 0.000479
475 0.000477
476 0.000476
477 0.000476
478 0.000475
479 0.000473
480 0.000471
481 0.000466
482 0.000462
483 0.000457
484 0.000450
485 0.000443
486 0.000438
487 0.000438
488 0.000440
489 0.000442
490 0.000442
491 0.000441
492 0.000441
493 0.000440
494 0.000440
495 0.000440
496 0.000440
497 0.000438
498 0.000439
499 0.000437
500 0.000434
501 0.000431
502 0.000427
503 0.000422
504 0.000417
505 0.000415
506 0.000413
507 0.000408
508 0.000407
509 0.000405
510 0.000402
511 0.000399
512 0.000397
513 0.000395
514 0.000395
515 0.000393
516 0.000389
517 0.000386
518 0.000382
519 0.000376
520 0.000375
521 0.000377
522 0.000378
523 0.000379
524 0.000378
525 0.000378
526 0.000377
527 0.000374
528 0.000372
529 0.000372
530 0.000370
531 0.000368
532 0.000367
533 0.000366
534 0.000365
535 0.000363
536 0.000358
537 0.000353
538 0.000352
539 0.000351
540 0.000350
541 0.000352
542 0.000352
543 0.000354
544 0.000357
545 0.000357
546 0.000357
547 0.000359
548 0.000359
549 0.000360
550 0.000360
551 0.000356
552 0.000351
553 0.000347
554 0.000344
555 0.000338
556 0.000337
557 0.000335
558 0.000329
559 0.000324
560 0.000320
561 0.000319
562 0.000319
563 0.000321
564 0.000321
565 0.000318
566 0.000315
567 0.000311
568 0.000306
569 0.000302
570 0.000302
571 0.000303
572 0.000301
573 0.000301
574 0.000303
575 0.000302
576 0.000302
577 0.000302
578 0.000301
579 0.000299
580 0.000301
581 0.000302
582 0.000302
583 0.000304
584 0.000304
585 0.000304
586 0.000305
587 0.000307
588 0.000309
589 0.000309
590 0.000309
591 0.000310
592 0.000309
593 0.000308
594 0.000307
595 0.000306
596 0.000305
597 0.000303
598 0.000302
599 0.000301
600 0.000300
601 0.000300
602 0.000300
603 0.000299
604 0.000297
605 0.000295
606 0.000293
607 0.000287
608 0.000282
609 0.000280
610 0.000277
611 0.000274
612 0.000273
613 0.000270
614 0.000267
615 0.000266
616 0.000267
617 0.000269
618 0.000270
619 0.000270
620 0.000270
621 0.000268
622 0.000267
623 0.000265
624 0.000262
625 0.000258
626 0.000256
627 0.000257
628 0.000257
629 0.000260
630 0.000263
631 0.000263
632 0.000264
633 0.000264
634 0.000265
635 0.000267
636 0.000271
637 0.000274
638 0.000275
639 0.000276
640 0.000278
641 0.000279
642 0.000281
643 0.000280
644 0.000277
645 0.000277
646 0.000277
647 0.000274
648 0.000270
649 0.000265
650 0.000259
651 0.000258
652 0.000254
653 0.000252
654 0.000253
655 0.000249
656 0.000246
657 0.000244
658 0.000246
659 0.000248
660 0.000249
661 0.000247
662 0.000247
663 0.000247
664 0.000247
665 0.000249
666 0.000248
667 0.000245
668 0.000245
669 0.000246
670 0.000247
671 0.000247
672 0.000250
673 0.000249
674 0.000248
675 0.000247
676 0.000247
677 0.000248
678 0.000249
679 0.000250
680 0.000248
681 0.000246
682 0.000248
683 0.000250
684 0.000249
685 0.000252
686 0.000254
687 0.000256
688 0.000258
689 0.000261
690 0.000261
691 0.000260
692 0.000259
693 0.000258
694 0.000259
695 0.000258
696 0.000259
697 0.000261
698 0.000260
699 0.000260
700 0.000263
701 0.000263
702 0.000262
703 0.000261
704 0.000263
705 0.000262
706 0.000262
707 0.000263
708 0.000260
709 0.000257
710 0.000254
711 0.000254
712 0.000256
713 0.000257
714 0.000256
715 0.000252
716 0.000249
717 0.000244
718 0.000243
719 0.000239
720 0.000237
721 0.000234
722 0.000232
723 0.000232
724 0.000230
725 0.000229
726 0.000226
727 0.000222
728 0.000216
729 0.000212
730 0.000209
731 0.000206
732 0.000202
733 0.000198
734 0.000196
735 0.000191
736 0.000185
737 0.000181
738 0.000179
739 0.000178
740 0.000177
741 0.000174
742 0.000169
743 0.000163
744 0.000157
745 0.000151
746 0.000147
747 0.000143
748 0.000140
749 0.000138
750 0.000132
751 0.000127
752 0.000121
753 0.000119
754 0.000118
755 0.000117
756 0.000114
757 0.000109
758 0.000104
759 0.000100
760 0.000095
761 0.000090
762 0.000087
763 0.000083
764 0.000079
765 0.000078
766 0.000077
767 0.000075
768 0.000072
769 0.000071
770 0.000071
771 0.000068
772 0.000067
773 0.000068
774 0.000070
775 0.000069
776 0.000065
777 0.000064
778 0.000064
779 0.000063
780 0.000064
781 0.000062
782 0.000061
783 0.000062
784 0.000062
785 0.000060
786 0.000058
787 0.000057
788 0.000056
789 0.000055
790 0.000055
791 0.000054
792 0.000053
793 0.000052
794 0.000050
795 0.000052
796 0.000053
797 0.000055
798 0.000056
799 0.000055
800 0.000054
801 0.000055
802 0.000053
803 0.000050
804 0.000050
805 0.000053
806 0.000052
807 0.000053
808 0.000053
809 0.000055
