# i correlation
1 0.001790
2 0.001752
3 0.001719
4 0.001686
5 0.001660
6 0.001641
7 0.001621
8 0.001603
9 0.001590
10 0.001577
11 0.001560
12 0.001545
13 0.001529
14 0.001514
15 0.001502
16 0.001488
17 0.001477
18 0.001464
19 0.001448
20 0.001431
21 0.001415
22 0.001399
23 0.001386
24 0.001374
25 0.001363
26 0.001354
27 0.001343
28 0.001332
29 0.001321
30 0.001315
31 0.001308
32 0.001301
33 0.001295
34 0.001286
35 0.001277
36 0.001270
37 0.001263
38 0.001256
39 0.001246
40 0.001236
41 0.001224
42 0.001215
43 0.001206
44 0.001196
45 0.001187
46 0.001181
47 0.001172
48 0.001161
49 0.001153
50 0.001152
51 0.001150
52 0.001145
53 0.001144
54 0.001135
55 0.001126
56 0.001119
57 0.001115
58 0.001108
59 0.001103
60 0.001097
61 0.001092
62 0.001086
63 0.001083
64 0.001083
65 0.001081
66 0.001076
67 0.001072
68 0.001066
69 0.001061
70 0.001059
71 0.001053
72 0.001051
73 0.001048
74 0.001042
75 0.001034
76 0.001026
77 0.001018
78 0.001015
79 0.001014
80 0.001013
81 0.001008
82 0.001007
83 0.001006
84 0.001004
85 0.001003
86 0.000998
87 0.000990
88 0.000984
89 0.000981
90 0.000981
91 0.000981
92 0.000976
93 0.000967
94 0.000958
95 0.000949
96 0.000944
97 0.000941
98 0.000937
99 0.000939
100 0.000940
101 0.000941
102 0.000940
103 0.000937
104 0.000935
105 0.000928
106 0.000922
107 0.000913
108 0.000905
109 0.000900
110 0.000896
111 0.000887
112 0.000880
113 0.000873
114 0.000869
115 0.000868
116 0.000867
117 0.000865
118 0.000862
119 0.000855
120 0.000849
121 0.000845
122 0.000842
123 0.000839
124 0.000835
125 0.000831
126 0.000827
127 0.000823
128 0.000816
129 0.000813
130 0.000811
131 0.000808
132 0.000810
133 0.000812
134 0.000811
135 0.000809
136 0.000807
137 0.000805
138 0.000801
139 0.000797
140 0.000793
141 0.000789
142 0.000791
143 0.000793
144 0.000795
145 0.000794
146 0.000793
147 0.000797
148 0.000802
149 0.000804
150 0.000805
151 0.000804
152 0.000803
153 0.000800
154 0.000796
155 0.000789
156 0.000786
157 0.000785
158 0.000782
159 0.000778
160 0.000774
161 0.000773
162 0.000770
163 0.000769
164 0.000767
165 0.000768
166 0.000771
167 0.000772
168 0.000774
169 0.000776
170 0.000773
171 0.000768
172 0.000762
173 0.000756
174 0.000749
175 0.000744
176 0.000738
177 0.000734
178 0.000733
179 0.000732
180 0.000729
181 0.000726
182 0.000725
183 0.000723
184 0.000724
185 0.000724
186 0.000723
187 0.000725
188 0.000726
189 0.000728
190 0.000727
191 0.000727
192 0.000723
193 0.000722
194 0.000723
195 0.000722
196 0.000724
197 0.000725
198 0.000725
199 0.000725
200 0.000726
201 0.000729
202 0.000729
203 0.000733
204 0.000734
205 0.000733
206 0.000731
207 0.000730
208 0.000731
209 0.000732
210 0.000732
211 0.000732
212 0.000733
213 0.000731
214 0.000727
215 0.000724
216 0.000719
217 0.000717
218 0.000714
219 0.000710
220 0.000707
221 0.000702
222 0.000698
223 0.000696
224 0.000690
225 0.000683
226 0.000677
227 0.000672
228 0.000666
229 0.000663
230 0.000657
231 0.000651
232 0.000649
233 0.000651
234 0.000656
235 0.000663
236 0.000669
237 0.000675
238 0.000679
239 0.000682
240 0.000680
241 0.000679
242 0.000679
243 0.000678
244 0.000679
245 0.000677
246 0.000675
247 0.000677
248 0.000677
249 0.000680
250 0.000686
251 0.000691
252 0.000697
253 0.000703
254 0.000706
255 0.000705
256 0.000702
257 0.000701
258 0.000694
259 0.000688
260 0.000680
261 0.000675
262 0.000670
263 0.000663
264 0.000654
265 0.000647
266 0.000638
267 0.000633
268 0.000630
269 0.000631
270 0.000630
271 0.000630
272 0.000630
273 0.000634
274 0.000640
275 0.000643
276 0.000646
277 0.000645
278 0.000643
279 0.000642
280 0.000640
281 0.000640
282 0.000640
283 0.000640
284 0.000636
285 0.000637
286 0.000637
287 0.000637
288 0.000639
289 0.000640
290 0.000642
291 0.000645
292 0.000647
293 0.000652
294 0.000656
295 0.000658
296 0.000655
297 0.000647
298 0.000639
299 0.000630
300 0.000624
301 0.000619
302 0.000616
303 0.000614
304 0.000611
305 0.000609
306 0.000608
307 0.000606
308 0.000603
309 0.000600
310 0.000598
311 0.000597
312 0.000596
313 0.000593
314 0.000590
315 0.000587
316 0.000580
317 0.000575
318 0.000570
319 0.000564
320 0.000559
321 0.000556
322 0.000553
323 0.000549
324 0.000547
325 0.000546
326 0.000547
327 0.000554
328 0.000556
329 0.000553
330 0.000549
331 0.000546
332 0.000545
333 0.000546
334 0.000549
335 0.000552
336 0.000555
337 0.000556
338 0.000558
339 0.000561
340 0.000563
341 0.000566
342 0.000570
343 0.000571
344 0.000577
345 0.000584
346 0.000593
347 0.000601
348 0.000608
349 0.000612
350 0.000614
351 0.000615
352 0.000618
353 0.000623
354 0.000629
355 0.000634
356 0.000637
357 0.000637
358 0.000637
359 0.000638
360 0.000639
361 0.000639
362 0.000636
363 0.000634
364 0.000631
365 0.000632
366 0.000632
367 0.000634
368 0.000634
369 0.000630
370 0.000626
371 0.000623
372 0.000620
373 0.000617
374 0.000616
375 0.000614
376 0.000612
377 0.000613
378 0.000614
379 0.000612
380 0.000611
381 0.000607
382 0.000600
383 0.000594
384 0.000589
385 0.000586
386 0.000585
387 0.000584
388 0.000580
389 0.000571
390 0.000565
391 0.000564
392 0.000562
393 0.000560
394 0.000558
395 0.000555
396 0.000552
397 0.000550
398 0.000548
399 0.000546
400 0.000545
401 0.000544
402 0.000542
403 0.000538
404 0.000536
405 0.000537
406 0.000537
407 0.000535
408 0.000535
409 0.000536
410 0.000536
411 0.000538
412 0.000540
413 0.000540
414 0.000540
415 0.000536
416 0.000533
417 0.000531
418 0.000532
419 0.000531
420 0.000529
421 0.000525
422 0.000518
423 0.000512
424 0.000507
425 0.000503
426 0.000499
427 0.000495
428 0.000494
429 0.000489
430 0.000486
431 0.000483
432 0.000480
433 0.000476
434 0.000471
435 0.000464
436 0.000460
437 0.000459
438 0.000462
439 0.000464
440 0.000467
441 0.000469
442 0.000469
443 0.000470
444 0.000472
445 0.000473
446 0.000473
447 0.000472
448 0.000469
449 0.000464
450 0.000460
451 0.000456
452 0.000450
453 0.000442
454 0.000434
455 0.000426
456 0.000420
457 0.000415
458 0.000411
459 0.000408
460 0.000406
461 0.000406
462 0.000402
463 0.000396
464 0.000390
465 0.000383
466 0.000374
467 0.000363
468 0.000352
469 0.000343
470 0.000339
471 0.000335
472 0.000331
473 0.000324
474 0.000318
475 0.000313
476 0.000312
477 0.000311
478 0.000310
479 0.000308
480 0.000306
481 0.000306
482 0.000307
483 0.000309
484 0.000313
485 0.000315
486 0.000315
487 0.000318
488 0.000318
489 0.000319
490 0.000322
491 0.000327
492 0.000331
493 0.000336
494 0.000342
495 0.000343
496 0.000345
497 0.000348
498 0.000349
499 0.000350
500 0.000351
501 0.000350
502 0.000351
503 0.000352
504 0.000355
505 0.000356
506 0.000356
507 0.000355
508 0.000354
509 0.000352
510 0.000349
511 0.000347
512 0.000347
513 0.000345
514 0.000346
515 0.000350
516 0.000351
517 0.000350
518 0.000351
519 0.000347
520 0.000346
521 0.000344
522 0.000339
523 0.000337
524 0.000337
525 0.000336
526 0.000336
527 0.000338
528 0.000339
529 0.000342
530 0.000345
531 0.000348
532 0.000351
533 0.000351
534 0.000349
535 0.000347
536 0.000343
537 0.000338
538 0.000333
539 0.000328
540 0.000325
541 0.000323
542 0.000323
543 0.000323
544 0.000327
545 0.000329
546 0.000328
547 0.000327
548 0.000328
549 0.000328
550 0.000330
551 0.000330
552 0.000327
553 0.000325
554 0.000322
555 0.000319
556 0.000315
557 0.000313
558 0.000310
559 0.000308
560 0.000309
561 0.000312
562 0.000316
563 0.000321
564 0.000326
565 0.000330
566 0.000336
567 0.000339
568 0.000339
569 0.000340
570 0.000338
571 0.000337
572 0.000339
573 0.000336
574 0.000333
575 0.000331
576 0.000325
577 0.000321
578 0.000316
579 0.000314
580 0.000313
581 0.000312
582 0.000311
583 0.000308
584 0.000309
585 0.000307
586 0.000306
587 0.000306
588 0.000306
589 0.000306
590 0.000307
591 0.000310
592 0.000310
593 0.000310
594 0.000311
595 0.000311
596 0.000311
597 0.000313
598 0.000313
599 0.000313
600 0.000313
601 0.000313
602 0.000314
603 0.000316
604 0.000317
605 0.000316
606 0.000318
607 0.000316
608 0.000313
609 0.000312
610 0.000311
611 0.000308
612 0.000306
613 0.000304
614 0.000302
615 0.000299
616 0.000294
617 0.000290
618 0.000287
619 0.000285
620 0.000282
621 0.000280
622 0.000278
623 0.000274
624 0.000270
625 0.000266
626 0.000261
627 0.000259
628 0.000258
629 0.000261
630 0.000263
631 0.000265
632 0.000264
633 0.000265
634 0.000264
635 0.000261
636 0.000259
637 0.000257
638 0.000255
639 0.000255
640 0.000255
641 0.000255
642 0.000253
643 0.000251
644 0.000249
645 0.000248
646 0.000247
647 0.000248
648 0.000250
649 0.000252
650 0.000255
651 0.000257
652 0.000260
653 0.000264
654 0.000268
655 0.000272
656 0.000276
657 0.000279
658 0.000279
659 0.000280
660 0.000279
661 0.000280
662 0.000279
663 0.000281
664 0.000281
665 0.000283
666 0.000285
667 0.000286
668 0.000285
669 0.000282
670 0.000278
671 0.000276
672 0.000274
673 0.000273
674 0.000269
675 0.000267
676 0.000267
677 0.000263
678 0.000259
679 0.000253
680 0.000250
681 0.000247
682 0.000244
683 0.000244
684 0.000241
685 0.000238
686 0.000235
687 0.000231
688 0.000227
689 0.000225
690 0.000222
691 0.000218
692 0.000215
693 0.000215
694 0.000216
695 0.000219
696 0.000223
697 0.000226
698 0.000228
699 0.000232
700 0.000235
701 0.000239
702 0.000242
703 0.000244
704 0.000244
705 0.000245
706 0.000245
707 0.000243
708 0.000240
709 0.000237
710 0.000233
711 0.000230
712 0.000228
713 0.000228
714 0.000229
715 0.000229
716 0.000229
717 0.000225
718 0.000222
719 0.000220
720 0.000218
721 0.000217
722 0.000216
723 0.000216
724 0.000215
725 0.000210
726 0.000207
727 0.000204
728 0.000202
729 0.000202
730 0.000203
731 0.000204
732 0.000204
733 0.000208
734 0.000208
735 0.000207
736 0.000205
737 0.000203
738 0.000202
739 0.000205
740 0.000206
741 0.000210
742 0.000212
743 0.000212
744 0.000214
745 0.000215
746 0.000217
747 0.000218
748 0.000216
749 0.000211
750 0.000207
751 0.000203
752 0.000199
753 0.000198
754 0.000200
755 0.000199
756 0.000201
757 0.000200
758 0.000198
759 0.000196
760 0.000194
761 0.000191
762 0.000189
763 0.000186
764 0.000182
765 0.000180
766 0.000178
767 0.000177
768 0.000175
769 0.000175
770 0.000173
771 0.000172
772 0.000172
773 0.000171
774 0.000168
775 0.000166
776 0.000165
777 0.000164
778 0.000163
779 0.000165
780 0.000164
781 0.000164
782 0.000164
783 0.000164
784 0.000162
785 0.000162
786 0.000162
787 0.000163
788 0.000164
789 0.000166
790 0.000164
791 0.000163
792 0.000163
793 0.000162
794 0.000160
795 0.000159
796 0.000157
797 0.000157
798 0.000157
799 0.000157
800 0.000157
801 0.000158
802 0.000158
803 0.000157
804 0.000155
805 0.000154
806 0.000153
807 0.000152
808 0.000150
809 0.000149
