# i correlation
1 0.001498
2 0.001463
3 0.001432
4 0.001406
5 0.001384
6 0.001362
7 0.001342
8 0.001325
9 0.001310
10 0.001295
11 0.001280
12 0.001265
13 0.001253
14 0.001242
15 0.001234
16 0.001229
17 0.001224
18 0.001221
19 0.001222
20 0.001221
21 0.001221
22 0.001217
23 0.001212
24 0.001209
25 0.001201
26 0.001195
27 0.001189
28 0.001183
29 0.001177
30 0.001173
31 0.001170
32 0.001166
33 0.001160
34 0.001154
35 0.001148
36 0.001139
37 0.001135
38 0.001131
39 0.001131
40 0.001129
41 0.001122
42 0.001118
43 0.001116
44 0.001112
45 0.001105
46 0.001097
47 0.001091
48 0.001085
49 0.001076
50 0.001068
51 0.001057
52 0.001046
53 0.001039
54 0.001034
55 0.001027
56 0.001021
57 0.001012
58 0.001004
59 0.001000
60 0.000996
61 0.000992
62 0.000984
63 0.000977
64 0.000969
65 0.000961
66 0.000955
67 0.000952
68 0.000948
69 0.000948
70 0.000949
71 0.000947
72 0.000947
73 0.000944
74 0.000942
75 0.000939
76 0.000936
77 0.000939
78 0.000940
79 0.000938
80 0.000935
81 0.000930
82 0.000924
83 0.000917
84 0.000909
85 0.000902
86 0.000895
87 0.000890
88 0.000884
89 0.000879
90 0.000874
91 0.000868
92 0.000862
93 0.000858
94 0.000856
95 0.000856
96 0.000856
97 0.000854
98 0.000857
99 0.000859
100 0.000861
101 0.000858
102 0.000856
103 0.000850
104 0.000845
105 0.000840
106 0.000833
107 0.000824
108 0.000818
109 0.000812
110 0.000808
111 0.000805
112 0.000799
113 0.000792
114 0.000787
115 0.000784
116 0.000782
117 0.000779
118 0.000777
119 0.000773
120 0.000778
121 0.000782
122 0.000786
123 0.000789
124 0.000792
125 0.000796
126 0.000796
127 0.000793
128 0.000788
129 0.000785
130 0.000780
131 0.000773
132 0.000765
133 0.000757
134 0.000753
135 0.000750
136 0.000744
137 0.000736
138 0.000727
139 0.000723
140 0.000717
141 0.000715
142 0.000714
143 0.000712
144 0.000710
145 0.000707
146 0.000703
147 0.000698
148 0.000695
149 0.000691
150 0.000687
151 0.000683
152 0.000679
153 0.000678
154 0.000680
155 0.000682
156 0.000683
157 0.000678
158 0.000674
159 0.000670
160 0.000670
161 0.000669
162 0.000664
163 0.000658
164 0.000650
165 0.000643
166 0.000637
167 0.000628
168 0.000621
169 0.000611
170 0.000600
171 0.000590
172 0.000582
173 0.000577
174 0.000572
175 0.000568
176 0.000568
177 0.000568
178 0.000572
179 0.000576
180 0.000577
181 0.000581
182 0.000585
183 0.000588
184 0.000586
185 0.000584
186 0.000577
187 0.000576
188 0.000573
189 0.000569
190 0.000562
191 0.000554
192 0.000549
193 0.000542
194 0.000537
195 0.000536
196 0.000533
197 0.000531
198 0.000533
199 0.000533
200 0.000534
201 0.000534
202 0.000537
203 0.000541
204 0.000544
205 0.000544
206 0.000542
207 0.000540
208 0.000537
209 0.000533
210 0.000524
211 0.000520
212 0.000518
213 0.000516
214 0.000512
215 0.000511
216 0.000511
217 0.000509
218 0.000506
219 0.000504
220 0.000504
221 0.000506
222 0.000512
223 0.000521
224 0.000528
225 0.000535
226 0.000545
227 0.000549
228 0.000549
229 0.000548
230 0.000547
231 0.000548
232 0.000550
233 0.000550
234 0.000552
235 0.000559
236 0.000563
237 0.000565
238 0.000565
239 0.000563
240 0.000561
241 0.000561
242 0.000561
243 0.000564
244 0.000564
245 0.000565
246 0.000568
247 0.000567
248 0.000564
249 0.000560
250 0.000557
251 0.000556
252 0.000553
253 0.000550
254 0.000549
255 0.000550
256 0.000551
257 0.000547
258 0.000547
259 0.000547
260 0.000545
261 0.000541
262 0.000535
263 0.000531
264 0.000527
265 0.000527
266 0.000528
267 0.000525
268 0.000519
269 0.000512
270 0.000508
271 0.000504
272 0.000501
273 0.000498
274 0.000497
275 0.000498
276 0.000500
277 0.000501
278 0.000502
279 0.000507
280 0.000512
281 0.000516
282 0.000518
283 0.000524
284 0.000529
285 0.000535
286 0.000540
287 0.000543
288 0.000543
289 0.000543
290 0.000541
291 0.000538
292 0.000533
293 0.000528
294 0.000520
295 0.000513
296 0.000507
297 0.000501
298 0.000496
299 0.000489
300 0.000480
301 0.000471
302 0.000467
303 0.000465
304 0.000462
305 0.000464
306 0.000460
307 0.000459
308 0.000458
309 0.000457
310 0.000456
311 0.000450
312 0.000446
313 0.000442
314 0.000441
315 0.000437
316 0.000432
317 0.000427
318 0.000423
319 0.000420
320 0.000417
321 0.000417
322 0.000415
323 0.000416
324 0.000418
325 0.000420
326 0.000422
327 0.000424
328 0.000422
329 0.000424
330 0.000422
331 0.000420
332 0.000417
333 0.000412
334 0.000409
335 0.000403
336 0.000398
337 0.000395
338 0.000390
339 0.000384
340 0.000379
341 0.000373
342 0.000371
343 0.000368
344 0.000365
345 0.000362
346 0.000360
347 0.000358
348 0.000356
349 0.000353
350 0.000349
351 0.000346
352 0.000343
353 0.000343
354 0.000338
355 0.000337
356 0.000336
357 0.000335
358 0.000337
359 0.000339
360 0.000342
361 0.000348
362 0.000352
363 0.000357
364 0.000362
365 0.000365
366 0.000369
367 0.000371
368 0.000373
369 0.000375
370 0.000381
371 0.000386
372 0.000389
373 0.000386
374 0.000387
375 0.000385
376 0.000382
377 0.000382
378 0.000376
379 0.000374
380 0.000373
381 0.000372
382 0.000374
383 0.000375
384 0.000375
385 0.000374
386 0.000375
387 0.000374
388 0.000372
389 0.000371
390 0.000373
391 0.000376
392 0.000375
393 0.000371
394 0.000365
395 0.000360
396 0.000357
397 0.000353
398 0.000349
399 0.000344
400 0.000338
401 0.000336
402 0.000336
403 0.000339
404 0.000341
405 0.000343
406 0.000345
407 0.000346
408 0.000345
409 0.000348
410 0.000350
411 0.000351
412 0.000352
413 0.000348
414 0.000348
415 0.000345
416 0.000343
417 0.000338
418 0.000332
419 0.000327
420 0.000322
421 0.000319
422 0.000317
423 0.000314
424 0.000312
425 0.000313
426 0.000314
427 0.000315
428 0.000313
429 0.000310
430 0.000307
431 0.000307
432 0.000305
433 0.000305
434 0.000307
435 0.000312
436 0.000313
437 0.000312
438 0.000311
439 0.000312
440 0.000311
441 0.000311
442 0.000311
443 0.000309
444 0.000309
445 0.000306
446 0.000304
447 0.000301
448 0.000297
449 0.000296
450 0.000295
451 0.000294
452 0.000293
453 0.000292
454 0.000290
455 0.000287
456 0.000281
457 0.000275
458 0.000272
459 0.000272
460 0.000272
461 0.000272
462 0.000269
463 0.000265
464 0.000261
465 0.000256
466 0.000253
467 0.000251
468 0.000253
469 0.000255
470 0.000260
471 0.000265
472 0.000270
473 0.000272
474 0.000273
475 0.000273
476 0.000272
477 0.000271
478 0.000272
479 0.000273
480 0.000274
481 0.000277
482 0.000278
483 0.000276
484 0.000276
485 0.000276
486 0.000275
487 0.000276
488 0.000276
489 0.000275
490 0.000277
491 0.000277
492 0.000278
493 0.000278
494 0.000275
495 0.000272
496 0.000265
497 0.000261
498 0.000256
499 0.000250
500 0.000245
501 0.000241
502 0.000240
503 0.000240
504 0.000238
505 0.000239
506 0.000240
507 0.000241
508 0.000242
509 0.000248
510 0.000253
511 0.000258
512 0.000264
513 0.000269
514 0.000273
515 0.000278
516 0.000281
517 0.000281
518 0.000280
519 0.000278
520 0.000275
521 0.000274
522 0.000272
523 0.000268
524 0.000264
525 0.000262
526 0.000262
527 0.000262
528 0.000260
529 0.000256
530 0.000253
531 0.000253
532 0.000255
533 0.000258
534 0.000261
535 0.000263
536 0.000261
537 0.000261
538 0.000261
539 0.000262
540 0.000264
541 0.000265
542 0.000266
543 0.000263
544 0.000259
545 0.000255
546 0.000252
547 0.000250
548 0.000248
549 0.000247
550 0.000246
551 0.000247
552 0.000245
553 0.000245
554 0.000243
555 0.000243
556 0.000240
557 0.000237
558 0.000235
559 0.000237
560 0.000239
561 0.000239
562 0.000237
563 0.000234
564 0.000234
565 0.000236
566 0.000237
567 0.000239
568 0.000240
569 0.000242
570 0.000245
571 0.000245
572 0.000246
573 0.000244
574 0.000243
575 0.000241
576 0.000238
577 0.000234
578 0.000230
579 0.000229
580 0.000226
581 0.000222
582 0.000219
583 0.000216
584 0.000212
585 0.000207
586 0.000204
587 0.000203
588 0.000204
589 0.000203
590 0.000203
591 0.000201
592 0.000200
593 0.000200
594 0.000198
595 0.000197
596 0.000197
597 0.000195
598 0.000194
599 0.000192
600 0.000191
601 0.000190
602 0.000188
603 0.000188
604 0.000189
605 0.000191
606 0.000193
607 0.000195
608 0.000197
609 0.000200
610 0.000206
611 0.000212
612 0.000216
613 0.000218
614 0.000223
615 0.000228
616 0.000231
617 0.000234
618 0.000235
619 0.000236
620 0.000235
621 0.000234
622 0.000231
623 0.000227
624 0.000221
625 0.000214
626 0.000210
627 0.000205
628 0.000202
629 0.000200
630 0.000200
631 0.000198
632 0.000195
633 0.000194
634 0.000192
635 0.000191
636 0.000191
637 0.000192
638 0.000193
639 0.000194
640 0.000195
641 0.000194
642 0.000196
643 0.000195
644 0.000191
645 0.000188
646 0.000185
647 0.000182
648 0.000180
649 0.000178
650 0.000179
651 0.000182
652 0.000185
653 0.000187
654 0.000187
655 0.000189
656 0.000188
657 0.000190
658 0.000192
659 0.000194
660 0.000196
661 0.000197
662 0.000197
663 0.000199
664 0.000199
665 0.000197
666 0.000194
667 0.000191
668 0.000189
669 0.000188
670 0.000188
671 0.000189
672 0.000190
673 0.000190
674 0.000190
675 0.000191
676 0.000192
677 0.000193
678 0.000192
679 0.000191
680 0.000189
681 0.000188
682 0.000189
683 0.000187
684 0.000184
685 0.000182
686 0.000178
687 0.000174
688 0.000169
689 0.000166
690 0.000166
691 0.000164
692 0.000162
693 0.000162
694 0.000163
695 0.000167
696 0.000171
697 0.000172
698 0.000173
699 0.000172
700 0.000172
701 0.000173
702 0.000172
703 0.000171
704 0.000169
705 0.000168
706 0.000167
707 0.000168
708 0.000167
709 0.000165
710 0.000165
711 0.000164
712 0.000160
713 0.000155
714 0.000152
715 0.000150
716 0.000150
717 0.000150
718 0.000150
719 0.000151
720 0.000152
721 0.000154
722 0.000156
723 0.000157
724 0.000158
725 0.000159
726 0.000159
727 0.000158
728 0.000156
729 0.000155
730 0.000156
731 0.000156
732 0.000159
733 0.000161
734 0.000161
735 0.000161
736 0.000163
737 0.000164
738 0.000167
739 0.000170
740 0.000171
741 0.000173
742 0.000175
743 0.000174
744 0.000174
745 0.000175
746 0.000176
747 0.000175
748 0.000174
749 0.000173
750 0.000172
751 0.000172
752 0.000171
753 0.000171
754 0.000170
755 0.000169
756 0.000168
757 0.000167
758 0.000165
759 0.000162
760 0.000159
761 0.000156
762 0.000154
763 0.000152
764 0.000153
765 0.000154
766 0.000155
767 0.000158
768 0.000159
769 0.000161
770 0.000163
771 0.000164
772 0.000163
773 0.000162
774 0.000161
775 0.000161
776 0.000161
777 0.000162
778 0.000164
779 0.000162
780 0.000160
781 0.000159
782 0.000156
783 0.000154
784 0.000151
785 0.000149
786 0.000148
787 0.000144
788 0.000139
789 0.000133
790 0.000127
791 0.000121
792 0.000117
793 0.000116
794 0.000115
795 0.000115
796 0.000116
797 0.000117
798 0.000119
799 0.000121
800 0.000123
801 0.000125
802 0.000127
803 0.000127
804 0.000124
805 0.000123
806 0.000123
807 0.000123
808 0.000123
809 0.000123
