# i correlation
1 0.001699
2 0.001666
3 0.001634
4 0.001607
5 0.001585
6 0.001564
7 0.001545
8 0.001533
9 0.001519
10 0.001506
11 0.001491
12 0.001478
13 0.001466
14 0.001458
15 0.001449
16 0.001439
17 0.001426
18 0.001416
19 0.001406
20 0.001395
21 0.001380
22 0.001368
23 0.001356
24 0.001344
25 0.001332
26 0.001318
27 0.001308
28 0.001298
29 0.001291
30 0.001284
31 0.001278
32 0.001270
33 0.001262
34 0.001255
35 0.001252
36 0.001249
37 0.001243
38 0.001239
39 0.001236
40 0.001232
41 0.001231
42 0.001228
43 0.001225
44 0.001224
45 0.001222
46 0.001216
47 0.001212
48 0.001210
49 0.001209
50 0.001205
51 0.001198
52 0.001189
53 0.001182
54 0.001182
55 0.001180
56 0.001180
57 0.001176
58 0.001173
59 0.001171
60 0.001167
61 0.001163
62 0.001155
63 0.001149
64 0.001144
65 0.001140
66 0.001134
67 0.001124
68 0.001115
69 0.001105
70 0.001095
71 0.001085
72 0.001078
73 0.001071
74 0.001071
75 0.001066
76 0.001058
77 0.001052
78 0.001047
79 0.001046
80 0.001048
81 0.001045
82 0.001044
83 0.001042
84 0.001039
85 0.001035
86 0.001031
87 0.001025
88 0.001024
89 0.001022
90 0.001021
91 0.001017
92 0.001016
93 0.001013
94 0.001012
95 0.001008
96 0.001003
97 0.000999
98 0.000994
99 0.000993
100 0.000992
101 0.000989
102 0.000984
103 0.000975
104 0.000968
105 0.000963
106 0.000959
107 0.000954
108 0.000950
109 0.000949
110 0.000950
111 0.000946
112 0.000941
113 0.000936
114 0.000933
115 0.000931
116 0.000926
117 0.000918
118 0.000910
119 0.000903
120 0.000895
121 0.000889
122 0.000886
123 0.000882
124 0.000880
125 0.000877
126 0.000873
127 0.000870
128 0.000867
129 0.000866
130 0.000866
131 0.000865
132 0.000862
133 0.000859
134 0.000855
135 0.000852
136 0.000851
137 0.000851
138 0.000853
139 0.000857
140 0.000859
141 0.000858
142 0.000858
143 0.000857
144 0.000858
145 0.000859
146 0.000856
147 0.000851
148 0.000845
149 0.000841
150 0.000838
151 0.000836
152 0.000832
153 0.000830
154 0.000830
155 0.000827
156 0.000825
157 0.000824
158 0.000828
159 0.000830
160 0.000830
161 0.000828
162 0.000824
163 0.000820
164 0.000814
165 0.000806
166 0.000800
167 0.000795
168 0.000788
169 0.000785
170 0.000781
171 0.000779
172 0.000777
173 0.000775
174 0.000771
175 0.000772
176 0.000771
177 0.000770
178 0.000765
179 0.000759
180 0.000756
181 0.000755
182 0.000750
183 0.000743
184 0.000738
185 0.000734
186 0.000731
187 0.000731
188 0.000731
189 0.000733
190 0.000734
191 0.000731
192 0.000729
193 0.000726
194 0.000725
195 0.000723
196 0.000726
197 0.000726
198 0.000725
199 0.000724
200 0.000723
201 0.000722
202 0.000720
203 0.000718
204 0.000714
205 0.000713
206 0.000710
207 0.000708
208 0.000709
209 0.000707
210 0.000705
211 0.000702
212 0.000701
213 0.000700
214 0.000695
215 0.000691
216 0.000690
217 0.000692
218 0.000691
219 0.000692
220 0.000693
221 0.000694
222 0.000694
223 0.000693
224 0.000692
225 0.000690
226 0.000689
227 0.000686
228 0.000685
229 0.000681
230 0.000675
231 0.000671
232 0.000668
233 0.000668
234 0.000664
235 0.000662
236 0.000660
237 0.000661
238 0.000661
239 0.000662
240 0.000662
241 0.000664
242 0.000661
243 0.000660
244 0.000659
245 0.000658
246 0.000656
247 0.000655
248 0.000653
249 0.000647
250 0.000641
251 0.000635
252 0.000632
253 0.000627
254 0.000620
255 0.000615
256 0.000611
257 0.000606
258 0.000602
259 0.000597
260 0.000592
261 0.000590
262 0.000587
263 0.000584
264 0.000583
265 0.000577
266 0.000573
267 0.000568
268 0.000565
269 0.000562
270 0.000561
271 0.000557
272 0.000553
273 0.000550
274 0.000546
275 0.000546
276 0.000547
277 0.000549
278 0.000550
279 0.000550
280 0.000546
281 0.000542
282 0.000541
283 0.000542
284 0.000543
285 0.000545
286 0.000546
287 0.000546
288 0.000549
289 0.000551
290 0.000553
291 0.000555
292 0.000558
293 0.000558
294 0.000556
295 0.000553
296 0.000552
297 0.000551
298 0.000550
299 0.000551
300 0.000553
301 0.000555
302 0.000558
303 0.000562
304 0.000563
305 0.000563
306 0.000563
307 0.000562
308 0.000561
309 0.000559
310 0.000555
311 0.000552
312 0.000550
313 0.000548
314 0.000548
315 0.000548
316 0.000548
317 0.000549
318 0.000548
319 0.000546
320 0.000545
321 0.000547
322 0.000549
323 0.000552
324 0.000551
325 0.000551
326 0.000550
327 0.000549
328 0.000542
329 0.000536
330 0.000530
331 0.000527
332 0.000526
333 0.000525
334 0.000522
335 0.000521
336 0.000518
337 0.000516
338 0.000518
339 0.000518
340 0.000521
341 0.000522
342 0.000524
343 0.000523
344 0.000520
345 0.000517
346 0.000514
347 0.000517
348 0.000520
349 0.000523
350 0.000527
351 0.000531
352 0.000533
353 0.000536
354 0.000534
355 0.000532
356 0.000530
357 0.000529
358 0.000529
359 0.000529
360 0.000529
361 0.000531
362 0.000534
363 0.000540
364 0.000542
365 0.000543
366 0.000543
367 0.000546
368 0.000547
369 0.000547
370 0.000545
371 0.000545
372 0.000543
373 0.000540
374 0.000538
375 0.000538
376 0.000538
377 0.000540
378 0.000538
379 0.000536
380 0.000534
381 0.000531
382 0.000530
383 0.000530
384 0.000530
385 0.000529
386 0.000529
387 0.000525
388 0.000520
389 0.000515
390 0.000510
391 0.000507
392 0.000505
393 0.000502
394 0.000501
395 0.000497
396 0.000494
397 0.000491
398 0.000487
399 0.000482
400 0.000477
401 0.000474
402 0.000474
403 0.000475
404 0.000476
405 0.000480
406 0.000484
407 0.000489
408 0.000493
409 0.000498
410 0.000502
411 0.000503
412 0.000500
413 0.000498
414 0.000495
415 0.000493
416 0.000492
417 0.000493
418 0.000494
419 0.000495
420 0.000495
421 0.000496
422 0.000496
423 0.000495
424 0.000494
425 0.000494
426 0.000493
427 0.000495
428 0.000497
429 0.000499
430 0.000499
431 0.000500
432 0.000499
433 0.000501
434 0.000499
435 0.000496
436 0.000494
437 0.000495
438 0.000493
439 0.000492
440 0.000491
441 0.000493
442 0.000497
443 0.000500
444 0.000502
445 0.000501
446 0.000501
447 0.000498
448 0.000495
449 0.000494
450 0.000492
451 0.000492
452 0.000489
453 0.000484
454 0.000481
455 0.000476
456 0.000473
457 0.000471
458 0.000469
459 0.000468
460 0.000469
461 0.000468
462 0.000465
463 0.000465
464 0.000465
465 0.000466
466 0.000467
467 0.000466
468 0.000465
469 0.000463
470 0.000457
471 0.000454
472 0.000450
473 0.000447
474 0.000443
475 0.000438
476 0.000433
477 0.000430
478 0.000428
479 0.000424
480 0.000419
481 0.000410
482 0.000403
483 0.000396
484 0.000390
485 0.000387
486 0.000384
487 0.000381
488 0.000381
489 0.000379
490 0.000378
491 0.000379
492 0.000381
493 0.000385
494 0.000390
495 0.000392
496 0.000393
497 0.000392
498 0.000391
499 0.000390
500 0.000388
501 0.000386
502 0.000387
503 0.000388
504 0.000388
505 0.000390
506 0.000388
507 0.000390
508 0.000391
509 0.000392
510 0.000393
511 0.000393
512 0.000394
513 0.000393
514 0.000394
515 0.000396
516 0.000397
517 0.000397
518 0.000394
519 0.000392
520 0.000390
521 0.000389
522 0.000390
523 0.000391
524 0.000393
525 0.000394
526 0.000393
527 0.000391
528 0.000389
529 0.000387
530 0.000386
531 0.000384
532 0.000382
533 0.000378
534 0.000378
535 0.000379
536 0.000377
537 0.000375
538 0.000372
539 0.000373
540 0.000371
541 0.000369
542 0.000363
543 0.000362
544 0.000360
545 0.000359
546 0.000355
547 0.000352
548 0.000350
549 0.000352
550 0.000352
551 0.000353
552 0.000356
553 0.000359
554 0.000360
555 0.000361
556 0.000361
557 0.000362
558 0.000360
559 0.000359
560 0.000357
561 0.000356
562 0.000353
563 0.000351
564 0.000349
565 0.000344
566 0.000340
567 0.000336
568 0.000335
569 0.000332
570 0.000327
571 0.000324
572 0.000321
573 0.000320
574 0.000315
575 0.000311
576 0.000306
577 0.000300
578 0.000294
579 0.000290
580 0.000286
581 0.000283
582 0.000283
583 0.000281
584 0.000279
585 0.000277
586 0.000275
587 0.000274
588 0.000274
589 0.000273
590 0.000271
591 0.000270
592 0.000267
593 0.000265
594 0.000265
595 0.000264
596 0.000262
597 0.000260
598 0.000258
599 0.000258
600 0.000257
601 0.000257
602 0.000261
603 0.000262
604 0.000266
605 0.000270
606 0.000274
607 0.000276
608 0.000276
609 0.000279
610 0.000283
611 0.000287
612 0.000290
613 0.000293
614 0.000295
615 0.000296
616 0.000295
617 0.000298
618 0.000301
619 0.000302
620 0.000302
621 0.000301
622 0.000301
623 0.000300
624 0.000299
625 0.000298
626 0.000296
627 0.000297
628 0.000295
629 0.000293
630 0.000291
631 0.000288
632 0.000285
633 0.000282
634 0.000277
635 0.000270
636 0.000264
637 0.000257
638 0.000253
639 0.000249
640 0.000244
641 0.000240
642 0.000237
643 0.000234
644 0.000232
645 0.000230
646 0.000229
647 0.000229
648 0.000230
649 0.000230
650 0.000233
651 0.000232
652 0.000231
653 0.000233
654 0.000236
655 0.000239
656 0.000241
657 0.000243
658 0.000245
659 0.000245
660 0.000245
661 0.000245
662 0.000245
663 0.000245
664 0.000243
665 0.000244
666 0.000244
667 0.000247
668 0.000251
669 0.000255
670 0.000257
671 0.000258
672 0.000259
673 0.000259
674 0.000260
675 0.000258
676 0.000256
677 0.000252
678 0.000250
679 0.000246
680 0.000244
681 0.000241
682 0.000236
683 0.000234
684 0.000232
685 0.000229
686 0.000227
687 0.000222
688 0.000220
689 0.000217
690 0.000215
691 0.000212
692 0.000211
693 0.000211
694 0.000213
695 0.000213
696 0.000210
697 0.000209
698 0.000206
699 0.000203
700 0.000199
701 0.000196
702 0.000194
703 0.000192
704 0.000190
705 0.000185
706 0.000182
707 0.000179
708 0.000177
709 0.000173
710 0.000171
711 0.000172
712 0.000176
713 0.000178
714 0.000180
715 0.000181
716 0.000185
717 0.000186
718 0.000187
719 0.000187
720 0.000186
721 0.000186
722 0.000185
723 0.000182
724 0.000180
725 0.000177
726 0.000175
727 0.000175
728 0.000174
729 0.000172
730 0.000171
731 0.000168
732 0.000168
733 0.000171
734 0.000173
735 0.000176
736 0.000178
737 0.000177
738 0.000174
739 0.000170
740 0.000165
741 0.000160
742 0.000159
743 0.000161
744 0.000165
745 0.000166
746 0.000166
747 0.000166
748 0.000166
749 0.000167
750 0.000166
751 0.000167
752 0.000167
753 0.000169
754 0.000169
755 0.000169
756 0.000167
757 0.000167
758 0.000169
759 0.000169
760 0.000170
761 0.000172
762 0.000172
763 0.000174
764 0.000176
765 0.000175
766 0.000174
767 0.000171
768 0.000170
769 0.000171
770 0.000171
771 0.000172
772 0.000175
773 0.000176
774 0.000178
775 0.000176
776 0.000174
777 0.000173
778 0.000172
779 0.000170
780 0.000170
781 0.000170
782 0.000172
783 0.000172
784 0.000174
785 0.000175
786 0.000175
787 0.000173
788 0.000171
789 0.000167
790 0.000166
791 0.000164
792 0.000165
793 0.000168
794 0.000170
795 0.000170
796 0.000168
797 0.000165
798 0.000163
799 0.000158
800 0.000157
801 0.000156
802 0.000156
803 0.000156
804 0.000155
805 0.000153
806 0.000149
807 0.000146
808 0.000143
809 0.000142
