# i correlation
1 0.001311
2 0.001278
3 0.001251
4 0.001229
5 0.001208
6 0.001187
7 0.001169
8 0.001149
9 0.001130
10 0.001116
11 0.001107
12 0.001099
13 0.001090
14 0.001079
15 0.001070
16 0.001061
17 0.001054
18 0.001044
19 0.001035
20 0.001029
21 0.001020
22 0.001013
23 0.001005
24 0.001001
25 0.001000
26 0.000996
27 0.000994
28 0.000993
29 0.000997
30 0.000998
31 0.000996
32 0.000995
33 0.000990
34 0.000980
35 0.000974
36 0.000966
37 0.000964
38 0.000961
39 0.000952
40 0.000946
41 0.000942
42 0.000939
43 0.000938
44 0.000938
45 0.000940
46 0.000938
47 0.000934
48 0.000933
49 0.000931
50 0.000929
51 0.000924
52 0.000919
53 0.000914
54 0.000912
55 0.000910
56 0.000907
57 0.000907
58 0.000909
59 0.000910
60 0.000912
61 0.000912
62 0.000912
63 0.000908
64 0.000905
65 0.000901
66 0.000897
67 0.000896
68 0.000900
69 0.000899
70 0.000899
71 0.000898
72 0.000893
73 0.000889
74 0.000885
75 0.000880
76 0.000875
77 0.000868
78 0.000859
79 0.000853
80 0.000849
81 0.000845
82 0.000840
83 0.000836
84 0.000832
85 0.000829
86 0.000830
87 0.000830
88 0.000829
89 0.000830
90 0.000828
91 0.000827
92 0.000824
93 0.000825
94 0.000819
95 0.000816
96 0.000814
97 0.000814
98 0.000812
99 0.000810
100 0.000809
101 0.000810
102 0.000809
103 0.000809
104 0.000806
105 0.000803
106 0.000798
107 0.000794
108 0.000788
109 0.000782
110 0.000773
111 0.000765
112 0.000758
113 0.000755
114 0.000751
115 0.000749
116 0.000744
117 0.000742
118 0.000740
119 0.000737
120 0.000737
121 0.000737
122 0.000740
123 0.000739
124 0.000737
125 0.000730
126 0.000727
127 0.000730
128 0.000733
129 0.000734
130 0.000738
131 0.000744
132 0.000748
133 0.000749
134 0.000755
135 0.000759
136 0.000761
137 0.000763
138 0.000765
139 0.000762
140 0.000756
141 0.000754
142 0.000753
143 0.000749
144 0.000745
145 0.000741
146 0.000737
147 0.000737
148 0.000739
149 0.000740
150 0.000736
151 0.000733
152 0.000733
153 0.000731
154 0.000727
155 0.000722
156 0.000716
157 0.000710
158 0.000703
159 0.000701
160 0.000702
161 0.000703
162 0.000701
163 0.000701
164 0.000704
165 0.000708
166 0.000708
167 0.000713
168 0.000714
169 0.000717
170 0.000715
171 0.000714
172 0.000712
173 0.000708
174 0.000707
175 0.000701
176 0.000695
177 0.000689
178 0.000682
179 0.000680
180 0.000679
181 0.000679
182 0.000677
183 0.000674
184 0.000673
185 0.000671
186 0.000670
187 0.000670
188 0.000665
189 0.000659
190 0.000654
191 0.000648
192 0.000649
193 0.000646
194 0.000645
195 0.000642
196 0.000642
197 0.000644
198 0.000648
199 0.000651
200 0.000653
201 0.000652
202 0.000651
203 0.000651
204 0.000650
205 0.000649
206 0.000647
207 0.000644
208 0.000640
209 0.000640
210 0.000638
211 0.000634
212 0.000632
213 0.000632
214 0.000631
215 0.000628
216 0.000626
217 0.000622
218 0.000619
219 0.000616
220 0.000613
221 0.000612
222 0.000611
223 0.000610
224 0.000611
225 0.000607
226 0.000602
227 0.000599
228 0.000598
229 0.000597
230 0.000597
231 0.000591
232 0.000588
233 0.000586
234 0.000582
235 0.000581
236 0.000579
237 0.000575
238 0.000573
239 0.000573
240 0.000578
241 0.000584
242 0.000586
243 0.000583
244 0.000579
245 0.000578
246 0.000576
247 0.000572
248 0.000568
249 0.000563
250 0.000561
251 0.000562
252 0.000567
253 0.000570
254 0.000571
255 0.000570
256 0.000571
257 0.000568
258 0.000567
259 0.000565
260 0.000560
261 0.000559
262 0.000559
263 0.000560
264 0.000558
265 0.000556
266 0.000555
267 0.000555
268 0.000557
269 0.000558
270 0.000562
271 0.000562
272 0.000562
273 0.000562
274 0.000561
275 0.000559
276 0.000557
277 0.000555
278 0.000553
279 0.000547
280 0.000541
281 0.000531
282 0.000524
283 0.000521
284 0.000518
285 0.000519
286 0.000523
287 0.000523
288 0.000523
289 0.000524
290 0.000527
291 0.000531
292 0.000533
293 0.000533
294 0.000532
295 0.000530
296 0.000528
297 0.000527
298 0.000525
299 0.000524
300 0.000524
301 0.000524
302 0.000526
303 0.000530
304 0.000531
305 0.000532
306 0.000532
307 0.000535
308 0.000535
309 0.000536
310 0.000537
311 0.000541
312 0.000541
313 0.000542
314 0.000543
315 0.000546
316 0.000548
317 0.000547
318 0.000543
319 0.000539
320 0.000537
321 0.000536
322 0.000535
323 0.000536
324 0.000537
325 0.000535
326 0.000533
327 0.000532
328 0.000532
329 0.000528
330 0.000525
331 0.000523
332 0.000521
333 0.000516
334 0.000511
335 0.000513
336 0.000514
337 0.000518
338 0.000519
339 0.000517
340 0.000515
341 0.000515
342 0.000509
343 0.000504
344 0.000500
345 0.000496
346 0.000488
347 0.000480
348 0.000476
349 0.000469
350 0.000461
351 0.000453
352 0.000447
353 0.000440
354 0.000435
355 0.000430
356 0.000427
357 0.000424
358 0.000419
359 0.000417
360 0.000415
361 0.000417
362 0.000415
363 0.000414
364 0.000414
365 0.000413
366 0.000414
367 0.000414
368 0.000414
369 0.000416
370 0.000419
371 0.000421
372 0.000422
373 0.000426
374 0.000431
375 0.000434
376 0.000437
377 0.000439
378 0.000441
379 0.000440
380 0.000437
381 0.000436
382 0.000432
383 0.000433
384 0.000433
385 0.000432
386 0.000432
387 0.000430
388 0.000427
389 0.000429
390 0.000429
391 0.000426
392 0.000424
393 0.000426
394 0.000427
395 0.000427
396 0.000425
397 0.000421
398 0.000417
399 0.000414
400 0.000415
401 0.000414
402 0.000413
403 0.000407
404 0.000404
405 0.000398
406 0.000396
407 0.000394
408 0.000394
409 0.000397
410 0.000395
411 0.000393
412 0.000393
413 0.000392
414 0.000391
415 0.000390
416 0.000391
417 0.000386
418 0.000378
419 0.000371
420 0.000368
421 0.000365
422 0.000363
423 0.000362
424 0.000364
425 0.000364
426 0.000363
427 0.000363
428 0.000366
429 0.000367
430 0.000369
431 0.000369
432 0.000369
433 0.000368
434 0.000368
435 0.000365
436 0.000361
437 0.000361
438 0.000362
439 0.000366
440 0.000367
441 0.000368
442 0.000369
443 0.000369
444 0.000373
445 0.000376
446 0.000374
447 0.000371
448 0.000366
449 0.000359
450 0.000354
451 0.000349
452 0.000345
453 0.000341
454 0.000338
455 0.000337
456 0.000335
457 0.000334
458 0.000335
459 0.000337
460 0.000341
461 0.000341
462 0.000342
463 0.000343
464 0.000345
465 0.000348
466 0.000350
467 0.000351
468 0.000352
469 0.000353
470 0.000357
471 0.000359
472 0.000362
473 0.000364
474 0.000367
475 0.000368
476 0.000373
477 0.000377
478 0.000377
479 0.000375
480 0.000370
481 0.000366
482 0.000363
483 0.000361
484 0.000359
485 0.000355
486 0.000354
487 0.000352
488 0.000351
489 0.000349
490 0.000344
491 0.000341
492 0.000340
493 0.000340
494 0.000337
495 0.000336
496 0.000333
497 0.000335
498 0.000334
499 0.000335
500 0.000334
501 0.000333
502 0.000332
503 0.000332
504 0.000333
505 0.000336
506 0.000337
507 0.000337
508 0.000338
509 0.000337
510 0.000335
511 0.000334
512 0.000334
513 0.000335
514 0.000332
515 0.000332
516 0.000333
517 0.000334
518 0.000335
519 0.000338
520 0.000341
521 0.000344
522 0.000343
523 0.000340
524 0.000342
525 0.000341
526 0.000342
527 0.000342
528 0.000342
529 0.000341
530 0.000340
531 0.000339
532 0.000339
533 0.000337
534 0.000335
535 0.000331
536 0.000328
537 0.000327
538 0.000327
539 0.000323
540 0.000318
541 0.000314
542 0.000309
543 0.000308
544 0.000307
545 0.000307
546 0.000307
547 0.000305
548 0.000303
549 0.000299
550 0.000296
551 0.000291
552 0.000285
553 0.000280
554 0.000277
555 0.000270
556 0.000265
557 0.000262
558 0.000259
559 0.000256
560 0.000249
561 0.000246
562 0.000245
563 0.000246
564 0.000245
565 0.000246
566 0.000245
567 0.000246
568 0.000245
569 0.000245
570 0.000244
571 0.000241
572 0.000235
573 0.000232
574 0.000231
575 0.000230
576 0.000231
577 0.000233
578 0.000234
579 0.000235
580 0.000237
581 0.000239
582 0.000239
583 0.000238
584 0.000234
585 0.000226
586 0.000218
587 0.000210
588 0.000203
589 0.000199
590 0.000195
591 0.000190
592 0.000184
593 0.000182
594 0.000183
595 0.000182
596 0.000181
597 0.000181
598 0.000182
599 0.000183
600 0.000187
601 0.000189
602 0.000191
603 0.000189
604 0.000186
605 0.000184
606 0.000185
607 0.000185
608 0.000189
609 0.000192
610 0.000191
611 0.000193
612 0.000193
613 0.000195
614 0.000198
615 0.000199
616 0.000198
617 0.000195
618 0.000194
619 0.000191
620 0.000187
621 0.000182
622 0.000177
623 0.000170
624 0.000165
625 0.000162
626 0.000160
627 0.000157
628 0.000152
629 0.000151
630 0.000150
631 0.000149
632 0.000146
633 0.000144
634 0.000141
635 0.000140
636 0.000138
637 0.000137
638 0.000140
639 0.000145
640 0.000151
641 0.000154
642 0.000159
643 0.000163
644 0.000166
645 0.000167
646 0.000169
647 0.000172
648 0.000173
649 0.000172
650 0.000171
651 0.000171
652 0.000172
653 0.000170
654 0.000171
655 0.000172
656 0.000173
657 0.000173
658 0.000172
659 0.000170
660 0.000167
661 0.000163
662 0.000160
663 0.000157
664 0.000154
665 0.000152
666 0.000150
667 0.000148
668 0.000148
669 0.000150
670 0.000153
671 0.000154
672 0.000158
673 0.000161
674 0.000160
675 0.000158
676 0.000158
677 0.000158
678 0.000155
679 0.000154
680 0.000153
681 0.000151
682 0.000149
683 0.000146
684 0.000145
685 0.000144
686 0.000146
687 0.000149
688 0.000149
689 0.000150
690 0.000148
691 0.000146
692 0.000144
693 0.000143
694 0.000138
695 0.000135
696 0.000130
697 0.000127
698 0.000125
699 0.000124
700 0.000124
701 0.000123
702 0.000126
703 0.000126
704 0.000125
705 0.000124
706 0.000126
707 0.000128
708 0.000128
709 0.000128
710 0.000128
711 0.000128
712 0.000127
713 0.000126
714 0.000125
715 0.000125
716 0.000125
717 0.000124
718 0.000126
719 0.000128
720 0.000127
721 0.000124
722 0.000123
723 0.000119
724 0.000116
725 0.000112
726 0.000108
727 0.000103
728 0.000100
729 0.000097
730 0.000097
731 0.000097
732 0.000098
733 0.000097
734 0.000094
735 0.000092
736 0.000090
737 0.000089
738 0.000089
739 0.000090
740 0.000090
741 0.000090
742 0.000089
743 0.000089
744 0.000088
745 0.000088
746 0.000088
747 0.000088
748 0.000090
749 0.000093
750 0.000096
751 0.000098
752 0.000100
753 0.000102
754 0.000104
755 0.000104
756 0.000104
757 0.000105
758 0.000103
759 0.000100
760 0.000097
761 0.000099
762 0.000099
763 0.000100
764 0.000098
765 0.000096
766 0.000092
767 0.000090
768 0.000088
769 0.000087
770 0.000086
771 0.000085
772 0.000082
773 0.000078
774 0.000078
775 0.000078
776 0.000076
777 0.000076
778 0.000077
779 0.000078
780 0.000079
781 0.000079
782 0.000080
783 0.000081
784 0.000081
785 0.000080
786 0.000081
787 0.000083
788 0.000083
789 0.000083
790 0.000083
791 0.000082
792 0.000081
793 0.000080
794 0.000080
795 0.000079
796 0.000078
797 0.000074
798 0.000071
799 0.000072
800 0.000074
801 0.000074
802 0.000073
803 0.000073
804 0.000074
805 0.000074
806 0.000074
807 0.000076
808 0.000078
809 0.000079
