# i correlation
1 0.001546
2 0.001509
3 0.001480
4 0.001455
5 0.001432
6 0.001413
7 0.001393
8 0.001377
9 0.001365
10 0.001351
11 0.001339
12 0.001330
13 0.001317
14 0.001305
15 0.001297
16 0.001290
17 0.001283
18 0.001274
19 0.001266
20 0.001258
21 0.001250
22 0.001242
23 0.001236
24 0.001232
25 0.001223
26 0.001216
27 0.001213
28 0.001210
29 0.001206
30 0.001207
31 0.001208
32 0.001207
33 0.001207
34 0.001208
35 0.001204
36 0.001198
37 0.001187
38 0.001176
39 0.001166
40 0.001159
41 0.001147
42 0.001134
43 0.001126
44 0.001115
45 0.001108
46 0.001101
47 0.001095
48 0.001092
49 0.001091
50 0.001089
51 0.001086
52 0.001082
53 0.001078
54 0.001073
55 0.001067
56 0.001063
57 0.001062
58 0.001059
59 0.001057
60 0.001055
61 0.001052
62 0.001048
63 0.001042
64 0.001038
65 0.001035
66 0.001032
67 0.001034
68 0.001036
69 0.001031
70 0.001026
71 0.001019
72 0.001009
73 0.001005
74 0.001000
75 0.000992
76 0.000982
77 0.000972
78 0.000962
79 0.000958
80 0.000955
81 0.000951
82 0.000948
83 0.000947
84 0.000947
85 0.000945
86 0.000943
87 0.000943
88 0.000944
89 0.000947
90 0.000951
91 0.000955
92 0.000962
93 0.000966
94 0.000967
95 0.000964
96 0.000959
97 0.000955
98 0.000953
99 0.000954
100 0.000951
101 0.000949
102 0.000948
103 0.000947
104 0.000944
105 0.000944
106 0.000944
107 0.000942
108 0.000939
109 0.000933
110 0.000925
111 0.000915
112 0.000909
113 0.000905
114 0.000903
115 0.000901
116 0.000901
117 0.000904
118 0.000905
119 0.000906
120 0.000907
121 0.000908
122 0.000911
123 0.000913
124 0.000910
125 0.000912
126 0.000913
127 0.000913
128 0.000910
129 0.000908
130 0.000906
131 0.000902
132 0.000897
133 0.000891
134 0.000884
135 0.000877
136 0.000870
137 0.000862
138 0.000854
139 0.000848
140 0.000844
141 0.000843
142 0.000840
143 0.000836
144 0.000833
145 0.000828
146 0.000820
147 0.000813
148 0.000809
149 0.000809
150 0.000810
151 0.000808
152 0.000803
153 0.000801
154 0.000800
155 0.000798
156 0.000797
157 0.000796
158 0.000795
159 0.000796
160 0.000792
161 0.000791
162 0.000792
163 0.000793
164 0.000789
165 0.000785
166 0.000784
167 0.000780
168 0.000778
169 0.000772
170 0.000766
171 0.000763
172 0.000761
173 0.000759
174 0.000759
175 0.000759
176 0.000756
177 0.000749
178 0.000743
179 0.000737
180 0.000733
181 0.000725
182 0.000716
183 0.000709
184 0.000705
185 0.000701
186 0.000695
187 0.000689
188 0.000685
189 0.000684
190 0.000685
191 0.000685
192 0.000682
193 0.000680
194 0.000676
195 0.000669
196 0.000666
197 0.000661
198 0.000659
199 0.000653
200 0.000648
201 0.000643
202 0.000640
203 0.000633
204 0.000630
205 0.000625
206 0.000625
207 0.000626
208 0.000629
209 0.000632
210 0.000632
211 0.000632
212 0.000627
213 0.000625
214 0.000625
215 0.000623
216 0.000621
217 0.000619
218 0.000617
219 0.000614
220 0.000614
221 0.000613
222 0.000615
223 0.000618
224 0.000623
225 0.000629
226 0.000635
227 0.000637
228 0.000639
229 0.000639
230 0.000635
231 0.000629
232 0.000626
233 0.000623
234 0.000621
235 0.000612
236 0.000604
237 0.000601
238 0.000598
239 0.000593
240 0.000590
241 0.000589
242 0.000590
243 0.000594
244 0.000596
245 0.000597
246 0.000598
247 0.000599
248 0.000597
249 0.000598
250 0.000599
251 0.000597
252 0.000592
253 0.000589
254 0.000586
255 0.000581
256 0.000578
257 0.000575
258 0.000577
259 0.000576
260 0.000576
261 0.000575
262 0.000573
263 0.000571
264 0.000570
265 0.000570
266 0.000567
267 0.000565
268 0.000566
269 0.000566
270 0.000567
271 0.000564
272 0.000560
273 0.000558
274 0.000558
275 0.000557
276 0.000556
277 0.000557
278 0.000559
279 0.000560
280 0.000559
281 0.000561
282 0.000562
283 0.000562
284 0.000561
285 0.000559
286 0.000551
287 0.000542
288 0.000534
289 0.000530
290 0.000525
291 0.000525
292 0.000522
293 0.000523
294 0.000523
295 0.000524
296 0.000525
297 0.000523
298 0.000520
299 0.000515
300 0.000510
301 0.000506
302 0.000505
303 0.000503
304 0.000501
305 0.000499
306 0.000495
307 0.000493
308 0.000489
309 0.000483
310 0.000482
311 0.000480
312 0.000479
313 0.000479
314 0.000478
315 0.000479
316 0.000482
317 0.000488
318 0.000491
319 0.000493
320 0.000493
321 0.000494
322 0.000494
323 0.000494
324 0.000496
325 0.000496
326 0.000496
327 0.000496
328 0.000498
329 0.000498
330 0.000498
331 0.000497
332 0.000496
333 0.000497
334 0.000496
335 0.000494
336 0.000488
337 0.000484
338 0.000479
339 0.000476
340 0.000474
341 0.000469
342 0.000465
343 0.000462
344 0.000461
345 0.000460
346 0.000459
347 0.000456
348 0.000457
349 0.000457
350 0.000456
351 0.000458
352 0.000460
353 0.000462
354 0.000460
355 0.000460
356 0.000458
357 0.000458
358 0.000457
359 0.000457
360 0.000455
361 0.000451
362 0.000448
363 0.000447
364 0.000447
365 0.000449
366 0.000451
367 0.000453
368 0.000456
369 0.000458
370 0.000461
371 0.000460
372 0.000460
373 0.000459
374 0.000458
375 0.000459
376 0.000460
377 0.000464
378 0.000466
379 0.000466
380 0.000466
381 0.000464
382 0.000460
383 0.000459
384 0.000456
385 0.000456
386 0.000458
387 0.000463
388 0.000466
389 0.000465
390 0.000465
391 0.000468
392 0.000467
393 0.000465
394 0.000463
395 0.000460
396 0.000458
397 0.000457
398 0.000456
399 0.000457
400 0.000460
401 0.000463
402 0.000464
403 0.000465
404 0.000467
405 0.000462
406 0.000457
407 0.000456
408 0.000456
409 0.000456
410 0.000453
411 0.000451
412 0.000451
413 0.000451
414 0.000450
415 0.000448
416 0.000444
417 0.000439
418 0.000436
419 0.000434
420 0.000432
421 0.000432
422 0.000430
423 0.000428
424 0.000430
425 0.000431
426 0.000432
427 0.000433
428 0.000432
429 0.000428
430 0.000425
431 0.000421
432 0.000420
433 0.000420
434 0.000421
435 0.000422
436 0.000425
437 0.000428
438 0.000432
439 0.000436
440 0.000440
441 0.000442
442 0.000443
443 0.000445
444 0.000446
445 0.000447
446 0.000445
447 0.000450
448 0.000456
449 0.000460
450 0.000462
451 0.000464
452 0.000465
453 0.000464
454 0.000466
455 0.000466
456 0.000466
457 0.000468
458 0.000469
459 0.000469
460 0.000471
461 0.000473
462 0.000475
463 0.000473
464 0.000467
465 0.000464
466 0.000461
467 0.000457
468 0.000455
469 0.000457
470 0.000459
471 0.000461
472 0.000461
473 0.000463
474 0.000463
475 0.000464
476 0.000462
477 0.000460
478 0.000460
479 0.000461
480 0.000461
481 0.000462
482 0.000461
483 0.000461
484 0.000461
485 0.000463
486 0.000461
487 0.000457
488 0.000452
489 0.000447
490 0.000443
491 0.000439
492 0.000435
493 0.000432
494 0.000431
495 0.000427
496 0.000426
497 0.000423
498 0.000418
499 0.000415
500 0.000412
501 0.000409
502 0.000411
503 0.000413
504 0.000411
505 0.000408
506 0.000404
507 0.000402
508 0.000405
509 0.000407
510 0.000408
511 0.000410
512 0.000408
513 0.000405
514 0.000403
515 0.000401
516 0.000399
517 0.000396
518 0.000394
519 0.000393
520 0.000391
521 0.000390
522 0.000386
523 0.000383
524 0.000383
525 0.000380
526 0.000378
527 0.000374
528 0.000370
529 0.000366
530 0.000366
531 0.000364
532 0.000360
533 0.000357
534 0.000356
535 0.000354
536 0.000351
537 0.000345
538 0.000341
539 0.000340
540 0.000338
541 0.000337
542 0.000341
543 0.000345
544 0.000348
545 0.000350
546 0.000352
547 0.000353
548 0.000352
549 0.000351
550 0.000352
551 0.000353
552 0.000353
553 0.000354
554 0.000355
555 0.000358
556 0.000359
557 0.000359
558 0.000357
559 0.000357
560 0.000355
561 0.000357
562 0.000360
563 0.000361
564 0.000360
565 0.000358
566 0.000357
567 0.000356
568 0.000355
569 0.000354
570 0.000354
571 0.000354
572 0.000352
573 0.000352
574 0.000353
575 0.000356
576 0.000362
577 0.000368
578 0.000371
579 0.000374
580 0.000373
581 0.000372
582 0.000372
583 0.000372
584 0.000372
585 0.000372
586 0.000371
587 0.000370
588 0.000368
589 0.000364
590 0.000358
591 0.000355
592 0.000356
593 0.000356
594 0.000356
595 0.000356
596 0.000355
597 0.000354
598 0.000355
599 0.000353
600 0.000350
601 0.000350
602 0.000351
603 0.000352
604 0.000352
605 0.000351
606 0.000351
607 0.000350
608 0.000347
609 0.000344
610 0.000344
611 0.000344
612 0.000344
613 0.000345
614 0.000343
615 0.000339
616 0.000336
617 0.000334
618 0.000333
619 0.000333
620 0.000332
621 0.000330
622 0.000327
623 0.000324
624 0.000320
625 0.000317
626 0.000313
627 0.000308
628 0.000305
629 0.000305
630 0.000304
631 0.000301
632 0.000297
633 0.000294
634 0.000292
635 0.000291
636 0.000291
637 0.000291
638 0.000290
639 0.000285
640 0.000279
641 0.000278
642 0.000280
643 0.000279
644 0.000278
645 0.000279
646 0.000280
647 0.000282
648 0.000281
649 0.000280
650 0.000280
651 0.000279
652 0.000279
653 0.000280
654 0.000281
655 0.000281
656 0.000281
657 0.000276
658 0.000273
659 0.000272
660 0.000269
661 0.000268
662 0.000267
663 0.000265
664 0.000261
665 0.000259
666 0.000255
667 0.000248
668 0.000244
669 0.000243
670 0.000247
671 0.000251
672 0.000253
673 0.000253
674 0.000255
675 0.000256
676 0.000256
677 0.000257
678 0.000257
679 0.000257
680 0.000259
681 0.000259
682 0.000262
683 0.000266
684 0.000268
685 0.000268
686 0.000269
687 0.000270
688 0.000270
689 0.000270
690 0.000271
691 0.000269
692 0.000267
693 0.000268
694 0.000269
695 0.000269
696 0.000266
697 0.000264
698 0.000263
699 0.000262
700 0.000259
701 0.000256
702 0.000252
703 0.000249
704 0.000246
705 0.000245
706 0.000244
707 0.000242
708 0.000238
709 0.000235
710 0.000236
711 0.000238
712 0.000239
713 0.000238
714 0.000236
715 0.000235
716 0.000232
717 0.000232
718 0.000235
719 0.000237
720 0.000238
721 0.000239
722 0.000239
723 0.000241
724 0.000239
725 0.000238
726 0.000237
727 0.000237
728 0.000238
729 0.000237
730 0.000235
731 0.000233
732 0.000232
733 0.000231
734 0.000231
735 0.000231
736 0.000231
737 0.000231
738 0.000230
739 0.000230
740 0.000228
741 0.000224
742 0.000219
743 0.000217
744 0.000213
745 0.000212
746 0.000208
747 0.000204
748 0.000202
749 0.000199
750 0.000198
751 0.000196
752 0.000196
753 0.000197
754 0.000198
755 0.000200
756 0.000198
757 0.000195
758 0.000192
759 0.000189
760 0.000185
761 0.000181
762 0.000177
763 0.000174
764 0.000171
765 0.000166
766 0.000160
767 0.000157
768 0.000157
769 0.000157
770 0.000153
771 0.000150
772 0.000147
773 0.000146
774 0.000145
775 0.000141
776 0.000139
777 0.000141
778 0.000141
779 0.000144
780 0.000144
781 0.000145
782 0.000144
783 0.000144
784 0.000143
785 0.000143
786 0.000142
787 0.000142
788 0.000142
789 0.000142
790 0.000139
791 0.000137
792 0.000137
793 0.000137
794 0.000136
795 0.000134
796 0.000133
797 0.000130
798 0.000125
799 0.000120
800 0.000116
801 0.000112
802 0.000109
803 0.000106
804 0.000104
805 0.000104
806 0.000102
807 0.000101
808 0.000101
809 0.000099
