# i correlation
1 0.001794
2 0.001755
3 0.001722
4 0.001690
5 0.001663
6 0.001641
7 0.001620
8 0.001598
9 0.001580
10 0.001562
11 0.001546
12 0.001536
13 0.001527
14 0.001516
15 0.001507
16 0.001499
17 0.001494
18 0.001488
19 0.001479
20 0.001469
21 0.001462
22 0.001453
23 0.001445
24 0.001435
25 0.001423
26 0.001413
27 0.001402
28 0.001392
29 0.001385
30 0.001380
31 0.001378
32 0.001375
33 0.001373
34 0.001370
35 0.001367
36 0.001362
37 0.001357
38 0.001353
39 0.001353
40 0.001349
41 0.001345
42 0.001341
43 0.001337
44 0.001333
45 0.001330
46 0.001328
47 0.001320
48 0.001317
49 0.001312
50 0.001310
51 0.001311
52 0.001309
53 0.001309
54 0.001311
55 0.001314
56 0.001313
57 0.001306
58 0.001297
59 0.001287
60 0.001276
61 0.001267
62 0.001260
63 0.001249
64 0.001238
65 0.001232
66 0.001225
67 0.001216
68 0.001211
69 0.001207
70 0.001201
71 0.001198
72 0.001193
73 0.001186
74 0.001184
75 0.001181
76 0.001178
77 0.001177
78 0.001175
79 0.001169
80 0.001163
81 0.001158
82 0.001155
83 0.001152
84 0.001149
85 0.001144
86 0.001140
87 0.001137
88 0.001136
89 0.001135
90 0.001134
91 0.001135
92 0.001132
93 0.001130
94 0.001126
95 0.001128
96 0.001129
97 0.001129
98 0.001130
99 0.001128
100 0.001126
101 0.001125
102 0.001119
103 0.001112
104 0.001105
105 0.001101
106 0.001095
107 0.001088
108 0.001080
109 0.001074
110 0.001067
111 0.001061
112 0.001057
113 0.001051
114 0.001043
115 0.001033
116 0.001025
117 0.001021
118 0.001015
119 0.001009
120 0.001002
121 0.001000
122 0.000999
123 0.000996
124 0.000992
125 0.000986
126 0.000980
127 0.000970
128 0.000959
129 0.000948
130 0.000942
131 0.000940
132 0.000941
133 0.000940
134 0.000944
135 0.000944
136 0.000946
137 0.000947
138 0.000950
139 0.000952
140 0.000951
141 0.000952
142 0.000949
143 0.000944
144 0.000939
145 0.000937
146 0.000937
147 0.000935
148 0.000930
149 0.000928
150 0.000927
151 0.000928
152 0.000930
153 0.000934
154 0.000939
155 0.000945
156 0.000947
157 0.000949
158 0.000947
159 0.000943
160 0.000940
161 0.000938
162 0.000935
163 0.000933
164 0.000932
165 0.000929
166 0.000929
167 0.000934
168 0.000935
169 0.000933
170 0.000931
171 0.000927
172 0.000924
173 0.000925
174 0.000926
175 0.000925
176 0.000923
177 0.000923
178 0.000920
179 0.000918
180 0.000915
181 0.000912
182 0.000908
183 0.000899
184 0.000891
185 0.000885
186 0.000880
187 0.000875
188 0.000873
189 0.000870
190 0.000866
191 0.000862
192 0.000856
193 0.000850
194 0.000847
195 0.000845
196 0.000845
197 0.000845
198 0.000844
199 0.000840
200 0.000839
201 0.000834
202 0.000831
203 0.000829
204 0.000826
205 0.000823
206 0.000822
207 0.000826
208 0.000828
209 0.000828
210 0.000830
211 0.000831
212 0.000832
213 0.000830
214 0.000826
215 0.000821
216 0.000815
217 0.000809
218 0.000802
219 0.000791
220 0.000781
221 0.000771
222 0.000762
223 0.000759
224 0.000761
225 0.000762
226 0.000762
227 0.000758
228 0.000756
229 0.000755
230 0.000753
231 0.000754
232 0.000754
233 0.000754
234 0.000752
235 0.000754
236 0.000755
237 0.000750
238 0.000744
239 0.000737
240 0.000730
241 0.000722
242 0.000715
243 0.000709
244 0.000705
245 0.000700
246 0.000696
247 0.000697
248 0.000700
249 0.000704
250 0.000708
251 0.000709
252 0.000709
253 0.000712
254 0.000711
255 0.000711
256 0.000710
257 0.000712
258 0.000714
259 0.000720
260 0.000721
261 0.000718
262 0.000718
263 0.000720
264 0.000718
265 0.000717
266 0.000718
267 0.000718
268 0.000720
269 0.000721
270 0.000721
271 0.000719
272 0.000721
273 0.000718
274 0.000712
275 0.000708
276 0.000702
277 0.000700
278 0.000696
279 0.000692
280 0.000689
281 0.000687
282 0.000684
283 0.000678
284 0.000674
285 0.000667
286 0.000661
287 0.000659
288 0.000654
289 0.000651
290 0.000648
291 0.000645
292 0.000641
293 0.000640
294 0.000640
295 0.000640
296 0.000636
297 0.000629
298 0.000623
299 0.000619
300 0.000615
301 0.000614
302 0.000613
303 0.000611
304 0.000613
305 0.000612
306 0.000610
307 0.000609
308 0.000612
309 0.000613
310 0.000611
311 0.000610
312 0.000610
313 0.000610
314 0.000613
315 0.000613
316 0.000611
317 0.000609
318 0.000608
319 0.000609
320 0.000609
321 0.000611
322 0.000610
323 0.000610
324 0.000606
325 0.000602
326 0.000599
327 0.000598
328 0.000598
329 0.000600
330 0.000600
331 0.000601
332 0.000602
333 0.000602
334 0.000600
335 0.000600
336 0.000600
337 0.000600
338 0.000598
339 0.000595
340 0.000589
341 0.000583
342 0.000579
343 0.000575
344 0.000572
345 0.000568
346 0.000566
347 0.000566
348 0.000566
349 0.000571
350 0.000575
351 0.000575
352 0.000574
353 0.000575
354 0.000576
355 0.000579
356 0.000580
357 0.000580
358 0.000581
359 0.000581
360 0.000581
361 0.000582
362 0.000582
363 0.000583
364 0.000584
365 0.000585
366 0.000586
367 0.000590
368 0.000590
369 0.000590
370 0.000595
371 0.000597
372 0.000598
373 0.000600
374 0.000598
375 0.000596
376 0.000593
377 0.000592
378 0.000592
379 0.000589
380 0.000587
381 0.000588
382 0.000590
383 0.000589
384 0.000588
385 0.000591
386 0.000592
387 0.000589
388 0.000587
389 0.000585
390 0.000584
391 0.000582
392 0.000580
393 0.000577
394 0.000577
395 0.000576
396 0.000570
397 0.000564
398 0.000559
399 0.000554
400 0.000547
401 0.000540
402 0.000535
403 0.000532
404 0.000534
405 0.000539
406 0.000545
407 0.000548
408 0.000551
409 0.000553
410 0.000557
411 0.000557
412 0.000557
413 0.000557
414 0.000556
415 0.000556
416 0.000556
417 0.000555
418 0.000553
419 0.000551
420 0.000549
421 0.000549
422 0.000546
423 0.000544
424 0.000542
425 0.000540
426 0.000543
427 0.000544
428 0.000547
429 0.000547
430 0.000546
431 0.000543
432 0.000544
433 0.000544
434 0.000540
435 0.000538
436 0.000541
437 0.000540
438 0.000543
439 0.000546
440 0.000547
441 0.000548
442 0.000547
443 0.000545
444 0.000546
445 0.000545
446 0.000544
447 0.000542
448 0.000543
449 0.000541
450 0.000543
451 0.000541
452 0.000538
453 0.000533
454 0.000529
455 0.000526
456 0.000523
457 0.000522
458 0.000518
459 0.000518
460 0.000518
461 0.000521
462 0.000523
463 0.000523
464 0.000524
465 0.000524
466 0.000524
467 0.000524
468 0.000523
469 0.000523
470 0.000521
471 0.000518
472 0.000518
473 0.000519
474 0.000516
475 0.000516
476 0.000516
477 0.000515
478 0.000512
479 0.000507
480 0.000501
481 0.000493
482 0.000487
483 0.000482
484 0.000478
485 0.000474
486 0.000468
487 0.000464
488 0.000461
489 0.000455
490 0.000453
491 0.000451
492 0.000448
493 0.000441
494 0.000436
495 0.000434
496 0.000433
497 0.000432
498 0.000431
499 0.000428
500 0.000423
501 0.000419
502 0.000415
503 0.000415
504 0.000415
505 0.000418
506 0.000419
507 0.000422
508 0.000425
509 0.000425
510 0.000424
511 0.000425
512 0.000427
513 0.000425
514 0.000424
515 0.000420
516 0.000419
517 0.000419
518 0.000422
519 0.000427
520 0.000433
521 0.000439
522 0.000443
523 0.000445
524 0.000445
525 0.000443
526 0.000443
527 0.000444
528 0.000446
529 0.000449
530 0.000453
531 0.000457
532 0.000460
533 0.000460
534 0.000457
535 0.000454
536 0.000451
537 0.000450
538 0.000447
539 0.000442
540 0.000437
541 0.000433
542 0.000426
543 0.000425
544 0.000424
545 0.000425
546 0.000425
547 0.000426
548 0.000423
549 0.000423
550 0.000422
551 0.000419
552 0.000417
553 0.000420
554 0.000421
555 0.000420
556 0.000419
557 0.000415
558 0.000410
559 0.000407
560 0.000404
561 0.000402
562 0.000403
563 0.000401
564 0.000401
565 0.000398
566 0.000397
567 0.000398
568 0.000398
569 0.000396
570 0.000395
571 0.000396
572 0.000396
573 0.000398
574 0.000402
575 0.000403
576 0.000405
577 0.000403
578 0.000401
579 0.000396
580 0.000392
581 0.000387
582 0.000382
583 0.000378
584 0.000372
585 0.000369
586 0.000366
587 0.000362
588 0.000357
589 0.000352
590 0.000349
591 0.000347
592 0.000344
593 0.000342
594 0.000340
595 0.000338
596 0.000337
597 0.000334
598 0.000332
599 0.000332
600 0.000330
601 0.000329
602 0.000327
603 0.000324
604 0.000320
605 0.000318
606 0.000315
607 0.000311
608 0.000312
609 0.000314
610 0.000314
611 0.000313
612 0.000314
613 0.000314
614 0.000314
615 0.000315
616 0.000317
617 0.000320
618 0.000325
619 0.000327
620 0.000327
621 0.000328
622 0.000330
623 0.000329
624 0.000330
625 0.000329
626 0.000329
627 0.000329
628 0.000327
629 0.000327
630 0.000327
631 0.000326
632 0.000323
633 0.000320
634 0.000314
635 0.000310
636 0.000306
637 0.000302
638 0.000297
639 0.000292
640 0.000285
641 0.000280
642 0.000276
643 0.000273
644 0.000273
645 0.000275
646 0.000274
647 0.000271
648 0.000268
649 0.000263
650 0.000260
651 0.000257
652 0.000253
653 0.000249
654 0.000246
655 0.000243
656 0.000239
657 0.000235
658 0.000230
659 0.000224
660 0.000219
661 0.000213
662 0.000210
663 0.000207
664 0.000208
665 0.000209
666 0.000208
667 0.000207
668 0.000204
669 0.000201
670 0.000196
671 0.000191
672 0.000189
673 0.000189
674 0.000190
675 0.000192
676 0.000193
677 0.000192
678 0.000189
679 0.000185
680 0.000181
681 0.000179
682 0.000174
683 0.000171
684 0.000166
685 0.000163
686 0.000162
687 0.000162
688 0.000163
689 0.000165
690 0.000166
691 0.000165
692 0.000164
693 0.000162
694 0.000161
695 0.000160
696 0.000159
697 0.000158
698 0.000156
699 0.000154
700 0.000155
701 0.000154
702 0.000151
703 0.000149
704 0.000148
705 0.000146
706 0.000145
707 0.000143
708 0.000144
709 0.000144
710 0.000147
711 0.000148
712 0.000148
713 0.000147
714 0.000147
715 0.000147
716 0.000146
717 0.000145
718 0.000145
719 0.000145
720 0.000147
721 0.000147
722 0.000149
723 0.000149
724 0.000147
725 0.000145
726 0.000143
727 0.000143
728 0.000143
729 0.000142
730 0.000138
731 0.000135
732 0.000134
733 0.000132
734 0.000130
735 0.000129
736 0.000127
737 0.000129
738 0.000128
739 0.000128
740 0.000128
741 0.000130
742 0.000130
743 0.000130
744 0.000131
745 0.000133
746 0.000132
747 0.000132
748 0.000132
749 0.000132
750 0.000132
751 0.000132
752 0.000133
753 0.000133
754 0.000133
755 0.000133
756 0.000131
757 0.000130
758 0.000127
759 0.000121
760 0.000117
761 0.000114
762 0.000110
763 0.000106
764 0.000101
765 0.000097
766 0.000093
767 0.000091
768 0.000089
769 0.000088
770 0.000086
771 0.000085
772 0.000084
773 0.000085
774 0.000085
775 0.000083
776 0.000083
777 0.000081
778 0.000079
779 0.000079
780 0.000083
781 0.000085
782 0.000087
783 0.000089
784 0.000089
785 0.000089
786 0.000090
787 0.000093
788 0.000096
789 0.000099
790 0.000100
791 0.000102
792 0.000104
793 0.000108
794 0.000110
795 0.000111
796 0.000112
797 0.000110
798 0.000112
799 0.000113
800 0.000117
801 0.000117
802 0.000117
803 0.000117
804 0.000115
805 0.000113
806 0.000113
807 0.000111
808 0.000108
809 0.000106
