# i correlation
1 0.001529
2 0.001499
3 0.001471
4 0.001446
5 0.001426
6 0.001405
7 0.001386
8 0.001369
9 0.001352
10 0.001340
11 0.001327
12 0.001317
13 0.001308
14 0.001302
15 0.001295
16 0.001285
17 0.001272
18 0.001262
19 0.001260
20 0.001256
21 0.001255
22 0.001250
23 0.001241
24 0.001239
25 0.001235
26 0.001227
27 0.001220
28 0.001213
29 0.001207
30 0.001201
31 0.001196
32 0.001191
33 0.001187
34 0.001181
35 0.001178
36 0.001174
37 0.001167
38 0.001158
39 0.001149
40 0.001141
41 0.001135
42 0.001129
43 0.001121
44 0.001114
45 0.001108
46 0.001106
47 0.001101
48 0.001100
49 0.001098
50 0.001094
51 0.001092
52 0.001088
53 0.001084
54 0.001079
55 0.001074
56 0.001072
57 0.001070
58 0.001068
59 0.001065
60 0.001062
61 0.001060
62 0.001058
63 0.001052
64 0.001045
65 0.001035
66 0.001026
67 0.001019
68 0.001011
69 0.001005
70 0.000996
71 0.000994
72 0.000990
73 0.000986
74 0.000980
75 0.000978
76 0.000975
77 0.000974
78 0.000973
79 0.000968
80 0.000962
81 0.000961
82 0.000958
83 0.000957
84 0.000950
85 0.000945
86 0.000939
87 0.000935
88 0.000933
89 0.000933
90 0.000936
91 0.000936
92 0.000939
93 0.000941
94 0.000944
95 0.000947
96 0.000947
97 0.000951
98 0.000950
99 0.000945
100 0.000941
101 0.000935
102 0.000935
103 0.000934
104 0.000935
105 0.000934
106 0.000932
107 0.000928
108 0.000925
109 0.000924
110 0.000919
111 0.000914
112 0.000913
113 0.000909
114 0.000909
115 0.000906
116 0.000901
117 0.000900
118 0.000897
119 0.000895
120 0.000894
121 0.000890
122 0.000884
123 0.000879
124 0.000872
125 0.000867
126 0.000862
127 0.000861
128 0.000860
129 0.000860
130 0.000859
131 0.000858
132 0.000856
133 0.000857
134 0.000858
135 0.000858
136 0.000859
137 0.000857
138 0.000858
139 0.000857
140 0.000858
141 0.000861
142 0.000858
143 0.000855
144 0.000851
145 0.000844
146 0.000839
147 0.000833
148 0.000828
149 0.000823
150 0.000820
151 0.000818
152 0.000817
153 0.000814
154 0.000816
155 0.000818
156 0.000823
157 0.000825
158 0.000825
159 0.000823
160 0.000822
161 0.000820
162 0.000818
163 0.000817
164 0.000812
165 0.000809
166 0.000806
167 0.000801
168 0.000798
169 0.000791
170 0.000784
171 0.000778
172 0.000770
173 0.000764
174 0.000755
175 0.000751
176 0.000746
177 0.000744
178 0.000739
179 0.000735
180 0.000732
181 0.000726
182 0.000723
183 0.000721
184 0.000714
185 0.000714
186 0.000712
187 0.000713
188 0.000709
189 0.000707
190 0.000703
191 0.000695
192 0.000695
193 0.000693
194 0.000689
195 0.000687
196 0.000681
197 0.000675
198 0.000670
199 0.000666
200 0.000663
201 0.000660
202 0.000656
203 0.000653
204 0.000650
205 0.000645
206 0.000641
207 0.000644
208 0.000647
209 0.000648
210 0.000645
211 0.000641
212 0.000639
213 0.000634
214 0.000633
215 0.000630
216 0.000627
217 0.000623
218 0.000617
219 0.000614
220 0.000610
221 0.000607
222 0.000604
223 0.000601
224 0.000597
225 0.000591
226 0.000585
227 0.000579
228 0.000577
229 0.000576
230 0.000573
231 0.000569
232 0.000564
233 0.000559
234 0.000553
235 0.000550
236 0.000549
237 0.000548
238 0.000546
239 0.000544
240 0.000542
241 0.000541
242 0.000537
243 0.000537
244 0.000536
245 0.000535
246 0.000532
247 0.000530
248 0.000530
249 0.000530
250 0.000530
251 0.000526
252 0.000522
253 0.000520
254 0.000516
255 0.000513
256 0.000512
257 0.000513
258 0.000514
259 0.000514
260 0.000518
261 0.000525
262 0.000526
263 0.000526
264 0.000528
265 0.000526
266 0.000524
267 0.000518
268 0.000509
269 0.000503
270 0.000499
271 0.000496
272 0.000495
273 0.000494
274 0.000494
275 0.000497
276 0.000498
277 0.000500
278 0.000499
279 0.000500
280 0.000503
281 0.000503
282 0.000504
283 0.000504
284 0.000504
285 0.000506
286 0.000508
287 0.000507
288 0.000502
289 0.000495
290 0.000491
291 0.000490
292 0.000488
293 0.000486
294 0.000486
295 0.000485
296 0.000483
297 0.000484
298 0.000486
299 0.000489
300 0.000492
301 0.000494
302 0.000495
303 0.000491
304 0.000489
305 0.000488
306 0.000485
307 0.000481
308 0.000475
309 0.000470
310 0.000468
311 0.000465
312 0.000464
313 0.000461
314 0.000459
315 0.000455
316 0.000454
317 0.000449
318 0.000446
319 0.000445
320 0.000442
321 0.000445
322 0.000447
323 0.000449
324 0.000449
325 0.000449
326 0.000453
327 0.000455
328 0.000458
329 0.000459
330 0.000455
331 0.000454
332 0.000449
333 0.000444
334 0.000442
335 0.000440
336 0.000439
337 0.000437
338 0.000434
339 0.000431
340 0.000428
341 0.000426
342 0.000424
343 0.000426
344 0.000426
345 0.000422
346 0.000417
347 0.000413
348 0.000411
349 0.000411
350 0.000410
351 0.000410
352 0.000407
353 0.000404
354 0.000401
355 0.000399
356 0.000400
357 0.000400
358 0.000400
359 0.000400
360 0.000399
361 0.000396
362 0.000397
363 0.000400
364 0.000404
365 0.000406
366 0.000406
367 0.000403
368 0.000401
369 0.000400
370 0.000399
371 0.000393
372 0.000388
373 0.000381
374 0.000374
375 0.000372
376 0.000369
377 0.000368
378 0.000369
379 0.000369
380 0.000368
381 0.000367
382 0.000364
383 0.000360
384 0.000360
385 0.000359
386 0.000357
387 0.000353
388 0.000350
389 0.000350
390 0.000349
391 0.000348
392 0.000348
393 0.000347
394 0.000348
395 0.000350
396 0.000351
397 0.000354
398 0.000355
399 0.000358
400 0.000360
401 0.000360
402 0.000360
403 0.000359
404 0.000360
405 0.000361
406 0.000360
407 0.000356
408 0.000351
409 0.000345
410 0.000338
411 0.000332
412 0.000325
413 0.000321
414 0.000317
415 0.000311
416 0.000309
417 0.000307
418 0.000309
419 0.000311
420 0.000315
421 0.000320
422 0.000322
423 0.000325
424 0.000328
425 0.000327
426 0.000328
427 0.000326
428 0.000325
429 0.000323
430 0.000323
431 0.000324
432 0.000324
433 0.000323
434 0.000322
435 0.000322
436 0.000322
437 0.000322
438 0.000324
439 0.000326
440 0.000328
441 0.000330
442 0.000333
443 0.000336
444 0.000339
445 0.000340
446 0.000344
447 0.000346
448 0.000348
449 0.000349
450 0.000346
451 0.000344
452 0.000342
453 0.000342
454 0.000341
455 0.000340
456 0.000342
457 0.000344
458 0.000343
459 0.000345
460 0.000347
461 0.000348
462 0.000351
463 0.000353
464 0.000356
465 0.000355
466 0.000353
467 0.000355
468 0.000356
469 0.000360
470 0.000364
471 0.000365
472 0.000368
473 0.000371
474 0.000371
475 0.000370
476 0.000367
477 0.000364
478 0.000363
479 0.000361
480 0.000360
481 0.000360
482 0.000360
483 0.000360
484 0.000362
485 0.000362
486 0.000361
487 0.000361
488 0.000359
489 0.000357
490 0.000354
491 0.000351
492 0.000348
493 0.000346
494 0.000349
495 0.000352
496 0.000352
497 0.000354
498 0.000356
499 0.000357
500 0.000356
501 0.000354
502 0.000352
503 0.000352
504 0.000350
505 0.000351
506 0.000356
507 0.000356
508 0.000355
509 0.000355
510 0.000353
511 0.000349
512 0.000344
513 0.000341
514 0.000338
515 0.000334
516 0.000331
517 0.000326
518 0.000323
519 0.000321
520 0.000320
521 0.000321
522 0.000321
523 0.000318
524 0.000316
525 0.000314
526 0.000311
527 0.000308
528 0.000305
529 0.000302
530 0.000301
531 0.000300
532 0.000299
533 0.000296
534 0.000293
535 0.000292
536 0.000294
537 0.000292
538 0.000292
539 0.000288
540 0.000287
541 0.000289
542 0.000292
543 0.000293
544 0.000295
545 0.000295
546 0.000296
547 0.000296
548 0.000295
549 0.000294
550 0.000291
551 0.000292
552 0.000292
553 0.000290
554 0.000285
555 0.000283
556 0.000281
557 0.000280
558 0.000280
559 0.000280
560 0.000275
561 0.000272
562 0.000270
563 0.000267
564 0.000265
565 0.000268
566 0.000267
567 0.000268
568 0.000267
569 0.000265
570 0.000262
571 0.000261
572 0.000261
573 0.000259
574 0.000259
575 0.000257
576 0.000256
577 0.000258
578 0.000260
579 0.000263
580 0.000265
581 0.000267
582 0.000265
583 0.000263
584 0.000262
585 0.000259
586 0.000258
587 0.000256
588 0.000255
589 0.000256
590 0.000256
591 0.000255
592 0.000257
593 0.000260
594 0.000261
595 0.000261
596 0.000260
597 0.000259
598 0.000259
599 0.000260
600 0.000260
601 0.000261
602 0.000260
603 0.000262
604 0.000262
605 0.000262
606 0.000263
607 0.000265
608 0.000267
609 0.000266
610 0.000264
611 0.000264
612 0.000262
613 0.000262
614 0.000261
615 0.000260
616 0.000259
617 0.000258
618 0.000255
619 0.000253
620 0.000249
621 0.000245
622 0.000242
623 0.000236
624 0.000230
625 0.000227
626 0.000224
627 0.000223
628 0.000224
629 0.000226
630 0.000228
631 0.000228
632 0.000229
633 0.000227
634 0.000225
635 0.000223
636 0.000221
637 0.000218
638 0.000216
639 0.000216
640 0.000215
641 0.000215
642 0.000216
643 0.000216
644 0.000215
645 0.000212
646 0.000211
647 0.000208
648 0.000206
649 0.000205
650 0.000205
651 0.000201
652 0.000198
653 0.000197
654 0.000195
655 0.000195
656 0.000195
657 0.000195
658 0.000194
659 0.000192
660 0.000192
661 0.000193
662 0.000197
663 0.000198
664 0.000200
665 0.000203
666 0.000203
667 0.000205
668 0.000205
669 0.000205
670 0.000206
671 0.000206
672 0.000208
673 0.000206
674 0.000205
675 0.000202
676 0.000199
677 0.000194
678 0.000192
679 0.000190
680 0.000189
681 0.000186
682 0.000184
683 0.000181
684 0.000180
685 0.000179
686 0.000181
687 0.000182
688 0.000185
689 0.000186
690 0.000185
691 0.000183
692 0.000183
693 0.000181
694 0.000182
695 0.000181
696 0.000178
697 0.000176
698 0.000174
699 0.000172
700 0.000170
701 0.000171
702 0.000170
703 0.000173
704 0.000174
705 0.000176
706 0.000178
707 0.000180
708 0.000182
709 0.000182
710 0.000184
711 0.000183
712 0.000178
713 0.000178
714 0.000175
715 0.000175
716 0.000173
717 0.000172
718 0.000171
719 0.000171
720 0.000173
721 0.000174
722 0.000175
723 0.000176
724 0.000176
725 0.000177
726 0.000179
727 0.000178
728 0.000178
729 0.000179
730 0.000180
731 0.000182
732 0.000182
733 0.000182
734 0.000185
735 0.000189
736 0.000193
737 0.000194
738 0.000194
739 0.000193
740 0.000192
741 0.000191
742 0.000190
743 0.000188
744 0.000188
745 0.000190
746 0.000191
747 0.000191
748 0.000192
749 0.000191
750 0.000190
751 0.000190
752 0.000186
753 0.000183
754 0.000178
755 0.000173
756 0.000171
757 0.000170
758 0.000167
759 0.000164
760 0.000162
761 0.000160
762 0.000157
763 0.000156
764 0.000155
765 0.000154
766 0.000154
767 0.000155
768 0.000154
769 0.000153
770 0.000153
771 0.000151
772 0.000150
773 0.000146
774 0.000141
775 0.000134
776 0.000127
777 0.000120
778 0.000112
779 0.000106
780 0.000097
781 0.000092
782 0.000088
783 0.000085
784 0.000082
785 0.000080
786 0.000078
787 0.000077
788 0.000076
789 0.000075
790 0.000072
791 0.000068
792 0.000066
793 0.000065
794 0.000065
795 0.000064
796 0.000066
797 0.000067
798 0.000070
799 0.000072
800 0.000075
801 0.000076
802 0.000076
803 0.000076
804 0.000074
805 0.000071
806 0.000067
807 0.000065
808 0.000063
809 0.000060
