# i correlation
1 0.001670
2 0.001633
3 0.001597
4 0.001567
5 0.001540
6 0.001515
7 0.001492
8 0.001470
9 0.001452
10 0.001435
11 0.001417
12 0.001400
13 0.001385
14 0.001373
15 0.001361
16 0.001351
17 0.001341
18 0.001334
19 0.001327
20 0.001323
21 0.001318
22 0.001312
23 0.001307
24 0.001303
25 0.001299
26 0.001294
27 0.001291
28 0.001284
29 0.001279
30 0.001276
31 0.001274
32 0.001268
33 0.001262
34 0.001258
35 0.001252
36 0.001243
37 0.001232
38 0.001221
39 0.001209
40 0.001201
41 0.001192
42 0.001182
43 0.001174
44 0.001172
45 0.001173
46 0.001175
47 0.001174
48 0.001174
49 0.001175
50 0.001175
51 0.001173
52 0.001167
53 0.001161
54 0.001157
55 0.001152
56 0.001150
57 0.001145
58 0.001142
59 0.001138
60 0.001136
61 0.001136
62 0.001137
63 0.001136
64 0.001131
65 0.001127
66 0.001121
67 0.001115
68 0.001111
69 0.001107
70 0.001104
71 0.001104
72 0.001102
73 0.001100
74 0.001097
75 0.001092
76 0.001089
77 0.001087
78 0.001083
79 0.001078
80 0.001074
81 0.001075
82 0.001074
83 0.001072
84 0.001069
85 0.001061
86 0.001052
87 0.001047
88 0.001041
89 0.001033
90 0.001028
91 0.001024
92 0.001024
93 0.001020
94 0.001019
95 0.001014
96 0.001008
97 0.001006
98 0.001004
99 0.001001
100 0.000993
101 0.000986
102 0.000977
103 0.000969
104 0.000962
105 0.000955
106 0.000951
107 0.000948
108 0.000948
109 0.000946
110 0.000943
111 0.000941
112 0.000940
113 0.000938
114 0.000936
115 0.000934
116 0.000929
117 0.000924
118 0.000919
119 0.000912
120 0.000903
121 0.000898
122 0.000891
123 0.000885
124 0.000880
125 0.000877
126 0.000875
127 0.000873
128 0.000871
129 0.000869
130 0.000864
131 0.000860
132 0.000861
133 0.000862
134 0.000861
135 0.000862
136 0.000861
137 0.000860
138 0.000860
139 0.000860
140 0.000860
141 0.000861
142 0.000864
143 0.000866
144 0.000866
145 0.000868
146 0.000867
147 0.000865
148 0.000865
149 0.000861
150 0.000856
151 0.000853
152 0.000850
153 0.000848
154 0.000845
155 0.000844
156 0.000842
157 0.000840
158 0.000839
159 0.000835
160 0.000828
161 0.000823
162 0.000817
163 0.000814
164 0.000808
165 0.000802
166 0.000796
167 0.000788
168 0.000779
169 0.000770
170 0.000765
171 0.000761
172 0.000760
173 0.000754
174 0.000751
175 0.000751
176 0.000753
177 0.000754
178 0.000753
179 0.000752
180 0.000753
181 0.000752
182 0.000751
183 0.000748
184 0.000744
185 0.000744
186 0.000744
187 0.000743
188 0.000742
189 0.000742
190 0.000739
191 0.000737
192 0.000732
193 0.000727
194 0.000725
195 0.000723
196 0.000725
197 0.000728
198 0.000728
199 0.000728
200 0.000723
201 0.000720
202 0.000718
203 0.000719
204 0.000717
205 0.000716
206 0.000715
207 0.000711
208 0.000708
209 0.000703
210 0.000700
211 0.000696
212 0.000693
213 0.000692
214 0.000690
215 0.000687
216 0.000684
217 0.000678
218 0.000674
219 0.000669
220 0.000667
221 0.000666
222 0.000663
223 0.000657
224 0.000654
225 0.000650
226 0.000648
227 0.000645
228 0.000643
229 0.000639
230 0.000636
231 0.000633
232 0.000635
233 0.000636
234 0.000638
235 0.000642
236 0.000645
237 0.000647
238 0.000645
239 0.000648
240 0.000651
241 0.000653
242 0.000654
243 0.000655
244 0.000653
245 0.000652
246 0.000648
247 0.000644
248 0.000641
249 0.000637
250 0.000634
251 0.000630
252 0.000625
253 0.000619
254 0.000612
255 0.000604
256 0.000597
257 0.000588
258 0.000579
259 0.000571
260 0.000564
261 0.000559
262 0.000552
263 0.000546
264 0.000541
265 0.000538
266 0.000538
267 0.000536
268 0.000535
269 0.000535
270 0.000542
271 0.000546
272 0.000548
273 0.000551
274 0.000555
275 0.000559
276 0.000562
277 0.000562
278 0.000562
279 0.000562
280 0.000563
281 0.000561
282 0.000557
283 0.000553
284 0.000549
285 0.000541
286 0.000536
287 0.000530
288 0.000522
289 0.000514
290 0.000507
291 0.000501
292 0.000496
293 0.000490
294 0.000485
295 0.000482
296 0.000485
297 0.000493
298 0.000498
299 0.000502
300 0.000505
301 0.000507
302 0.000510
303 0.000512
304 0.000515
305 0.000519
306 0.000522
307 0.000522
308 0.000518
309 0.000512
310 0.000509
311 0.000509
312 0.000509
313 0.000506
314 0.000504
315 0.000501
316 0.000496
317 0.000492
318 0.000486
319 0.000480
320 0.000478
321 0.000474
322 0.000469
323 0.000464
324 0.000461
325 0.000456
326 0.000453
327 0.000448
328 0.000445
329 0.000443
330 0.000440
331 0.000440
332 0.000442
333 0.000442
334 0.000443
335 0.000442
336 0.000438
337 0.000435
338 0.000433
339 0.000428
340 0.000420
341 0.000411
342 0.000403
343 0.000396
344 0.000393
345 0.000388
346 0.000384
347 0.000383
348 0.000384
349 0.000385
350 0.000384
351 0.000386
352 0.000386
353 0.000385
354 0.000386
355 0.000385
356 0.000384
357 0.000385
358 0.000387
359 0.000386
360 0.000387
361 0.000386
362 0.000386
363 0.000385
364 0.000384
365 0.000381
366 0.000376
367 0.000371
368 0.000368
369 0.000365
370 0.000361
371 0.000356
372 0.000349
373 0.000342
374 0.000336
375 0.000327
376 0.000320
377 0.000314
378 0.000310
379 0.000310
380 0.000309
381 0.000308
382 0.000309
383 0.000313
384 0.000318
385 0.000323
386 0.000324
387 0.000324
388 0.000326
389 0.000328
390 0.000329
391 0.000328
392 0.000327
393 0.000326
394 0.000327
395 0.000331
396 0.000335
397 0.000339
398 0.000345
399 0.000348
400 0.000351
401 0.000352
402 0.000353
403 0.000354
404 0.000355
405 0.000354
406 0.000353
407 0.000349
408 0.000347
409 0.000348
410 0.000348
411 0.000347
412 0.000348
413 0.000346
414 0.000345
415 0.000345
416 0.000343
417 0.000338
418 0.000335
419 0.000334
420 0.000333
421 0.000330
422 0.000328
423 0.000324
424 0.000323
425 0.000322
426 0.000321
427 0.000315
428 0.000314
429 0.000316
430 0.000320
431 0.000326
432 0.000331
433 0.000337
434 0.000340
435 0.000341
436 0.000341
437 0.000338
438 0.000336
439 0.000335
440 0.000333
441 0.000330
442 0.000328
443 0.000323
444 0.000316
445 0.000311
446 0.000310
447 0.000310
448 0.000308
449 0.000307
450 0.000310
451 0.000311
452 0.000312
453 0.000316
454 0.000318
455 0.000324
456 0.000330
457 0.000335
458 0.000337
459 0.000337
460 0.000338
461 0.000336
462 0.000335
463 0.000336
464 0.000338
465 0.000340
466 0.000342
467 0.000343
468 0.000345
469 0.000346
470 0.000346
471 0.000345
472 0.000342
473 0.000339
474 0.000337
475 0.000333
476 0.000330
477 0.000333
478 0.000334
479 0.000333
480 0.000334
481 0.000335
482 0.000337
483 0.000338
484 0.000339
485 0.000342
486 0.000344
487 0.000348
488 0.000351
489 0.000355
490 0.000357
491 0.000358
492 0.000360
493 0.000362
494 0.000362
495 0.000361
496 0.000360
497 0.000358
498 0.000355
499 0.000352
500 0.000350
501 0.000346
502 0.000345
503 0.000344
504 0.000345
505 0.000345
506 0.000347
507 0.000349
508 0.000350
509 0.000352
510 0.000351
511 0.000353
512 0.000355
513 0.000355
514 0.000355
515 0.000356
516 0.000357
517 0.000355
518 0.000357
519 0.000356
520 0.000356
521 0.000354
522 0.000350
523 0.000349
524 0.000345
525 0.000343
526 0.000337
527 0.000334
528 0.000329
529 0.000325
530 0.000320
531 0.000316
532 0.000310
533 0.000305
534 0.000302
535 0.000297
536 0.000293
537 0.000289
538 0.000287
539 0.000290
540 0.000295
541 0.000298
542 0.000300
543 0.000302
544 0.000304
545 0.000308
546 0.000312
547 0.000319
548 0.000326
549 0.000328
550 0.000330
551 0.000332
552 0.000334
553 0.000333
554 0.000334
555 0.000332
556 0.000333
557 0.000332
558 0.000329
559 0.000323
560 0.000317
561 0.000314
562 0.000313
563 0.000310
564 0.000307
565 0.000303
566 0.000300
567 0.000300
568 0.000297
569 0.000294
570 0.000291
571 0.000289
572 0.000287
573 0.000285
574 0.000285
575 0.000284
576 0.000284
577 0.000284
578 0.000285
579 0.000285
580 0.000285
581 0.000286
582 0.000286
583 0.000285
584 0.000284
585 0.000284
586 0.000285
587 0.000285
588 0.000284
589 0.000283
590 0.000281
591 0.000280
592 0.000280
593 0.000280
594 0.000281
595 0.000279
596 0.000279
597 0.000279
598 0.000280
599 0.000280
600 0.000280
601 0.000281
602 0.000284
603 0.000285
604 0.000287
605 0.000288
606 0.000289
607 0.000288
608 0.000287
609 0.000285
610 0.000286
611 0.000286
612 0.000287
613 0.000287
614 0.000285
615 0.000280
616 0.000274
617 0.000270
618 0.000266
619 0.000263
620 0.000257
621 0.000255
622 0.000254
623 0.000253
624 0.000252
625 0.000250
626 0.000246
627 0.000243
628 0.000240
629 0.000236
630 0.000234
631 0.000230
632 0.000228
633 0.000226
634 0.000225
635 0.000225
636 0.000228
637 0.000230
638 0.000231
639 0.000232
640 0.000233
641 0.000236
642 0.000238
643 0.000239
644 0.000242
645 0.000244
646 0.000248
647 0.000248
648 0.000249
649 0.000249
650 0.000249
651 0.000248
652 0.000248
653 0.000248
654 0.000248
655 0.000250
656 0.000250
657 0.000250
658 0.000248
659 0.000244
660 0.000241
661 0.000238
662 0.000237
663 0.000237
664 0.000238
665 0.000239
666 0.000241
667 0.000241
668 0.000242
669 0.000242
670 0.000241
671 0.000239
672 0.000239
673 0.000239
674 0.000241
675 0.000243
676 0.000245
677 0.000245
678 0.000244
679 0.000241
680 0.000238
681 0.000235
682 0.000233
683 0.000232
684 0.000232
685 0.000233
686 0.000235
687 0.000235
688 0.000235
689 0.000232
690 0.000230
691 0.000228
692 0.000226
693 0.000223
694 0.000220
695 0.000219
696 0.000218
697 0.000214
698 0.000210
699 0.000206
700 0.000201
701 0.000196
702 0.000193
703 0.000191
704 0.000189
705 0.000190
706 0.000190
707 0.000190
708 0.000191
709 0.000192
710 0.000193
711 0.000195
712 0.000197
713 0.000199
714 0.000201
715 0.000200
716 0.000198
717 0.000197
718 0.000199
719 0.000200
720 0.000201
721 0.000202
722 0.000203
723 0.000203
724 0.000201
725 0.000199
726 0.000199
727 0.000199
728 0.000196
729 0.000195
730 0.000193
731 0.000189
732 0.000187
733 0.000186
734 0.000183
735 0.000183
736 0.000183
737 0.000185
738 0.000187
739 0.000190
740 0.000191
741 0.000190
742 0.000187
743 0.000186
744 0.000185
745 0.000184
746 0.000181
747 0.000179
748 0.000178
749 0.000174
750 0.000170
751 0.000166
752 0.000162
753 0.000160
754 0.000159
755 0.000160
756 0.000159
757 0.000158
758 0.000156
759 0.000152
760 0.000151
761 0.000150
762 0.000149
763 0.000148
764 0.000149
765 0.000147
766 0.000146
767 0.000146
768 0.000146
769 0.000146
770 0.000146
771 0.000144
772 0.000143
773 0.000142
774 0.000140
775 0.000136
776 0.000133
777 0.000130
778 0.000127
779 0.000123
780 0.000119
781 0.000114
782 0.000113
783 0.000112
784 0.000114
785 0.000116
786 0.000118
787 0.000120
788 0.000124
789 0.000130
790 0.000135
791 0.000140
792 0.000144
793 0.000147
794 0.000149
795 0.000150
796 0.000149
797 0.000148
798 0.000148
799 0.000147
800 0.000146
801 0.000147
802 0.000149
803 0.000149
804 0.000149
805 0.000145
806 0.000140
807 0.000135
808 0.000130
809 0.000125
