# i correlation
1 0.001574
2 0.001538
3 0.001505
4 0.001478
5 0.001460
6 0.001442
7 0.001422
8 0.001399
9 0.001381
10 0.001365
11 0.001347
12 0.001331
13 0.001311
14 0.001294
15 0.001277
16 0.001255
17 0.001239
18 0.001224
19 0.001205
20 0.001188
21 0.001170
22 0.001154
23 0.001138
24 0.001127
25 0.001111
26 0.001098
27 0.001084
28 0.001073
29 0.001060
30 0.001048
31 0.001040
32 0.001031
33 0.001025
34 0.001019
35 0.001014
36 0.001004
37 0.000998
38 0.000993
39 0.000992
40 0.000990
41 0.000992
42 0.000988
43 0.000990
44 0.000992
45 0.000997
46 0.001001
47 0.001006
48 0.001008
49 0.001014
50 0.001019
51 0.001023
52 0.001027
53 0.001030
54 0.001028
55 0.001024
56 0.001024
57 0.001026
58 0.001029
59 0.001035
60 0.001038
61 0.001042
62 0.001044
63 0.001048
64 0.001049
65 0.001050
66 0.001046
67 0.001041
68 0.001037
69 0.001035
70 0.001032
71 0.001026
72 0.001018
73 0.001014
74 0.001008
75 0.001005
76 0.000999
77 0.000993
78 0.000992
79 0.000991
80 0.000990
81 0.000985
82 0.000975
83 0.000967
84 0.000961
85 0.000953
86 0.000946
87 0.000938
88 0.000930
89 0.000920
90 0.000911
91 0.000901
92 0.000891
93 0.000884
94 0.000878
95 0.000871
96 0.000866
97 0.000857
98 0.000849
99 0.000845
100 0.000839
101 0.000833
102 0.000831
103 0.000828
104 0.000827
105 0.000824
106 0.000823
107 0.000818
108 0.000816
109 0.000813
110 0.000811
111 0.000812
112 0.000812
113 0.000810
114 0.000809
115 0.000805
116 0.000802
117 0.000801
118 0.000800
119 0.000799
120 0.000795
121 0.000792
122 0.000789
123 0.000790
124 0.000789
125 0.000787
126 0.000783
127 0.000778
128 0.000774
129 0.000772
130 0.000773
131 0.000773
132 0.000772
133 0.000771
134 0.000771
135 0.000768
136 0.000768
137 0.000769
138 0.000765
139 0.000759
140 0.000750
141 0.000745
142 0.000738
143 0.000735
144 0.000732
145 0.000727
146 0.000723
147 0.000720
148 0.000718
149 0.000717
150 0.000715
151 0.000716
152 0.000719
153 0.000721
154 0.000717
155 0.000715
156 0.000715
157 0.000711
158 0.000712
159 0.000711
160 0.000709
161 0.000709
162 0.000706
163 0.000706
164 0.000704
165 0.000703
166 0.000703
167 0.000702
168 0.000698
169 0.000695
170 0.000693
171 0.000693
172 0.000695
173 0.000694
174 0.000693
175 0.000691
176 0.000692
177 0.000694
178 0.000690
179 0.000689
180 0.000687
181 0.000684
182 0.000680
183 0.000677
184 0.000674
185 0.000672
186 0.000675
187 0.000678
188 0.000678
189 0.000677
190 0.000676
191 0.000670
192 0.000666
193 0.000658
194 0.000651
195 0.000643
196 0.000639
197 0.000634
198 0.000631
199 0.000628
200 0.000624
201 0.000617
202 0.000614
203 0.000607
204 0.000602
205 0.000597
206 0.000589
207 0.000582
208 0.000575
209 0.000568
210 0.000564
211 0.000563
212 0.000561
213 0.000555
214 0.000552
215 0.000547
216 0.000544
217 0.000542
218 0.000540
219 0.000536
220 0.000534
221 0.000530
222 0.000531
223 0.000531
224 0.000528
225 0.000525
226 0.000523
227 0.000519
228 0.000517
229 0.000517
230 0.000514
231 0.000513
232 0.000510
233 0.000508
234 0.000507
235 0.000507
236 0.000508
237 0.000510
238 0.000510
239 0.000508
240 0.000507
241 0.000506
242 0.000509
243 0.000509
244 0.000509
245 0.000509
246 0.000509
247 0.000510
248 0.000513
249 0.000516
250 0.000517
251 0.000518
252 0.000517
253 0.000517
254 0.000514
255 0.000516
256 0.000517
257 0.000519
258 0.000518
259 0.000516
260 0.000516
261 0.000516
262 0.000516
263 0.000516
264 0.000514
265 0.000511
266 0.000509
267 0.000510
268 0.000510
269 0.000513
270 0.000516
271 0.000517
272 0.000515
273 0.000513
274 0.000510
275 0.000511
276 0.000513
277 0.000515
278 0.000512
279 0.000510
280 0.000509
281 0.000506
282 0.000504
283 0.000502
284 0.000500
285 0.000499
286 0.000496
287 0.000491
288 0.000489
289 0.000485
290 0.000483
291 0.000479
292 0.000472
293 0.000467
294 0.000461
295 0.000457
296 0.000451
297 0.000446
298 0.000443
299 0.000441
300 0.000438
301 0.000436
302 0.000435
303 0.000434
304 0.000433
305 0.000431
306 0.000431
307 0.000431
308 0.000433
309 0.000434
310 0.000431
311 0.000428
312 0.000424
313 0.000423
314 0.000421
315 0.000420
316 0.000420
317 0.000419
318 0.000418
319 0.000420
320 0.000424
321 0.000425
322 0.000426
323 0.000426
324 0.000430
325 0.000434
326 0.000441
327 0.000444
328 0.000450
329 0.000453
330 0.000454
331 0.000457
332 0.000456
333 0.000458
334 0.000462
335 0.000465
336 0.000466
337 0.000466
338 0.000461
339 0.000455
340 0.000453
341 0.000453
342 0.000452
343 0.000453
344 0.000452
345 0.000448
346 0.000445
347 0.000440
348 0.000440
349 0.000439
350 0.000441
351 0.000441
352 0.000442
353 0.000442
354 0.000442
355 0.000442
356 0.000438
357 0.000433
358 0.000427
359 0.000422
360 0.000417
361 0.000414
362 0.000408
363 0.000402
364 0.000396
365 0.000391
366 0.000389
367 0.000388
368 0.000387
369 0.000385
370 0.000383
371 0.000378
372 0.000375
373 0.000373
374 0.000371
375 0.000371
376 0.000368
377 0.000365
378 0.000366
379 0.000367
380 0.000364
381 0.000358
382 0.000353
383 0.000350
384 0.000346
385 0.000344
386 0.000341
387 0.000340
388 0.000338
389 0.000338
390 0.000337
391 0.000334
392 0.000333
393 0.000331
394 0.000332
395 0.000332
396 0.000332
397 0.000330
398 0.000330
399 0.000329
400 0.000329
401 0.000332
402 0.000332
403 0.000333
404 0.000333
405 0.000331
406 0.000330
407 0.000329
408 0.000327
409 0.000326
410 0.000321
411 0.000318
412 0.000316
413 0.000318
414 0.000321
415 0.000324
416 0.000326
417 0.000324
418 0.000322
419 0.000322
420 0.000321
421 0.000323
422 0.000323
423 0.000325
424 0.000327
425 0.000327
426 0.000324
427 0.000321
428 0.000319
429 0.000316
430 0.000314
431 0.000314
432 0.000314
433 0.000311
434 0.000309
435 0.000305
436 0.000304
437 0.000304
438 0.000303
439 0.000301
440 0.000297
441 0.000293
442 0.000288
443 0.000283
444 0.000277
445 0.000272
446 0.000270
447 0.000268
448 0.000269
449 0.000272
450 0.000272
451 0.000272
452 0.000269
453 0.000267
454 0.000265
455 0.000261
456 0.000260
457 0.000259
458 0.000259
459 0.000260
460 0.000261
461 0.000262
462 0.000258
463 0.000256
464 0.000253
465 0.000255
466 0.000258
467 0.000260
468 0.000262
469 0.000263
470 0.000265
471 0.000267
472 0.000270
473 0.000272
474 0.000273
475 0.000275
476 0.000271
477 0.000268
478 0.000267
479 0.000265
480 0.000264
481 0.000265
482 0.000265
483 0.000264
484 0.000268
485 0.000272
486 0.000275
487 0.000279
488 0.000280
489 0.000280
490 0.000278
491 0.000275
492 0.000273
493 0.000275
494 0.000275
495 0.000276
496 0.000276
497 0.000277
498 0.000277
499 0.000277
500 0.000277
501 0.000276
502 0.000276
503 0.000276
504 0.000275
505 0.000275
506 0.000277
507 0.000279
508 0.000283
509 0.000285
510 0.000287
511 0.000291
512 0.000293
513 0.000293
514 0.000292
515 0.000291
516 0.000290
517 0.000290
518 0.000288
519 0.000288
520 0.000290
521 0.000290
522 0.000290
523 0.000288
524 0.000287
525 0.000285
526 0.000287
527 0.000290
528 0.000291
529 0.000291
530 0.000289
531 0.000289
532 0.000287
533 0.000287
534 0.000289
535 0.000289
536 0.000289
537 0.000287
538 0.000286
539 0.000287
540 0.000289
541 0.000290
542 0.000286
543 0.000279
544 0.000275
545 0.000269
546 0.000267
547 0.000262
548 0.000257
549 0.000252
550 0.000248
551 0.000244
552 0.000238
553 0.000234
554 0.000230
555 0.000229
556 0.000227
557 0.000225
558 0.000225
559 0.000224
560 0.000223
561 0.000222
562 0.000220
563 0.000214
564 0.000209
565 0.000205
566 0.000199
567 0.000192
568 0.000186
569 0.000182
570 0.000179
571 0.000177
572 0.000176
573 0.000173
574 0.000172
575 0.000172
576 0.000170
577 0.000171
578 0.000170
579 0.000170
580 0.000171
581 0.000171
582 0.000169
583 0.000170
584 0.000172
585 0.000173
586 0.000177
587 0.000178
588 0.000178
589 0.000178
590 0.000181
591 0.000186
592 0.000192
593 0.000193
594 0.000193
595 0.000194
596 0.000196
597 0.000198
598 0.000200
599 0.000202
600 0.000200
601 0.000203
602 0.000206
603 0.000207
604 0.000212
605 0.000217
606 0.000223
607 0.000230
608 0.000235
609 0.000241
610 0.000246
611 0.000251
612 0.000256
613 0.000260
614 0.000263
615 0.000264
616 0.000263
617 0.000261
618 0.000258
619 0.000259
620 0.000258
621 0.000257
622 0.000256
623 0.000255
624 0.000253
625 0.000251
626 0.000246
627 0.000240
628 0.000230
629 0.000220
630 0.000210
631 0.000200
632 0.000187
633 0.000174
634 0.000161
635 0.000151
636 0.000144
637 0.000140
638 0.000136
639 0.000133
640 0.000128
641 0.000124
642 0.000116
643 0.000110
644 0.000104
645 0.000102
646 0.000099
647 0.000098
648 0.000094
649 0.000092
650 0.000092
651 0.000093
652 0.000094
653 0.000092
654 0.000092
655 0.000094
656 0.000095
657 0.000098
658 0.000103
659 0.000107
660 0.000114
661 0.000122
662 0.000128
663 0.000133
664 0.000140
665 0.000146
666 0.000149
667 0.000152
668 0.000153
669 0.000156
670 0.000161
671 0.000166
672 0.000172
673 0.000176
674 0.000180
675 0.000182
676 0.000185
677 0.000188
678 0.000190
679 0.000193
680 0.000196
681 0.000195
682 0.000193
683 0.000191
684 0.000191
685 0.000189
686 0.000191
687 0.000191
688 0.000192
689 0.000191
690 0.000188
691 0.000185
692 0.000184
693 0.000180
694 0.000175
695 0.000170
696 0.000164
697 0.000158
698 0.000153
699 0.000150
700 0.000146
701 0.000143
702 0.000139
703 0.000135
704 0.000133
705 0.000130
706 0.000127
707 0.000125
708 0.000121
709 0.000115
710 0.000111
711 0.000107
712 0.000101
713 0.000097
714 0.000095
715 0.000092
716 0.000090
717 0.000087
718 0.000085
719 0.000080
720 0.000075
721 0.000074
722 0.000072
723 0.000076
724 0.000077
725 0.000077
726 0.000075
727 0.000077
728 0.000078
729 0.000081
730 0.000084
731 0.000087
732 0.000089
733 0.000091
734 0.000090
735 0.000091
736 0.000090
737 0.000089
738 0.000089
739 0.000090
740 0.000090
741 0.000091
742 0.000091
743 0.000089
744 0.000090
745 0.000093
746 0.000094
747 0.000095
748 0.000094
749 0.000094
750 0.000094
751 0.000095
752 0.000094
753 0.000093
754 0.000088
755 0.000085
756 0.000081
757 0.000082
758 0.000083
759 0.000083
760 0.000082
761 0.000079
762 0.000076
763 0.000074
764 0.000073
765 0.000072
766 0.000069
767 0.000066
768 0.000064
769 0.000063
770 0.000062
771 0.000061
772 0.000061
773 0.000061
774 0.000063
775 0.000068
776 0.000072
777 0.000074
778 0.000077
779 0.000080
780 0.000082
781 0.000084
782 0.000087
783 0.000090
784 0.000093
785 0.000096
786 0.000100
787 0.000103
788 0.000107
789 0.000107
790 0.000105
791 0.000105
792 0.000106
793 0.000107
794 0.000109
795 0.000108
796 0.000107
797 0.000108
798 0.000108
799 0.000107
800 0.000105
801 0.000104
802 0.000101
803 0.000100
804 0.000100
805 0.000098
806 0.000097
807 0.000095
808 0.000093
809 0.000091
