# i correlation
1 0.001540
2 0.001505
3 0.001474
4 0.001448
5 0.001426
6 0.001408
7 0.001390
8 0.001370
9 0.001350
10 0.001330
11 0.001317
12 0.001308
13 0.001300
14 0.001289
15 0.001284
16 0.001278
17 0.001273
18 0.001265
19 0.001254
20 0.001240
21 0.001229
22 0.001219
23 0.001209
24 0.001196
25 0.001186
26 0.001172
27 0.001162
28 0.001152
29 0.001142
30 0.001134
31 0.001128
32 0.001120
33 0.001114
34 0.001110
35 0.001108
36 0.001107
37 0.001106
38 0.001103
39 0.001101
40 0.001096
41 0.001089
42 0.001083
43 0.001075
44 0.001067
45 0.001062
46 0.001056
47 0.001050
48 0.001042
49 0.001035
50 0.001028
51 0.001022
52 0.001019
53 0.001017
54 0.001013
55 0.001011
56 0.001007
57 0.001007
58 0.001002
59 0.000999
60 0.000993
61 0.000987
62 0.000984
63 0.000979
64 0.000974
65 0.000968
66 0.000960
67 0.000955
68 0.000949
69 0.000946
70 0.000942
71 0.000935
72 0.000931
73 0.000927
74 0.000923
75 0.000923
76 0.000923
77 0.000919
78 0.000915
79 0.000911
80 0.000906
81 0.000901
82 0.000900
83 0.000895
84 0.000891
85 0.000886
86 0.000884
87 0.000882
88 0.000878
89 0.000873
90 0.000868
91 0.000863
92 0.000860
93 0.000858
94 0.000855
95 0.000852
96 0.000845
97 0.000842
98 0.000839
99 0.000836
100 0.000832
101 0.000832
102 0.000831
103 0.000828
104 0.000827
105 0.000822
106 0.000817
107 0.000814
108 0.000811
109 0.000809
110 0.000809
111 0.000804
112 0.000797
113 0.000793
114 0.000796
115 0.000796
116 0.000799
117 0.000800
118 0.000797
119 0.000792
120 0.000790
121 0.000786
122 0.000785
123 0.000782
124 0.000779
125 0.000776
126 0.000771
127 0.000769
128 0.000765
129 0.000763
130 0.000757
131 0.000752
132 0.000747
133 0.000745
134 0.000745
135 0.000742
136 0.000740
137 0.000736
138 0.000732
139 0.000728
140 0.000722
141 0.000716
142 0.000708
143 0.000701
144 0.000695
145 0.000689
146 0.000682
147 0.000675
148 0.000666
149 0.000661
150 0.000655
151 0.000647
152 0.000640
153 0.000634
154 0.000630
155 0.000623
156 0.000618
157 0.000613
158 0.000609
159 0.000601
160 0.000591
161 0.000585
162 0.000580
163 0.000579
164 0.000576
165 0.000572
166 0.000571
167 0.000569
168 0.000566
169 0.000564
170 0.000562
171 0.000561
172 0.000562
173 0.000562
174 0.000564
175 0.000566
176 0.000566
177 0.000566
178 0.000567
179 0.000570
180 0.000575
181 0.000576
182 0.000575
183 0.000576
184 0.000576
185 0.000576
186 0.000573
187 0.000571
188 0.000568
189 0.000564
190 0.000562
191 0.000561
192 0.000560
193 0.000555
194 0.000551
195 0.000546
196 0.000547
197 0.000549
198 0.000548
199 0.000547
200 0.000544
201 0.000542
202 0.000541
203 0.000542
204 0.000542
205 0.000543
206 0.000543
207 0.000542
208 0.000539
209 0.000539
210 0.000536
211 0.000536
212 0.000535
213 0.000534
214 0.000533
215 0.000533
216 0.000534
217 0.000534
218 0.000535
219 0.000535
220 0.000537
221 0.000538
222 0.000537
223 0.000537
224 0.000540
225 0.000538
226 0.000537
227 0.000536
228 0.000538
229 0.000536
230 0.000535
231 0.000539
232 0.000546
233 0.000551
234 0.000551
235 0.000546
236 0.000541
237 0.000538
238 0.000537
239 0.000538
240 0.000543
241 0.000544
242 0.000544
243 0.000543
244 0.000544
245 0.000546
246 0.000545
247 0.000545
248 0.000545
249 0.000544
250 0.000544
251 0.000547
252 0.000548
253 0.000547
254 0.000547
255 0.000552
256 0.000556
257 0.000558
258 0.000558
259 0.000560
260 0.000557
261 0.000556
262 0.000553
263 0.000549
264 0.000545
265 0.000542
266 0.000538
267 0.000534
268 0.000531
269 0.000528
270 0.000526
271 0.000525
272 0.000524
273 0.000524
274 0.000522
275 0.000520
276 0.000516
277 0.000513
278 0.000511
279 0.000507
280 0.000500
281 0.000495
282 0.000487
283 0.000480
284 0.000473
285 0.000466
286 0.000458
287 0.000453
288 0.000450
289 0.000445
290 0.000443
291 0.000442
292 0.000441
293 0.000439
294 0.000440
295 0.000440
296 0.000439
297 0.000441
298 0.000440
299 0.000435
300 0.000432
301 0.000426
302 0.000421
303 0.000418
304 0.000415
305 0.000411
306 0.000407
307 0.000404
308 0.000405
309 0.000406
310 0.000409
311 0.000409
312 0.000410
313 0.000414
314 0.000416
315 0.000419
316 0.000425
317 0.000426
318 0.000427
319 0.000431
320 0.000436
321 0.000442
322 0.000446
323 0.000448
324 0.000450
325 0.000453
326 0.000456
327 0.000459
328 0.000462
329 0.000460
330 0.000459
331 0.000460
332 0.000462
333 0.000466
334 0.000473
335 0.000477
336 0.000477
337 0.000474
338 0.000474
339 0.000471
340 0.000466
341 0.000465
342 0.000466
343 0.000465
344 0.000463
345 0.000462
346 0.000462
347 0.000465
348 0.000464
349 0.000466
350 0.000470
351 0.000473
352 0.000473
353 0.000473
354 0.000473
355 0.000474
356 0.000475
357 0.000473
358 0.000469
359 0.000466
360 0.000463
361 0.000459
362 0.000455
363 0.000453
364 0.000452
365 0.000449
366 0.000447
367 0.000448
368 0.000448
369 0.000448
370 0.000446
371 0.000445
372 0.000445
373 0.000445
374 0.000443
375 0.000440
376 0.000437
377 0.000433
378 0.000429
379 0.000425
380 0.000425
381 0.000427
382 0.000427
383 0.000427
384 0.000426
385 0.000428
386 0.000431
387 0.000430
388 0.000431
389 0.000434
390 0.000432
391 0.000433
392 0.000434
393 0.000433
394 0.000432
395 0.000432
396 0.000432
397 0.000429
398 0.000427
399 0.000427
400 0.000426
401 0.000426
402 0.000424
403 0.000420
404 0.000420
405 0.000417
406 0.000417
407 0.000416
408 0.000420
409 0.000422
410 0.000422
411 0.000421
412 0.000420
413 0.000416
414 0.000414
415 0.000406
416 0.000401
417 0.000397
418 0.000391
419 0.000388
420 0.000388
421 0.000385
422 0.000384
423 0.000383
424 0.000380
425 0.000378
426 0.000376
427 0.000374
428 0.000373
429 0.000373
430 0.000373
431 0.000375
432 0.000375
433 0.000373
434 0.000369
435 0.000366
436 0.000364
437 0.000364
438 0.000365
439 0.000364
440 0.000363
441 0.000361
442 0.000357
443 0.000353
444 0.000350
445 0.000348
446 0.000344
447 0.000341
448 0.000340
449 0.000340
450 0.000340
451 0.000339
452 0.000339
453 0.000340
454 0.000341
455 0.000343
456 0.000344
457 0.000346
458 0.000345
459 0.000343
460 0.000343
461 0.000346
462 0.000350
463 0.000355
464 0.000360
465 0.000365
466 0.000368
467 0.000371
468 0.000375
469 0.000374
470 0.000371
471 0.000369
472 0.000370
473 0.000368
474 0.000366
475 0.000365
476 0.000362
477 0.000359
478 0.000360
479 0.000362
480 0.000365
481 0.000363
482 0.000361
483 0.000360
484 0.000354
485 0.000350
486 0.000345
487 0.000339
488 0.000334
489 0.000331
490 0.000334
491 0.000333
492 0.000331
493 0.000326
494 0.000321
495 0.000316
496 0.000314
497 0.000314
498 0.000313
499 0.000311
500 0.000309
501 0.000309
502 0.000307
503 0.000306
504 0.000305
505 0.000307
506 0.000307
507 0.000306
508 0.000304
509 0.000303
510 0.000305
511 0.000307
512 0.000308
513 0.000308
514 0.000307
515 0.000308
516 0.000311
517 0.000316
518 0.000324
519 0.000328
520 0.000329
521 0.000330
522 0.000330
523 0.000330
524 0.000329
525 0.000328
526 0.000329
527 0.000327
528 0.000325
529 0.000319
530 0.000317
531 0.000314
532 0.000312
533 0.000312
534 0.000311
535 0.000310
536 0.000308
537 0.000305
538 0.000301
539 0.000297
540 0.000293
541 0.000291
542 0.000288
543 0.000284
544 0.000280
545 0.000275
546 0.000270
547 0.000269
548 0.000268
549 0.000267
550 0.000268
551 0.000269
552 0.000270
553 0.000269
554 0.000270
555 0.000273
556 0.000275
557 0.000276
558 0.000279
559 0.000278
560 0.000277
561 0.000275
562 0.000273
563 0.000270
564 0.000266
565 0.000265
566 0.000266
567 0.000267
568 0.000267
569 0.000268
570 0.000269
571 0.000271
572 0.000273
573 0.000276
574 0.000279
575 0.000281
576 0.000284
577 0.000285
578 0.000288
579 0.000290
580 0.000293
581 0.000296
582 0.000298
583 0.000301
584 0.000302
585 0.000302
586 0.000302
587 0.000302
588 0.000302
589 0.000303
590 0.000301
591 0.000299
592 0.000299
593 0.000300
594 0.000302
595 0.000307
596 0.000308
597 0.000310
598 0.000310
599 0.000312
600 0.000316
601 0.000320
602 0.000321
603 0.000320
604 0.000319
605 0.000320
606 0.000321
607 0.000321
608 0.000322
609 0.000322
610 0.000320
611 0.000317
612 0.000316
613 0.000318
614 0.000322
615 0.000323
616 0.000324
617 0.000326
618 0.000326
619 0.000327
620 0.000326
621 0.000325
622 0.000323
623 0.000319
624 0.000314
625 0.000310
626 0.000306
627 0.000298
628 0.000291
629 0.000287
630 0.000282
631 0.000277
632 0.000275
633 0.000273
634 0.000271
635 0.000270
636 0.000268
637 0.000268
638 0.000268
639 0.000265
640 0.000265
641 0.000267
642 0.000270
643 0.000270
644 0.000273
645 0.000275
646 0.000277
647 0.000278
648 0.000279
649 0.000277
650 0.000276
651 0.000276
652 0.000276
653 0.000276
654 0.000277
655 0.000280
656 0.000281
657 0.000283
658 0.000282
659 0.000283
660 0.000285
661 0.000287
662 0.000288
663 0.000290
664 0.000293
665 0.000294
666 0.000295
667 0.000292
668 0.000289
669 0.000289
670 0.000287
671 0.000287
672 0.000288
673 0.000287
674 0.000283
675 0.000280
676 0.000279
677 0.000280
678 0.000281
679 0.000280
680 0.000279
681 0.000281
682 0.000283
683 0.000284
684 0.000287
685 0.000288
686 0.000288
687 0.000287
688 0.000287
689 0.000288
690 0.000289
691 0.000288
692 0.000285
693 0.000283
694 0.000281
695 0.000277
696 0.000276
697 0.000276
698 0.000273
699 0.000272
700 0.000270
701 0.000268
702 0.000268
703 0.000267
704 0.000266
705 0.000265
706 0.000263
707 0.000263
708 0.000263
709 0.000262
710 0.000260
711 0.000257
712 0.000253
713 0.000246
714 0.000243
715 0.000239
716 0.000235
717 0.000232
718 0.000227
719 0.000226
720 0.000226
721 0.000226
722 0.000228
723 0.000234
724 0.000238
725 0.000241
726 0.000241
727 0.000240
728 0.000240
729 0.000238
730 0.000239
731 0.000237
732 0.000235
733 0.000233
734 0.000231
735 0.000227
736 0.000224
737 0.000220
738 0.000217
739 0.000217
740 0.000215
741 0.000213
742 0.000212
743 0.000212
744 0.000210
745 0.000208
746 0.000209
747 0.000208
748 0.000205
749 0.000201
750 0.000198
751 0.000197
752 0.000194
753 0.000192
754 0.000188
755 0.000184
756 0.000179
757 0.000175
758 0.000172
759 0.000172
760 0.000170
761 0.000169
762 0.000168
763 0.000167
764 0.000165
765 0.000164
766 0.000164
767 0.000162
768 0.000163
769 0.000162
770 0.000158
771 0.000154
772 0.000149
773 0.000146
774 0.000143
775 0.000142
776 0.000140
777 0.000138
778 0.000135
779 0.000132
780 0.000132
781 0.000130
782 0.000129
783 0.000128
784 0.000127
785 0.000123
786 0.000121
787 0.000120
788 0.000120
789 0.000121
790 0.000122
791 0.000123
792 0.000126
793 0.000127
794 0.000127
795 0.000128
796 0.000129
797 0.000129
798 0.000130
799 0.000131
800 0.000132
801 0.000132
802 0.000130
803 0.000127
804 0.000123
805 0.000120
806 0.000117
807 0.000114
808 0.000110
809 0.000104
