# i correlation
1 0.001645
2 0.001608
3 0.001576
4 0.001546
5 0.001522
6 0.001499
7 0.001481
8 0.001465
9 0.001452
10 0.001441
11 0.001429
12 0.001424
13 0.001419
14 0.001413
15 0.001404
16 0.001396
17 0.001392
18 0.001386
19 0.001382
20 0.001374
21 0.001364
22 0.001356
23 0.001350
24 0.001346
25 0.001343
26 0.001340
27 0.001335
28 0.001329
29 0.001327
30 0.001324
31 0.001321
32 0.001313
33 0.001303
34 0.001292
35 0.001281
36 0.001270
37 0.001263
38 0.001259
39 0.001254
40 0.001251
41 0.001247
42 0.001245
43 0.001243
44 0.001239
45 0.001235
46 0.001225
47 0.001218
48 0.001208
49 0.001200
50 0.001189
51 0.001180
52 0.001171
53 0.001164
54 0.001157
55 0.001152
56 0.001151
57 0.001148
58 0.001146
59 0.001146
60 0.001145
61 0.001145
62 0.001145
63 0.001140
64 0.001134
65 0.001125
66 0.001117
67 0.001106
68 0.001099
69 0.001093
70 0.001088
71 0.001084
72 0.001080
73 0.001074
74 0.001070
75 0.001067
76 0.001064
77 0.001059
78 0.001058
79 0.001058
80 0.001061
81 0.001057
82 0.001056
83 0.001053
84 0.001048
85 0.001044
86 0.001038
87 0.001036
88 0.001034
89 0.001034
90 0.001034
91 0.001032
92 0.001028
93 0.001024
94 0.001021
95 0.001018
96 0.001017
97 0.001017
98 0.001014
99 0.001015
100 0.001017
101 0.001017
102 0.001017
103 0.001015
104 0.001014
105 0.001011
106 0.001006
107 0.001002
108 0.000998
109 0.000996
110 0.000993
111 0.000993
112 0.000990
113 0.000986
114 0.000980
115 0.000974
116 0.000971
117 0.000969
118 0.000966
119 0.000963
120 0.000960
121 0.000956
122 0.000951
123 0.000948
124 0.000948
125 0.000949
126 0.000950
127 0.000952
128 0.000953
129 0.000951
130 0.000952
131 0.000950
132 0.000950
133 0.000949
134 0.000948
135 0.000947
136 0.000944
137 0.000943
138 0.000943
139 0.000938
140 0.000931
141 0.000924
142 0.000919
143 0.000915
144 0.000912
145 0.000907
146 0.000900
147 0.000893
148 0.000888
149 0.000883
150 0.000881
151 0.000879
152 0.000874
153 0.000870
154 0.000864
155 0.000857
156 0.000851
157 0.000844
158 0.000838
159 0.000833
160 0.000830
161 0.000829
162 0.000828
163 0.000827
164 0.000825
165 0.000826
166 0.000826
167 0.000825
168 0.000826
169 0.000825
170 0.000826
171 0.000825
172 0.000824
173 0.000821
174 0.000815
175 0.000812
176 0.000809
177 0.000809
178 0.000806
179 0.000803
180 0.000800
181 0.000796
182 0.000793
183 0.000788
184 0.000784
185 0.000777
186 0.000767
187 0.000758
188 0.000749
189 0.000742
190 0.000736
191 0.000733
192 0.000729
193 0.000724
194 0.000721
195 0.000720
196 0.000719
197 0.000717
198 0.000719
199 0.000718
200 0.000717
201 0.000718
202 0.000714
203 0.000712
204 0.000709
205 0.000707
206 0.000704
207 0.000701
208 0.000700
209 0.000697
210 0.000696
211 0.000695
212 0.000692
213 0.000690
214 0.000691
215 0.000695
216 0.000694
217 0.000693
218 0.000689
219 0.000685
220 0.000681
221 0.000677
222 0.000678
223 0.000677
224 0.000678
225 0.000676
226 0.000672
227 0.000672
228 0.000673
229 0.000676
230 0.000677
231 0.000675
232 0.000673
233 0.000671
234 0.000666
235 0.000662
236 0.000659
237 0.000656
238 0.000656
239 0.000656
240 0.000655
241 0.000653
242 0.000650
243 0.000648
244 0.000646
245 0.000644
246 0.000643
247 0.000642
248 0.000638
249 0.000635
250 0.000630
251 0.000625
252 0.000619
253 0.000614
254 0.000611
255 0.000609
256 0.000607
257 0.000604
258 0.000603
259 0.000605
260 0.000608
261 0.000607
262 0.000609
263 0.000613
264 0.000616
265 0.000619
266 0.000619
267 0.000625
268 0.000630
269 0.000634
270 0.000636
271 0.000635
272 0.000632
273 0.000633
274 0.000629
275 0.000623
276 0.000617
277 0.000614
278 0.000613
279 0.000610
280 0.000608
281 0.000605
282 0.000602
283 0.000601
284 0.000599
285 0.000597
286 0.000596
287 0.000593
288 0.000589
289 0.000584
290 0.000579
291 0.000575
292 0.000571
293 0.000570
294 0.000569
295 0.000568
296 0.000566
297 0.000562
298 0.000560
299 0.000558
300 0.000553
301 0.000546
302 0.000542
303 0.000539
304 0.000539
305 0.000540
306 0.000541
307 0.000544
308 0.000545
309 0.000547
310 0.000553
311 0.000558
312 0.000563
313 0.000568
314 0.000571
315 0.000573
316 0.000573
317 0.000571
318 0.000567
319 0.000562
320 0.000560
321 0.000557
322 0.000556
323 0.000556
324 0.000555
325 0.000556
326 0.000558
327 0.000558
328 0.000557
329 0.000557
330 0.000553
331 0.000547
332 0.000539
333 0.000537
334 0.000533
335 0.000529
336 0.000523
337 0.000517
338 0.000512
339 0.000510
340 0.000510
341 0.000509
342 0.000509
343 0.000512
344 0.000513
345 0.000511
346 0.000508
347 0.000506
348 0.000502
349 0.000499
350 0.000497
351 0.000491
352 0.000488
353 0.000486
354 0.000485
355 0.000485
356 0.000484
357 0.000484
358 0.000483
359 0.000485
360 0.000486
361 0.000485
362 0.000483
363 0.000481
364 0.000480
365 0.000479
366 0.000479
367 0.000478
368 0.000478
369 0.000478
370 0.000477
371 0.000476
372 0.000477
373 0.000479
374 0.000480
375 0.000479
376 0.000479
377 0.000477
378 0.000478
379 0.000475
380 0.000469
381 0.000460
382 0.000453
383 0.000448
384 0.000447
385 0.000446
386 0.000448
387 0.000450
388 0.000449
389 0.000450
390 0.000449
391 0.000448
392 0.000449
393 0.000449
394 0.000451
395 0.000453
396 0.000456
397 0.000459
398 0.000460
399 0.000461
400 0.000458
401 0.000456
402 0.000450
403 0.000443
404 0.000440
405 0.000437
406 0.000439
407 0.000440
408 0.000439
409 0.000439
410 0.000437
411 0.000435
412 0.000433
413 0.000433
414 0.000435
415 0.000438
416 0.000439
417 0.000439
418 0.000440
419 0.000440
420 0.000440
421 0.000441
422 0.000440
423 0.000440
424 0.000441
425 0.000441
426 0.000439
427 0.000437
428 0.000435
429 0.000432
430 0.000429
431 0.000424
432 0.000420
433 0.000417
434 0.000415
435 0.000410
436 0.000404
437 0.000403
438 0.000403
439 0.000405
440 0.000409
441 0.000410
442 0.000416
443 0.000418
444 0.000422
445 0.000425
446 0.000426
447 0.000428
448 0.000429
449 0.000429
450 0.000430
451 0.000431
452 0.000433
453 0.000435
454 0.000439
455 0.000442
456 0.000443
457 0.000445
458 0.000446
459 0.000445
460 0.000444
461 0.000443
462 0.000440
463 0.000436
464 0.000434
465 0.000430
466 0.000428
467 0.000427
468 0.000428
469 0.000429
470 0.000428
471 0.000428
472 0.000422
473 0.000414
474 0.000407
475 0.000403
476 0.000402
477 0.000403
478 0.000403
479 0.000402
480 0.000400
481 0.000397
482 0.000396
483 0.000396
484 0.000396
485 0.000397
486 0.000398
487 0.000399
488 0.000400
489 0.000402
490 0.000402
491 0.000401
492 0.000398
493 0.000395
494 0.000394
495 0.000394
496 0.000395
497 0.000395
498 0.000395
499 0.000395
500 0.000395
501 0.000395
502 0.000395
503 0.000394
504 0.000390
505 0.000386
506 0.000384
507 0.000378
508 0.000376
509 0.000376
510 0.000377
511 0.000378
512 0.000377
513 0.000376
514 0.000374
515 0.000371
516 0.000368
517 0.000366
518 0.000366
519 0.000363
520 0.000362
521 0.000360
522 0.000359
523 0.000358
524 0.000358
525 0.000359
526 0.000359
527 0.000362
528 0.000363
529 0.000363
530 0.000361
531 0.000360
532 0.000360
533 0.000359
534 0.000359
535 0.000357
536 0.000356
537 0.000357
538 0.000358
539 0.000359
540 0.000357
541 0.000357
542 0.000358
543 0.000358
544 0.000359
545 0.000361
546 0.000360
547 0.000359
548 0.000357
549 0.000355
550 0.000355
551 0.000358
552 0.000359
553 0.000358
554 0.000356
555 0.000355
556 0.000351
557 0.000349
558 0.000349
559 0.000347
560 0.000345
561 0.000342
562 0.000339
563 0.000338
564 0.000338
565 0.000336
566 0.000335
567 0.000337
568 0.000338
569 0.000339
570 0.000338
571 0.000337
572 0.000337
573 0.000335
574 0.000333
575 0.000330
576 0.000329
577 0.000328
578 0.000327
579 0.000326
580 0.000327
581 0.000327
582 0.000328
583 0.000328
584 0.000329
585 0.000329
586 0.000326
587 0.000324
588 0.000324
589 0.000325
590 0.000326
591 0.000325
592 0.000326
593 0.000329
594 0.000334
595 0.000339
596 0.000344
597 0.000347
598 0.000349
599 0.000347
600 0.000344
601 0.000339
602 0.000337
603 0.000335
604 0.000330
605 0.000326
606 0.000320
607 0.000318
608 0.000315
609 0.000310
610 0.000306
611 0.000301
612 0.000298
613 0.000294
614 0.000295
615 0.000294
616 0.000291
617 0.000289
618 0.000284
619 0.000278
620 0.000274
621 0.000271
622 0.000267
623 0.000265
624 0.000265
625 0.000263
626 0.000261
627 0.000261
628 0.000262
629 0.000266
630 0.000265
631 0.000263
632 0.000261
633 0.000261
634 0.000260
635 0.000257
636 0.000254
637 0.000250
638 0.000248
639 0.000247
640 0.000246
641 0.000245
642 0.000242
643 0.000239
644 0.000235
645 0.000230
646 0.000225
647 0.000220
648 0.000217
649 0.000213
650 0.000205
651 0.000197
652 0.000191
653 0.000188
654 0.000186
655 0.000187
656 0.000190
657 0.000194
658 0.000197
659 0.000200
660 0.000203
661 0.000206
662 0.000209
663 0.000209
664 0.000207
665 0.000204
666 0.000202
667 0.000201
668 0.000197
669 0.000196
670 0.000195
671 0.000196
672 0.000199
673 0.000199
674 0.000198
675 0.000196
676 0.000197
677 0.000197
678 0.000197
679 0.000198
680 0.000199
681 0.000198
682 0.000198
683 0.000199
684 0.000200
685 0.000201
686 0.000201
687 0.000201
688 0.000203
689 0.000205
690 0.000205
691 0.000203
692 0.000203
693 0.000203
694 0.000204
695 0.000203
696 0.000200
697 0.000199
698 0.000197
699 0.000195
700 0.000194
701 0.000196
702 0.000198
703 0.000198
704 0.000198
705 0.000198
706 0.000196
707 0.000194
708 0.000191
709 0.000187
710 0.000182
711 0.000179
712 0.000175
713 0.000171
714 0.000168
715 0.000167
716 0.000164
717 0.000164
718 0.000165
719 0.000167
720 0.000170
721 0.000171
722 0.000172
723 0.000174
724 0.000173
725 0.000171
726 0.000166
727 0.000163
728 0.000159
729 0.000156
730 0.000153
731 0.000152
732 0.000151
733 0.000152
734 0.000154
735 0.000155
736 0.000154
737 0.000154
738 0.000153
739 0.000150
740 0.000148
741 0.000149
742 0.000149
743 0.000147
744 0.000145
745 0.000142
746 0.000140
747 0.000137
748 0.000133
749 0.000130
750 0.000127
751 0.000124
752 0.000121
753 0.000117
754 0.000113
755 0.000109
756 0.000105
757 0.000102
758 0.000099
759 0.000097
760 0.000095
761 0.000094
762 0.000095
763 0.000094
764 0.000095
765 0.000095
766 0.000096
767 0.000097
768 0.000100
769 0.000100
770 0.000099
771 0.000096
772 0.000093
773 0.000089
774 0.000087
775 0.000085
776 0.000082
777 0.000081
778 0.000078
779 0.000076
780 0.000074
781 0.000071
782 0.000071
783 0.000072
784 0.000073
785 0.000074
786 0.000073
787 0.000074
788 0.000072
789 0.000070
790 0.000067
791 0.000065
792 0.000063
793 0.000064
794 0.000067
795 0.000069
796 0.000072
797 0.000075
798 0.000076
799 0.000077
800 0.000077
801 0.000077
802 0.000076
803 0.000072
804 0.000070
805 0.000069
806 0.000069
807 0.000069
808 0.000068
809 0.000069
