# i correlation
1 0.001762
2 0.001724
3 0.001696
4 0.001671
5 0.001649
6 0.001633
7 0.001614
8 0.001597
9 0.001581
10 0.001565
11 0.001547
12 0.001530
13 0.001516
14 0.001507
15 0.001498
16 0.001484
17 0.001467
18 0.001454
19 0.001442
20 0.001429
21 0.001415
22 0.001405
23 0.001394
24 0.001384
25 0.001377
26 0.001369
27 0.001357
28 0.001349
29 0.001342
30 0.001339
31 0.001334
32 0.001332
33 0.001328
34 0.001323
35 0.001318
36 0.001312
37 0.001304
38 0.001293
39 0.001280
40 0.001272
41 0.001263
42 0.001254
43 0.001247
44 0.001243
45 0.001242
46 0.001234
47 0.001226
48 0.001221
49 0.001217
50 0.001215
51 0.001211
52 0.001207
53 0.001202
54 0.001195
55 0.001191
56 0.001191
57 0.001189
58 0.001186
59 0.001182
60 0.001180
61 0.001173
62 0.001166
63 0.001161
64 0.001156
65 0.001151
66 0.001145
67 0.001141
68 0.001137
69 0.001134
70 0.001132
71 0.001129
72 0.001125
73 0.001117
74 0.001108
75 0.001097
76 0.001087
77 0.001079
78 0.001075
79 0.001070
80 0.001065
81 0.001061
82 0.001058
83 0.001057
84 0.001054
85 0.001055
86 0.001056
87 0.001053
88 0.001051
89 0.001051
90 0.001050
91 0.001048
92 0.001046
93 0.001040
94 0.001034
95 0.001029
96 0.001022
97 0.001016
98 0.001015
99 0.001014
100 0.001013
101 0.001010
102 0.001007
103 0.001002
104 0.000996
105 0.000994
106 0.000991
107 0.000983
108 0.000976
109 0.000971
110 0.000964
111 0.000959
112 0.000958
113 0.000957
114 0.000957
115 0.000956
116 0.000950
117 0.000947
118 0.000942
119 0.000936
120 0.000930
121 0.000926
122 0.000923
123 0.000921
124 0.000917
125 0.000913
126 0.000909
127 0.000904
128 0.000898
129 0.000888
130 0.000878
131 0.000870
132 0.000866
133 0.000862
134 0.000856
135 0.000852
136 0.000850
137 0.000848
138 0.000842
139 0.000841
140 0.000838
141 0.000836
142 0.000836
143 0.000838
144 0.000838
145 0.000838
146 0.000838
147 0.000840
148 0.000841
149 0.000840
150 0.000838
151 0.000837
152 0.000835
153 0.000834
154 0.000835
155 0.000837
156 0.000836
157 0.000837
158 0.000839
159 0.000841
160 0.000839
161 0.000834
162 0.000833
163 0.000830
164 0.000824
165 0.000817
166 0.000807
167 0.000800
168 0.000792
169 0.000787
170 0.000782
171 0.000778
172 0.000773
173 0.000771
174 0.000766
175 0.000761
176 0.000757
177 0.000755
178 0.000751
179 0.000745
180 0.000742
181 0.000740
182 0.000737
183 0.000733
184 0.000735
185 0.000734
186 0.000733
187 0.000732
188 0.000730
189 0.000726
190 0.000719
191 0.000713
192 0.000709
193 0.000706
194 0.000702
195 0.000701
196 0.000696
197 0.000691
198 0.000685
199 0.000683
200 0.000681
201 0.000678
202 0.000674
203 0.000672
204 0.000673
205 0.000675
206 0.000674
207 0.000676
208 0.000677
209 0.000675
210 0.000670
211 0.000668
212 0.000669
213 0.000668
214 0.000668
215 0.000671
216 0.000671
217 0.000669
218 0.000665
219 0.000659
220 0.000655
221 0.000652
222 0.000649
223 0.000644
224 0.000638
225 0.000632
226 0.000627
227 0.000625
228 0.000622
229 0.000621
230 0.000621
231 0.000626
232 0.000629
233 0.000628
234 0.000622
235 0.000615
236 0.000612
237 0.000611
238 0.000609
239 0.000606
240 0.000605
241 0.000604
242 0.000602
243 0.000600
244 0.000597
245 0.000597
246 0.000596
247 0.000597
248 0.000597
249 0.000596
250 0.000591
251 0.000587
252 0.000583
253 0.000579
254 0.000577
255 0.000574
256 0.000571
257 0.000568
258 0.000567
259 0.000564
260 0.000562
261 0.000564
262 0.000565
263 0.000567
264 0.000567
265 0.000568
266 0.000567
267 0.000567
268 0.000564
269 0.000561
270 0.000556
271 0.000550
272 0.000548
273 0.000548
274 0.000542
275 0.000535
276 0.000532
277 0.000534
278 0.000534
279 0.000532
280 0.000529
281 0.000524
282 0.000519
283 0.000515
284 0.000509
285 0.000502
286 0.000501
287 0.000501
288 0.000501
289 0.000498
290 0.000492
291 0.000489
292 0.000485
293 0.000483
294 0.000479
295 0.000476
296 0.000474
297 0.000470
298 0.000470
299 0.000475
300 0.000477
301 0.000480
302 0.000488
303 0.000491
304 0.000492
305 0.000494
306 0.000497
307 0.000498
308 0.000495
309 0.000490
310 0.000486
311 0.000483
312 0.000479
313 0.000479
314 0.000479
315 0.000477
316 0.000476
317 0.000477
318 0.000482
319 0.000482
320 0.000481
321 0.000487
322 0.000490
323 0.000492
324 0.000492
325 0.000490
326 0.000488
327 0.000487
328 0.000485
329 0.000485
330 0.000488
331 0.000491
332 0.000493
333 0.000496
334 0.000496
335 0.000495
336 0.000499
337 0.000505
338 0.000507
339 0.000508
340 0.000508
341 0.000505
342 0.000497
343 0.000492
344 0.000492
345 0.000488
346 0.000485
347 0.000485
348 0.000484
349 0.000484
350 0.000484
351 0.000489
352 0.000488
353 0.000486
354 0.000485
355 0.000483
356 0.000480
357 0.000478
358 0.000479
359 0.000482
360 0.000482
361 0.000481
362 0.000479
363 0.000480
364 0.000479
365 0.000479
366 0.000480
367 0.000480
368 0.000477
369 0.000477
370 0.000478
371 0.000480
372 0.000478
373 0.000477
374 0.000477
375 0.000475
376 0.000471
377 0.000467
378 0.000463
379 0.000461
380 0.000459
381 0.000458
382 0.000456
383 0.000451
384 0.000448
385 0.000444
386 0.000441
387 0.000439
388 0.000440
389 0.000439
390 0.000437
391 0.000436
392 0.000436
393 0.000434
394 0.000431
395 0.000428
396 0.000426
397 0.000421
398 0.000414
399 0.000406
400 0.000399
401 0.000393
402 0.000388
403 0.000382
404 0.000378
405 0.000376
406 0.000372
407 0.000368
408 0.000368
409 0.000366
410 0.000367
411 0.000369
412 0.000368
413 0.000366
414 0.000363
415 0.000358
416 0.000358
417 0.000359
418 0.000358
419 0.000359
420 0.000359
421 0.000359
422 0.000357
423 0.000357
424 0.000359
425 0.000360
426 0.000359
427 0.000362
428 0.000362
429 0.000361
430 0.000359
431 0.000357
432 0.000357
433 0.000357
434 0.000357
435 0.000358
436 0.000360
437 0.000359
438 0.000359
439 0.000361
440 0.000363
441 0.000363
442 0.000366
443 0.000366
444 0.000364
445 0.000365
446 0.000367
447 0.000363
448 0.000360
449 0.000362
450 0.000364
451 0.000364
452 0.000362
453 0.000361
454 0.000360
455 0.000358
456 0.000358
457 0.000356
458 0.000354
459 0.000350
460 0.000347
461 0.000345
462 0.000343
463 0.000341
464 0.000341
465 0.000344
466 0.000346
467 0.000344
468 0.000342
469 0.000340
470 0.000342
471 0.000342
472 0.000342
473 0.000341
474 0.000339
475 0.000342
476 0.000345
477 0.000348
478 0.000348
479 0.000345
480 0.000345
481 0.000345
482 0.000344
483 0.000345
484 0.000349
485 0.000353
486 0.000356
487 0.000357
488 0.000355
489 0.000349
490 0.000346
491 0.000342
492 0.000336
493 0.000329
494 0.000323
495 0.000319
496 0.000316
497 0.000312
498 0.000309
499 0.000306
500 0.000302
501 0.000299
502 0.000300
503 0.000301
504 0.000296
505 0.000291
506 0.000288
507 0.000284
508 0.000282
509 0.000283
510 0.000285
511 0.000285
512 0.000284
513 0.000282
514 0.000280
515 0.000277
516 0.000273
517 0.000269
518 0.000266
519 0.000264
520 0.000262
521 0.000260
522 0.000259
523 0.000258
524 0.000254
525 0.000252
526 0.000248
527 0.000244
528 0.000241
529 0.000233
530 0.000224
531 0.000217
532 0.000210
533 0.000206
534 0.000204
535 0.000205
536 0.000207
537 0.000208
538 0.000208
539 0.000207
540 0.000207
541 0.000205
542 0.000203
543 0.000203
544 0.000203
545 0.000206
546 0.000210
547 0.000213
548 0.000216
549 0.000217
550 0.000218
551 0.000220
552 0.000221
553 0.000221
554 0.000223
555 0.000226
556 0.000226
557 0.000223
558 0.000222
559 0.000219
560 0.000215
561 0.000211
562 0.000207
563 0.000204
564 0.000201
565 0.000198
566 0.000196
567 0.000195
568 0.000195
569 0.000195
570 0.000196
571 0.000196
572 0.000195
573 0.000197
574 0.000195
575 0.000194
576 0.000194
577 0.000192
578 0.000191
579 0.000193
580 0.000193
581 0.000194
582 0.000194
583 0.000195
584 0.000195
585 0.000196
586 0.000197
587 0.000197
588 0.000195
589 0.000194
590 0.000191
591 0.000186
592 0.000182
593 0.000177
594 0.000176
595 0.000176
596 0.000175
597 0.000175
598 0.000177
599 0.000179
600 0.000180
601 0.000182
602 0.000181
603 0.000184
604 0.000185
605 0.000186
606 0.000183
607 0.000178
608 0.000175
609 0.000175
610 0.000176
611 0.000174
612 0.000172
613 0.000172
614 0.000170
615 0.000166
616 0.000162
617 0.000158
618 0.000158
619 0.000158
620 0.000160
621 0.000160
622 0.000155
623 0.000152
624 0.000151
625 0.000151
626 0.000154
627 0.000155
628 0.000155
629 0.000154
630 0.000151
631 0.000146
632 0.000144
633 0.000145
634 0.000145
635 0.000147
636 0.000148
637 0.000149
638 0.000149
639 0.000149
640 0.000149
641 0.000146
642 0.000145
643 0.000144
644 0.000143
645 0.000142
646 0.000140
647 0.000139
648 0.000137
649 0.000135
650 0.000134
651 0.000135
652 0.000134
653 0.000132
654 0.000131
655 0.000130
656 0.000127
657 0.000127
658 0.000128
659 0.000128
660 0.000130
661 0.000132
662 0.000132
663 0.000130
664 0.000127
665 0.000127
666 0.000129
667 0.000130
668 0.000131
669 0.000134
670 0.000139
671 0.000144
672 0.000150
673 0.000154
674 0.000155
675 0.000156
676 0.000155
677 0.000153
678 0.000152
679 0.000151
680 0.000147
681 0.000145
682 0.000142
683 0.000139
684 0.000135
685 0.000130
686 0.000125
687 0.000121
688 0.000120
689 0.000118
690 0.000117
691 0.000117
692 0.000117
693 0.000116
694 0.000115
695 0.000114
696 0.000114
697 0.000117
698 0.000121
699 0.000125
700 0.000125
701 0.000125
702 0.000125
703 0.000128
704 0.000131
705 0.000135
706 0.000136
707 0.000140
708 0.000142
709 0.000144
710 0.000148
711 0.000150
712 0.000152
713 0.000155
714 0.000157
715 0.000159
716 0.000160
717 0.000161
718 0.000164
719 0.000164
720 0.000162
721 0.000160
722 0.000159
723 0.000161
724 0.000161
725 0.000163
726 0.000164
727 0.000165
728 0.000165
729 0.000165
730 0.000162
731 0.000160
732 0.000159
733 0.000160
734 0.000161
735 0.000163
736 0.000161
737 0.000158
738 0.000155
739 0.000153
740 0.000152
741 0.000152
742 0.000153
743 0.000154
744 0.000154
745 0.000153
746 0.000150
747 0.000146
748 0.000142
749 0.000138
750 0.000135
751 0.000134
752 0.000132
753 0.000130
754 0.000127
755 0.000124
756 0.000120
757 0.000117
758 0.000115
759 0.000113
760 0.000112
761 0.000110
762 0.000108
763 0.000108
764 0.000106
765 0.000103
766 0.000099
767 0.000097
768 0.000097
769 0.000094
770 0.000090
771 0.000086
772 0.000083
773 0.000079
774 0.000076
775 0.000073
776 0.000071
777 0.000068
778 0.000065
779 0.000063
780 0.000058
781 0.000052
782 0.000047
783 0.000044
784 0.000040
785 0.000036
786 0.000034
787 0.000034
788 0.000033
789 0.000031
790 0.000031
791 0.000030
792 0.000028
793 0.000028
794 0.000029
795 0.000030
796 0.000028
797 0.000028
798 0.000027
799 0.000026
800 0.000024
801 0.000023
802 0.000023
803 0.000023
804 0.000025
805 0.000028
806 0.000030
807 0.000033
808 0.000036
809 0.000039
