# i correlation
1 0.001716
2 0.001680
3 0.001653
4 0.001628
5 0.001607
6 0.001588
7 0.001573
8 0.001557
9 0.001546
10 0.001535
11 0.001525
12 0.001513
13 0.001501
14 0.001488
15 0.001474
16 0.001460
17 0.001450
18 0.001440
19 0.001433
20 0.001428
21 0.001420
22 0.001414
23 0.001408
24 0.001396
25 0.001386
26 0.001378
27 0.001369
28 0.001356
29 0.001346
30 0.001337
31 0.001327
32 0.001320
33 0.001315
34 0.001307
35 0.001301
36 0.001297
37 0.001293
38 0.001288
39 0.001282
40 0.001278
41 0.001274
42 0.001267
43 0.001263
44 0.001258
45 0.001257
46 0.001252
47 0.001247
48 0.001240
49 0.001235
50 0.001235
51 0.001227
52 0.001218
53 0.001212
54 0.001206
55 0.001203
56 0.001198
57 0.001194
58 0.001192
59 0.001187
60 0.001182
61 0.001173
62 0.001164
63 0.001159
64 0.001156
65 0.001149
66 0.001143
67 0.001138
68 0.001132
69 0.001127
70 0.001123
71 0.001119
72 0.001116
73 0.001111
74 0.001106
75 0.001099
76 0.001089
77 0.001082
78 0.001073
79 0.001064
80 0.001058
81 0.001057
82 0.001053
83 0.001049
84 0.001043
85 0.001038
86 0.001038
87 0.001036
88 0.001030
89 0.001022
90 0.001015
91 0.001010
92 0.001001
93 0.000996
94 0.000992
95 0.000990
96 0.000988
97 0.000984
98 0.000979
99 0.000973
100 0.000968
101 0.000960
102 0.000954
103 0.000949
104 0.000946
105 0.000944
106 0.000942
107 0.000941
108 0.000940
109 0.000940
110 0.000938
111 0.000938
112 0.000937
113 0.000934
114 0.000933
115 0.000932
116 0.000933
117 0.000931
118 0.000928
119 0.000926
120 0.000925
121 0.000919
122 0.000914
123 0.000909
124 0.000901
125 0.000895
126 0.000889
127 0.000886
128 0.000881
129 0.000876
130 0.000870
131 0.000868
132 0.000864
133 0.000859
134 0.000853
135 0.000848
136 0.000849
137 0.000849
138 0.000843
139 0.000841
140 0.000840
141 0.000841
142 0.000839
143 0.000834
144 0.000829
145 0.000825
146 0.000819
147 0.000812
148 0.000803
149 0.000795
150 0.000789
151 0.000782
152 0.000772
153 0.000766
154 0.000762
155 0.000759
156 0.000757
157 0.000755
158 0.000751
159 0.000745
160 0.000741
161 0.000737
162 0.000734
163 0.000731
164 0.000730
165 0.000726
166 0.000722
167 0.000722
168 0.000722
169 0.000724
170 0.000726
171 0.000723
172 0.000720
173 0.000718
174 0.000714
175 0.000709
176 0.000705
177 0.000705
178 0.000702
179 0.000698
180 0.000693
181 0.000689
182 0.000688
183 0.000690
184 0.000691
185 0.000687
186 0.000685
187 0.000684
188 0.000680
189 0.000673
190 0.000666
191 0.000661
192 0.000656
193 0.000653
194 0.000647
195 0.000644
196 0.000641
197 0.000640
198 0.000637
199 0.000634
200 0.000634
201 0.000633
202 0.000632
203 0.000633
204 0.000632
205 0.000629
206 0.000628
207 0.000625
208 0.000621
209 0.000613
210 0.000609
211 0.000608
212 0.000605
213 0.000604
214 0.000606
215 0.000601
216 0.000598
217 0.000598
218 0.000599
219 0.000600
220 0.000602
221 0.000600
222 0.000598
223 0.000596
224 0.000591
225 0.000586
226 0.000580
227 0.000580
228 0.000577
229 0.000571
230 0.000566
231 0.000564
232 0.000561
233 0.000557
234 0.000555
235 0.000547
236 0.000543
237 0.000540
238 0.000538
239 0.000537
240 0.000536
241 0.000537
242 0.000532
243 0.000529
244 0.000526
245 0.000525
246 0.000523
247 0.000521
248 0.000518
249 0.000512
250 0.000506
251 0.000504
252 0.000501
253 0.000497
254 0.000496
255 0.000496
256 0.000499
257 0.000503
258 0.000508
259 0.000512
260 0.000513
261 0.000512
262 0.000507
263 0.000505
264 0.000506
265 0.000503
266 0.000503
267 0.000500
268 0.000501
269 0.000499
270 0.000499
271 0.000499
272 0.000496
273 0.000491
274 0.000486
275 0.000481
276 0.000476
277 0.000472
278 0.000473
279 0.000471
280 0.000466
281 0.000464
282 0.000463
283 0.000460
284 0.000458
285 0.000455
286 0.000455
287 0.000455
288 0.000454
289 0.000452
290 0.000451
291 0.000452
292 0.000451
293 0.000449
294 0.000445
295 0.000444
296 0.000441
297 0.000442
298 0.000442
299 0.000441
300 0.000436
301 0.000433
302 0.000428
303 0.000420
304 0.000417
305 0.000416
306 0.000416
307 0.000412
308 0.000408
309 0.000408
310 0.000410
311 0.000411
312 0.000408
313 0.000407
314 0.000408
315 0.000407
316 0.000406
317 0.000403
318 0.000401
319 0.000398
320 0.000398
321 0.000401
322 0.000402
323 0.000405
324 0.000408
325 0.000410
326 0.000410
327 0.000408
328 0.000409
329 0.000410
330 0.000409
331 0.000409
332 0.000411
333 0.000412
334 0.000414
335 0.000414
336 0.000413
337 0.000412
338 0.000412
339 0.000413
340 0.000412
341 0.000412
342 0.000412
343 0.000415
344 0.000415
345 0.000415
346 0.000416
347 0.000418
348 0.000420
349 0.000416
350 0.000414
351 0.000411
352 0.000408
353 0.000405
354 0.000403
355 0.000403
356 0.000402
357 0.000401
358 0.000399
359 0.000396
360 0.000396
361 0.000392
362 0.000391
363 0.000391
364 0.000392
365 0.000390
366 0.000386
367 0.000382
368 0.000380
369 0.000380
370 0.000380
371 0.000381
372 0.000382
373 0.000382
374 0.000381
375 0.000382
376 0.000386
377 0.000386
378 0.000388
379 0.000389
380 0.000392
381 0.000393
382 0.000393
383 0.000393
384 0.000393
385 0.000389
386 0.000388
387 0.000387
388 0.000386
389 0.000385
390 0.000383
391 0.000382
392 0.000381
393 0.000382
394 0.000380
395 0.000378
396 0.000380
397 0.000380
398 0.000383
399 0.000384
400 0.000381
401 0.000382
402 0.000381
403 0.000381
404 0.000382
405 0.000385
406 0.000385
407 0.000386
408 0.000386
409 0.000384
410 0.000385
411 0.000382
412 0.000377
413 0.000373
414 0.000373
415 0.000371
416 0.000369
417 0.000368
418 0.000364
419 0.000363
420 0.000362
421 0.000361
422 0.000360
423 0.000357
424 0.000354
425 0.000354
426 0.000353
427 0.000356
428 0.000359
429 0.000360
430 0.000359
431 0.000358
432 0.000357
433 0.000358
434 0.000361
435 0.000361
436 0.000360
437 0.000360
438 0.000362
439 0.000364
440 0.000363
441 0.000361
442 0.000356
443 0.000353
444 0.000348
445 0.000343
446 0.000340
447 0.000337
448 0.000334
449 0.000331
450 0.000328
451 0.000327
452 0.000328
453 0.000327
454 0.000329
455 0.000332
456 0.000332
457 0.000331
458 0.000330
459 0.000331
460 0.000333
461 0.000336
462 0.000338
463 0.000337
464 0.000339
465 0.000343
466 0.000346
467 0.000349
468 0.000353
469 0.000353
470 0.000352
471 0.000351
472 0.000350
473 0.000346
474 0.000344
475 0.000344
476 0.000341
477 0.000340
478 0.000339
479 0.000340
480 0.000339
481 0.000335
482 0.000333
483 0.000329
484 0.000326
485 0.000325
486 0.000321
487 0.000316
488 0.000312
489 0.000310
490 0.000305
491 0.000302
492 0.000300
493 0.000299
494 0.000299
495 0.000299
496 0.000296
497 0.000293
498 0.000290
499 0.000288
500 0.000283
501 0.000280
502 0.000276
503 0.000274
504 0.000273
505 0.000273
506 0.000272
507 0.000270
508 0.000269
509 0.000271
510 0.000272
511 0.000272
512 0.000275
513 0.000277
514 0.000276
515 0.000277
516 0.000278
517 0.000281
518 0.000284
519 0.000284
520 0.000283
521 0.000284
522 0.000285
523 0.000282
524 0.000282
525 0.000283
526 0.000284
527 0.000285
528 0.000285
529 0.000286
530 0.000286
531 0.000284
532 0.000283
533 0.000281
534 0.000280
535 0.000282
536 0.000281
537 0.000280
538 0.000278
539 0.000276
540 0.000273
541 0.000271
542 0.000271
543 0.000271
544 0.000273
545 0.000273
546 0.000272
547 0.000273
548 0.000273
549 0.000271
550 0.000268
551 0.000265
552 0.000262
553 0.000258
554 0.000258
555 0.000259
556 0.000259
557 0.000259
558 0.000258
559 0.000256
560 0.000252
561 0.000249
562 0.000247
563 0.000244
564 0.000239
565 0.000238
566 0.000239
567 0.000237
568 0.000238
569 0.000237
570 0.000238
571 0.000239
572 0.000240
573 0.000240
574 0.000238
575 0.000238
576 0.000238
577 0.000239
578 0.000239
579 0.000241
580 0.000244
581 0.000244
582 0.000247
583 0.000249
584 0.000254
585 0.000257
586 0.000256
587 0.000253
588 0.000249
589 0.000246
590 0.000242
591 0.000239
592 0.000237
593 0.000234
594 0.000232
595 0.000231
596 0.000231
597 0.000229
598 0.000230
599 0.000229
600 0.000226
601 0.000225
602 0.000225
603 0.000227
604 0.000231
605 0.000235
606 0.000235
607 0.000238
608 0.000238
609 0.000240
610 0.000240
611 0.000243
612 0.000244
613 0.000241
614 0.000235
615 0.000233
616 0.000232
617 0.000229
618 0.000227
619 0.000225
620 0.000223
621 0.000224
622 0.000223
623 0.000222
624 0.000221
625 0.000221
626 0.000220
627 0.000220
628 0.000219
629 0.000218
630 0.000218
631 0.000217
632 0.000216
633 0.000213
634 0.000211
635 0.000209
636 0.000209
637 0.000209
638 0.000209
639 0.000208
640 0.000208
641 0.000209
642 0.000214
643 0.000218
644 0.000221
645 0.000222
646 0.000224
647 0.000225
648 0.000223
649 0.000223
650 0.000223
651 0.000220
652 0.000221
653 0.000221
654 0.000222
655 0.000224
656 0.000224
657 0.000226
658 0.000226
659 0.000226
660 0.000221
661 0.000215
662 0.000213
663 0.000209
664 0.000205
665 0.000202
666 0.000199
667 0.000195
668 0.000193
669 0.000191
670 0.000188
671 0.000187
672 0.000188
673 0.000187
674 0.000185
675 0.000182
676 0.000179
677 0.000176
678 0.000175
679 0.000177
680 0.000175
681 0.000175
682 0.000175
683 0.000173
684 0.000169
685 0.000170
686 0.000170
687 0.000170
688 0.000168
689 0.000168
690 0.000167
691 0.000166
692 0.000167
693 0.000169
694 0.000170
695 0.000172
696 0.000174
697 0.000175
698 0.000179
699 0.000182
700 0.000181
701 0.000181
702 0.000184
703 0.000184
704 0.000183
705 0.000185
706 0.000185
707 0.000188
708 0.000184
709 0.000181
710 0.000177
711 0.000170
712 0.000165
713 0.000161
714 0.000158
715 0.000156
716 0.000157
717 0.000157
718 0.000158
719 0.000157
720 0.000156
721 0.000154
722 0.000150
723 0.000148
724 0.000146
725 0.000146
726 0.000146
727 0.000146
728 0.000146
729 0.000146
730 0.000145
731 0.000146
732 0.000147
733 0.000145
734 0.000142
735 0.000139
736 0.000138
737 0.000135
738 0.000135
739 0.000135
740 0.000138
741 0.000139
742 0.000138
743 0.000138
744 0.000138
745 0.000140
746 0.000141
747 0.000139
748 0.000139
749 0.000139
750 0.000141
751 0.000143
752 0.000147
753 0.000150
754 0.000154
755 0.000156
756 0.000158
757 0.000158
758 0.000157
759 0.000155
760 0.000153
761 0.000153
762 0.000155
763 0.000157
764 0.000158
765 0.000160
766 0.000162
767 0.000162
768 0.000164
769 0.000164
770 0.000162
771 0.000160
772 0.000157
773 0.000154
774 0.000152
775 0.000152
776 0.000151
777 0.000150
778 0.000147
779 0.000143
780 0.000136
781 0.000131
782 0.000128
783 0.000125
784 0.000122
785 0.000121
786 0.000120
787 0.000119
788 0.000119
789 0.000118
790 0.000116
791 0.000115
792 0.000111
793 0.000109
794 0.000108
795 0.000108
796 0.000109
797 0.000107
798 0.000107
799 0.000106
800 0.000106
801 0.000105
802 0.000104
803 0.000106
804 0.000108
805 0.000108
806 0.000108
807 0.000107
808 0.000105
809 0.000105
