# i correlation
1 0.001704
2 0.001669
3 0.001638
4 0.001612
5 0.001589
6 0.001568
7 0.001548
8 0.001529
9 0.001513
10 0.001496
11 0.001482
12 0.001469
13 0.001457
14 0.001445
15 0.001434
16 0.001422
17 0.001410
18 0.001399
19 0.001392
20 0.001385
21 0.001373
22 0.001360
23 0.001346
24 0.001334
25 0.001317
26 0.001304
27 0.001290
28 0.001279
29 0.001268
30 0.001262
31 0.001257
32 0.001251
33 0.001241
34 0.001234
35 0.001229
36 0.001223
37 0.001223
38 0.001219
39 0.001214
40 0.001209
41 0.001205
42 0.001200
43 0.001195
44 0.001189
45 0.001186
46 0.001182
47 0.001176
48 0.001171
49 0.001164
50 0.001162
51 0.001159
52 0.001155
53 0.001146
54 0.001139
55 0.001132
56 0.001126
57 0.001120
58 0.001115
59 0.001110
60 0.001106
61 0.001105
62 0.001105
63 0.001104
64 0.001106
65 0.001106
66 0.001102
67 0.001095
68 0.001087
69 0.001082
70 0.001079
71 0.001074
72 0.001069
73 0.001065
74 0.001060
75 0.001055
76 0.001052
77 0.001051
78 0.001051
79 0.001050
80 0.001048
81 0.001044
82 0.001038
83 0.001032
84 0.001028
85 0.001023
86 0.001016
87 0.001011
88 0.001003
89 0.000998
90 0.000993
91 0.000983
92 0.000978
93 0.000973
94 0.000970
95 0.000967
96 0.000965
97 0.000962
98 0.000959
99 0.000955
100 0.000952
101 0.000952
102 0.000951
103 0.000948
104 0.000944
105 0.000941
106 0.000935
107 0.000930
108 0.000926
109 0.000921
110 0.000918
111 0.000915
112 0.000912
113 0.000905
114 0.000901
115 0.000898
116 0.000900
117 0.000899
118 0.000899
119 0.000899
120 0.000896
121 0.000894
122 0.000893
123 0.000892
124 0.000890
125 0.000889
126 0.000886
127 0.000884
128 0.000880
129 0.000875
130 0.000869
131 0.000865
132 0.000861
133 0.000854
134 0.000852
135 0.000851
136 0.000849
137 0.000848
138 0.000846
139 0.000842
140 0.000836
141 0.000830
142 0.000827
143 0.000826
144 0.000825
145 0.000825
146 0.000825
147 0.000824
148 0.000827
149 0.000831
150 0.000835
151 0.000839
152 0.000838
153 0.000837
154 0.000835
155 0.000836
156 0.000840
157 0.000844
158 0.000845
159 0.000845
160 0.000844
161 0.000840
162 0.000842
163 0.000841
164 0.000840
165 0.000836
166 0.000833
167 0.000829
168 0.000824
169 0.000821
170 0.000816
171 0.000813
172 0.000814
173 0.000811
174 0.000806
175 0.000800
176 0.000797
177 0.000793
178 0.000787
179 0.000785
180 0.000781
181 0.000779
182 0.000779
183 0.000778
184 0.000775
185 0.000771
186 0.000769
187 0.000766
188 0.000766
189 0.000765
190 0.000763
191 0.000759
192 0.000757
193 0.000756
194 0.000756
195 0.000752
196 0.000753
197 0.000753
198 0.000749
199 0.000747
200 0.000746
201 0.000747
202 0.000747
203 0.000746
204 0.000739
205 0.000734
206 0.000731
207 0.000728
208 0.000725
209 0.000723
210 0.000721
211 0.000717
212 0.000710
213 0.000704
214 0.000704
215 0.000702
216 0.000699
217 0.000694
218 0.000689
219 0.000684
220 0.000683
221 0.000682
222 0.000678
223 0.000675
224 0.000674
225 0.000667
226 0.000663
227 0.000660
228 0.000656
229 0.000654
230 0.000653
231 0.000651
232 0.000648
233 0.000646
234 0.000644
235 0.000641
236 0.000637
237 0.000636
238 0.000635
239 0.000633
240 0.000633
241 0.000633
242 0.000632
243 0.000631
244 0.000632
245 0.000631
246 0.000631
247 0.000629
248 0.000627
249 0.000623
250 0.000620
251 0.000619
252 0.000620
253 0.000621
254 0.000622
255 0.000623
256 0.000622
257 0.000621
258 0.000620
259 0.000622
260 0.000624
261 0.000630
262 0.000636
263 0.000636
264 0.000635
265 0.000634
266 0.000635
267 0.000634
268 0.000631
269 0.000627
270 0.000623
271 0.000618
272 0.000615
273 0.000611
274 0.000609
275 0.000610
276 0.000607
277 0.000605
278 0.000601
279 0.000597
280 0.000597
281 0.000598
282 0.000593
283 0.000591
284 0.000588
285 0.000586
286 0.000584
287 0.000580
288 0.000576
289 0.000571
290 0.000564
291 0.000564
292 0.000564
293 0.000563
294 0.000564
295 0.000563
296 0.000560
297 0.000558
298 0.000555
299 0.000552
300 0.000547
301 0.000544
302 0.000540
303 0.000537
304 0.000534
305 0.000530
306 0.000525
307 0.000522
308 0.000522
309 0.000520
310 0.000516
311 0.000514
312 0.000513
313 0.000510
314 0.000504
315 0.000499
316 0.000494
317 0.000492
318 0.000491
319 0.000491
320 0.000493
321 0.000495
322 0.000499
323 0.000504
324 0.000509
325 0.000514
326 0.000519
327 0.000523
328 0.000524
329 0.000527
330 0.000530
331 0.000533
332 0.000536
333 0.000539
334 0.000539
335 0.000536
336 0.000532
337 0.000530
338 0.000528
339 0.000530
340 0.000531
341 0.000534
342 0.000537
343 0.000538
344 0.000536
345 0.000536
346 0.000534
347 0.000529
348 0.000526
349 0.000524
350 0.000519
351 0.000516
352 0.000511
353 0.000507
354 0.000503
355 0.000499
356 0.000495
357 0.000496
358 0.000496
359 0.000497
360 0.000500
361 0.000504
362 0.000505
363 0.000507
364 0.000510
365 0.000514
366 0.000518
367 0.000521
368 0.000522
369 0.000525
370 0.000525
371 0.000524
372 0.000518
373 0.000518
374 0.000517
375 0.000515
376 0.000510
377 0.000506
378 0.000506
379 0.000504
380 0.000503
381 0.000505
382 0.000505
383 0.000504
384 0.000502
385 0.000500
386 0.000498
387 0.000497
388 0.000497
389 0.000497
390 0.000497
391 0.000496
392 0.000489
393 0.000486
394 0.000484
395 0.000482
396 0.000479
397 0.000477
398 0.000474
399 0.000473
400 0.000472
401 0.000469
402 0.000465
403 0.000463
404 0.000460
405 0.000458
406 0.000456
407 0.000452
408 0.000449
409 0.000445
410 0.000443
411 0.000441
412 0.000437
413 0.000438
414 0.000435
415 0.000433
416 0.000430
417 0.000430
418 0.000430
419 0.000429
420 0.000429
421 0.000430
422 0.000428
423 0.000427
424 0.000425
425 0.000422
426 0.000421
427 0.000419
428 0.000418
429 0.000417
430 0.000417
431 0.000418
432 0.000417
433 0.000414
434 0.000412
435 0.000409
436 0.000405
437 0.000402
438 0.000401
439 0.000397
440 0.000396
441 0.000393
442 0.000391
443 0.000388
444 0.000386
445 0.000387
446 0.000387
447 0.000388
448 0.000389
449 0.000389
450 0.000388
451 0.000389
452 0.000388
453 0.000385
454 0.000384
455 0.000382
456 0.000379
457 0.000374
458 0.000372
459 0.000368
460 0.000367
461 0.000366
462 0.000362
463 0.000360
464 0.000358
465 0.000355
466 0.000349
467 0.000342
468 0.000340
469 0.000341
470 0.000341
471 0.000342
472 0.000339
473 0.000333
474 0.000328
475 0.000326
476 0.000323
477 0.000321
478 0.000317
479 0.000315
480 0.000316
481 0.000316
482 0.000317
483 0.000320
484 0.000319
485 0.000319
486 0.000320
487 0.000320
488 0.000319
489 0.000317
490 0.000318
491 0.000319
492 0.000320
493 0.000320
494 0.000319
495 0.000321
496 0.000322
497 0.000321
498 0.000319
499 0.000318
500 0.000314
501 0.000310
502 0.000306
503 0.000302
504 0.000297
505 0.000294
506 0.000293
507 0.000292
508 0.000287
509 0.000282
510 0.000279
511 0.000276
512 0.000272
513 0.000270
514 0.000269
515 0.000267
516 0.000266
517 0.000265
518 0.000265
519 0.000266
520 0.000264
521 0.000263
522 0.000262
523 0.000262
524 0.000261
525 0.000265
526 0.000270
527 0.000274
528 0.000274
529 0.000273
530 0.000270
531 0.000268
532 0.000267
533 0.000265
534 0.000262
535 0.000259
536 0.000256
537 0.000253
538 0.000252
539 0.000251
540 0.000250
541 0.000250
542 0.000249
543 0.000247
544 0.000243
545 0.000241
546 0.000236
547 0.000235
548 0.000232
549 0.000228
550 0.000226
551 0.000222
552 0.000217
553 0.000214
554 0.000210
555 0.000206
556 0.000201
557 0.000198
558 0.000196
559 0.000195
560 0.000194
561 0.000193
562 0.000193
563 0.000195
564 0.000199
565 0.000201
566 0.000202
567 0.000201
568 0.000200
569 0.000201
570 0.000198
571 0.000195
572 0.000193
573 0.000190
574 0.000187
575 0.000185
576 0.000184
577 0.000185
578 0.000186
579 0.000187
580 0.000189
581 0.000189
582 0.000186
583 0.000185
584 0.000187
585 0.000188
586 0.000190
587 0.000191
588 0.000194
589 0.000198
590 0.000203
591 0.000207
592 0.000207
593 0.000208
594 0.000207
595 0.000206
596 0.000207
597 0.000209
598 0.000211
599 0.000211
600 0.000214
601 0.000215
602 0.000217
603 0.000222
604 0.000224
605 0.000230
606 0.000234
607 0.000239
608 0.000241
609 0.000244
610 0.000246
611 0.000250
612 0.000252
613 0.000251
614 0.000251
615 0.000252
616 0.000252
617 0.000252
618 0.000251
619 0.000250
620 0.000250
621 0.000250
622 0.000252
623 0.000252
624 0.000250
625 0.000246
626 0.000244
627 0.000243
628 0.000244
629 0.000245
630 0.000246
631 0.000249
632 0.000251
633 0.000252
634 0.000254
635 0.000254
636 0.000251
637 0.000251
638 0.000248
639 0.000244
640 0.000239
641 0.000235
642 0.000234
643 0.000234
644 0.000233
645 0.000232
646 0.000230
647 0.000227
648 0.000227
649 0.000226
650 0.000226
651 0.000225
652 0.000226
653 0.000226
654 0.000229
655 0.000233
656 0.000234
657 0.000235
658 0.000235
659 0.000233
660 0.000230
661 0.000228
662 0.000226
663 0.000222
664 0.000218
665 0.000217
666 0.000216
667 0.000214
668 0.000211
669 0.000210
670 0.000208
671 0.000206
672 0.000206
673 0.000205
674 0.000205
675 0.000205
676 0.000205
677 0.000204
678 0.000204
679 0.000201
680 0.000198
681 0.000196
682 0.000196
683 0.000195
684 0.000195
685 0.000196
686 0.000195
687 0.000194
688 0.000192
689 0.000191
690 0.000189
691 0.000188
692 0.000189
693 0.000189
694 0.000189
695 0.000187
696 0.000187
697 0.000186
698 0.000188
699 0.000189
700 0.000191
701 0.000189
702 0.000189
703 0.000189
704 0.000188
705 0.000186
706 0.000185
707 0.000184
708 0.000185
709 0.000185
710 0.000183
711 0.000181
712 0.000181
713 0.000182
714 0.000182
715 0.000184
716 0.000186
717 0.000186
718 0.000185
719 0.000180
720 0.000177
721 0.000175
722 0.000174
723 0.000175
724 0.000173
725 0.000170
726 0.000169
727 0.000169
728 0.000171
729 0.000172
730 0.000174
731 0.000176
732 0.000176
733 0.000176
734 0.000176
735 0.000175
736 0.000176
737 0.000174
738 0.000172
739 0.000170
740 0.000167
741 0.000163
742 0.000159
743 0.000153
744 0.000148
745 0.000144
746 0.000141
747 0.000138
748 0.000134
749 0.000132
750 0.000129
751 0.000128
752 0.000127
753 0.000127
754 0.000125
755 0.000125
756 0.000125
757 0.000126
758 0.000125
759 0.000123
760 0.000124
761 0.000124
762 0.000126
763 0.000126
764 0.000127
765 0.000128
766 0.000130
767 0.000132
768 0.000134
769 0.000137
770 0.000138
771 0.000140
772 0.000141
773 0.000142
774 0.000145
775 0.000147
776 0.000148
777 0.000151
778 0.000153
779 0.000157
780 0.000160
781 0.000164
782 0.000167
783 0.000170
784 0.000174
785 0.000175
786 0.000176
787 0.000178
788 0.000180
789 0.000180
790 0.000180
791 0.000178
792 0.000176
793 0.000174
794 0.000173
795 0.000173
796 0.000171
797 0.000168
798 0.000163
799 0.000159
800 0.000156
801 0.000152
802 0.000149
803 0.000145
804 0.000142
805 0.000139
806 0.000136
807 0.000131
808 0.000128
809 0.000125
