# i correlation
1 0.002809
2 0.002536
3 0.002339
4 0.002129
5 0.001977
6 0.001847
7 0.001747
8 0.001646
9 0.001555
10 0.001487
11 0.001402
12 0.001375
13 0.001340
14 0.001298
15 0.001244
16 0.001183
17 0.001143
18 0.001074
19 0.001014
20 0.000948
21 0.000853
22 0.000815
23 0.000760
24 0.000693
25 0.000645
26 0.000616
27 0.000584
28 0.000564
29 0.000556
30 0.000500
31 0.000456
32 0.000456
33 0.000422
34 0.000395
35 0.000409
36 0.000425
37 0.000437
38 0.000449
39 0.000441
40 0.000424
41 0.000407
42 0.000382
43 0.000355
44 0.000318
45 0.000289
46 0.000265
47 0.000224
48 0.000215
49 0.000238
50 0.000263
51 0.000265
52 0.000276
53 0.000276
54 0.000327
55 0.000339
56 0.000301
57 0.000263
58 0.000192
59 0.000122
60 0.000086
61 0.000075
62 0.000064
63 0.000082
64 0.000105
65 0.000094
66 0.000085
67 0.000083
68 0.000080
69 0.000142
70 0.000131
71 0.000150
72 0.000186
73 0.000173
74 0.000170
75 0.000150
76 0.000136
77 0.000132
78 0.000126
79 0.000151
80 0.000181
81 0.000211
82 0.000215
83 0.000270
84 0.000305
85 0.000300
86 0.000316
87 0.000333
88 0.000328
89 0.000359
90 0.000396
91 0.000456
92 0.000496
93 0.000537
94 0.000543
95 0.000556
96 0.000581
97 0.000582
98 0.000586
99 0.000597
100 0.000626
101 0.000661
102 0.000648
103 0.000653
104 0.000649
105 0.000669
106 0.000694
107 0.000718
108 0.000761
109 0.000808
110 0.000835
111 0.000841
112 0.000847
113 0.000845
114 0.000812
115 0.000794
116 0.000785
117 0.000781
118 0.000806
119 0.000813
120 0.000791
121 0.000773
122 0.000732
123 0.000703
124 0.000679
125 0.000708
126 0.000721
127 0.000702
128 0.000697
129 0.000692
130 0.000690
131 0.000685
132 0.000667
133 0.000662
134 0.000627
135 0.000604
136 0.000580
137 0.000550
138 0.000566
139 0.000573
140 0.000555
141 0.000556
142 0.000515
143 0.000473
144 0.000451
145 0.000437
146 0.000445
147 0.000448
148 0.000445
149 0.000426
150 0.000403
151 0.000366
152 0.000353
153 0.000322
154 0.000288
155 0.000281
156 0.000245
157 0.000203
158 0.000178
159 0.000149
160 0.000128
161 0.000110
162 0.000091
163 0.000050
164 0.000012
165 -0.000040
166 -0.000075
167 -0.000106
168 -0.000134
169 -0.000169
170 -0.000177
171 -0.000194
172 -0.000206
173 -0.000224
174 -0.000236
175 -0.000239
176 -0.000227
177 -0.000218
178 -0.000247
179 -0.000264
180 -0.000266
181 -0.000273
182 -0.000255
183 -0.000246
184 -0.000211
185 -0.000192
186 -0.000181
187 -0.000174
188 -0.000173
189 -0.000174
190 -0.000136
191 -0.000110
192 -0.000080
193 -0.000052
194 0.000007
195 0.000069
196 0.000108
197 0.000152
198 0.000209
199 0.000266
200 0.000331
201 0.000381
202 0.000428
203 0.000443
204 0.000452
205 0.000463
206 0.000438
207 0.000400
208 0.000357
209 0.000355
210 0.000364
211 0.000374
212 0.000401
213 0.000415
214 0.000415
215 0.000409
216 0.000395
217 0.000369
218 0.000356
219 0.000339
220 0.000318
221 0.000334
222 0.000362
223 0.000386
224 0.000431
225 0.000460
226 0.000476
227 0.000499
228 0.000499
229 0.000499
230 0.000517
231 0.000525
232 0.000516
233 0.000500
234 0.000498
235 0.000484
236 0.000451
237 0.000413
238 0.000413
239 0.000391
240 0.000372
241 0.000368
242 0.000368
243 0.000344
244 0.000337
245 0.000331
246 0.000313
247 0.000304
248 0.000317
249 0.000346
250 0.000343
251 0.000342
252 0.000328
253 0.000313
254 0.000315
255 0.000320
256 0.000338
257 0.000350
258 0.000334
259 0.000349
260 0.000343
261 0.000351
262 0.000352
263 0.000329
264 0.000316
265 0.000288
266 0.000279
267 0.000294
268 0.000303
269 0.000326
270 0.000341
271 0.000348
272 0.000337
273 0.000332
274 0.000324
275 0.000329
276 0.000334
277 0.000331
278 0.000322
279 0.000329
280 0.000306
281 0.000300
282 0.000266
283 0.000244
284 0.000220
285 0.000206
286 0.000198
287 0.000192
288 0.000186
289 0.000162
290 0.000138
291 0.000139
292 0.000134
293 0.000163
294 0.000185
295 0.000208
296 0.000247
297 0.000281
298 0.000312
299 0.000328
300 0.000315
301 0.000285
302 0.000272
303 0.000296
304 0.000282
305 0.000279
306 0.000279
307 0.000285
308 0.000284
309 0.000276
310 0.000281
311 0.000305
312 0.000327
313 0.000341
314 0.000337
315 0.000345
316 0.000345
317 0.000346
318 0.000360
319 0.000357
320 0.000350
321 0.000348
322 0.000344
323 0.000357
324 0.000344
325 0.000366
326 0.000382
327 0.000366
328 0.000337
329 0.000304
330 0.000275
331 0.000274
332 0.000258
333 0.000245
334 0.000238
335 0.000270
336 0.000296
337 0.000280
338 0.000283
339 0.000293
340 0.000331
341 0.000345
342 0.000336
343 0.000349
344 0.000344
345 0.000322
346 0.000300
347 0.000270
348 0.000283
349 0.000304
350 0.000342
351 0.000347
352 0.000347
353 0.000365
354 0.000364
355 0.000340
356 0.000310
357 0.000294
358 0.000294
359 0.000277
360 0.000261
361 0.000239
362 0.000235
363 0.000220
364 0.000198
365 0.000176
366 0.000169
367 0.000171
368 0.000164
369 0.000153
370 0.000133
371 0.000121
372 0.000127
373 0.000093
374 0.000036
375 0.000025
376 0.000020
377 0.000015
378 -0.000015
379 -0.000049
380 -0.000076
381 -0.000105
382 -0.000128
383 -0.000171
384 -0.000194
385 -0.000205
386 -0.000199
387 -0.000176
388 -0.000141
389 -0.000112
390 -0.000058
391 -0.000018
392 0.000001
393 0.000002
394 0.000011
395 0.000041
396 0.000026
397 0.000002
398 0.000002
399 0.000001
400 0.000028
401 0.000055
402 0.000083
403 0.000103
404 0.000167
405 0.000221
406 0.000255
407 0.000303
408 0.000345
409 0.000353
410 0.000359
411 0.000361
412 0.000350
413 0.000310
414 0.000294
415 0.000275
416 0.000261
417 0.000227
418 0.000213
419 0.000238
420 0.000238
421 0.000229
422 0.000213
423 0.000208
424 0.000208
425 0.000234
426 0.000271
427 0.000300
428 0.000327
429 0.000349
430 0.000372
431 0.000400
432 0.000438
433 0.000471
434 0.000481
435 0.000484
436 0.000507
437 0.000495
438 0.000495
439 0.000479
440 0.000459
441 0.000462
442 0.000409
443 0.000375
444 0.000351
445 0.000336
446 0.000328
447 0.000326
448 0.000341
449 0.000367
450 0.000382
451 0.000388
452 0.000377
453 0.000351
454 0.000322
455 0.000293
456 0.000275
457 0.000252
458 0.000241
459 0.000232
460 0.000228
461 0.000231
462 0.000228
463 0.000208
464 0.000197
465 0.000179
466 0.000143
467 0.000101
468 0.000081
469 0.000081
470 0.000073
471 0.000069
472 0.000044
473 0.000044
474 0.000033
475 0.000026
476 0.000031
477 0.000021
478 -0.000006
479 -0.000023
480 -0.000060
481 -0.000089
482 -0.000113
483 -0.000148
484 -0.000179
485 -0.000205
486 -0.000231
487 -0.000224
488 -0.000210
489 -0.000197
490 -0.000181
491 -0.000167
492 -0.000147
493 -0.000145
494 -0.000141
495 -0.000124
496 -0.000129
497 -0.000136
498 -0.000143
499 -0.000159
500 -0.000167
501 -0.000160
502 -0.000133
503 -0.000098
504 -0.000072
505 -0.000033
506 -0.000001
507 0.000021
508 0.000026
509 0.000020
510 0.000032
511 0.000044
512 0.000072
513 0.000106
514 0.000105
515 0.000093
516 0.000086
517 0.000079
518 0.000081
519 0.000106
520 0.000157
521 0.000206
522 0.000213
523 0.000223
524 0.000216
525 0.000225
526 0.000239
527 0.000258
528 0.000259
529 0.000259
530 0.000261
531 0.000248
532 0.000231
533 0.000230
534 0.000228
535 0.000220
536 0.000203
537 0.000195
538 0.000197
539 0.000201
540 0.000189
541 0.000189
542 0.000213
543 0.000224
544 0.000252
545 0.000287
546 0.000304
547 0.000317
548 0.000331
549 0.000348
550 0.000360
551 0.000368
552 0.000367
553 0.000383
554 0.000390
555 0.000388
556 0.000395
557 0.000401
558 0.000403
559 0.000428
560 0.000431
561 0.000438
562 0.000436
563 0.000424
564 0.000409
565 0.000396
566 0.000410
567 0.000430
568 0.000427
569 0.000419
570 0.000398
571 0.000383
572 0.000360
573 0.000333
574 0.000324
575 0.000306
576 0.000292
577 0.000272
578 0.000246
579 0.000224
580 0.000195
581 0.000179
582 0.000175
583 0.000146
584 0.000127
585 0.000111
586 0.000092
587 0.000072
588 0.000059
589 0.000040
590 0.000022
591 0.000002
592 -0.000025
593 -0.000055
594 -0.000091
595 -0.000121
596 -0.000132
597 -0.000156
598 -0.000178
599 -0.000186
600 -0.000194
601 -0.000211
602 -0.000209
603 -0.000205
604 -0.000198
605 -0.000199
606 -0.000209
607 -0.000204
608 -0.000212
609 -0.000210
610 -0.000195
611 -0.000182
612 -0.000191
613 -0.000216
614 -0.000228
615 -0.000249
616 -0.000266
617 -0.000263
618 -0.000273
619 -0.000276
620 -0.000260
621 -0.000239
622 -0.000211
623 -0.000188
624 -0.000185
625 -0.000182
626 -0.000181
627 -0.000209
628 -0.000220
629 -0.000223
630 -0.000228
631 -0.000208
632 -0.000194
633 -0.000172
634 -0.000141
635 -0.000138
636 -0.000130
637 -0.000099
638 -0.000084
639 -0.000063
640 -0.000030
641 -0.000026
642 -0.000033
643 -0.000039
644 -0.000060
645 -0.000082
646 -0.000089
647 -0.000108
648 -0.000117
649 -0.000116
650 -0.000116
651 -0.000116
652 -0.000097
653 -0.000068
654 -0.000048
655 -0.000041
656 -0.000038
657 -0.000040
658 -0.000060
659 -0.000043
660 -0.000008
661 0.000022
662 0.000064
663 0.000117
664 0.000143
665 0.000165
666 0.000173
667 0.000180
668 0.000193
669 0.000212
670 0.000208
671 0.000203
672 0.000198
673 0.000195
674 0.000216
675 0.000253
676 0.000282
677 0.000293
678 0.000287
679 0.000278
680 0.000264
681 0.000260
682 0.000248
683 0.000231
684 0.000205
685 0.000181
686 0.000167
687 0.000159
688 0.000156
689 0.000166
690 0.000169
691 0.000174
692 0.000182
693 0.000175
694 0.000174
695 0.000176
696 0.000140
697 0.000126
698 0.000127
699 0.000088
700 0.000065
701 0.000032
702 0.000009
703 0.000024
704 0.000024
705 0.000033
706 0.000044
707 0.000054
708 0.000067
709 0.000076
710 0.000074
711 0.000071
712 0.000076
713 0.000077
714 0.000070
715 0.000069
716 0.000053
717 0.000071
718 0.000086
719 0.000083
720 0.000088
721 0.000085
722 0.000067
723 0.000040
724 0.000019
725 0.000008
726 -0.000003
727 -0.000025
728 -0.000041
729 -0.000047
730 -0.000044
731 -0.000022
732 0.000002
733 0.000002
734 -0.000004
735 -0.000016
736 -0.000030
737 -0.000046
738 -0.000067
739 -0.000094
740 -0.000122
741 -0.000133
742 -0.000147
743 -0.000145
744 -0.000124
745 -0.000114
746 -0.000097
747 -0.000079
748 -0.000051
749 -0.000038
750 -0.000036
751 -0.000027
752 -0.000033
753 -0.000051
754 -0.000043
755 -0.000043
756 -0.000049
757 -0.000058
758 -0.000049
759 -0.000033
760 -0.000020
761 0.000002
762 0.000005
763 0.000011
764 0.000027
765 0.000029
766 0.000031
767 0.000045
768 0.000052
769 0.000062
770 0.000072
771 0.000080
772 0.000099
773 0.000113
774 0.000131
775 0.000136
776 0.000140
777 0.000139
778 0.000134
779 0.000136
780 0.000141
781 0.000152
782 0.000168
783 0.000182
784 0.000199
785 0.000190
786 0.000199
787 0.000217
788 0.000218
789 0.000223
790 0.000217
791 0.000205
792 0.000192
793 0.000187
794 0.000191
795 0.000190
796 0.000193
797 0.000177
798 0.000169
799 0.000163
800 0.000162
801 0.000177
802 0.000190
803 0.000193
804 0.000193
805 0.000192
806 0.000177
807 0.000160
808 0.000154
809 0.000146
