# i correlation
1 0.003039
2 0.002731
3 0.002451
4 0.002229
5 0.002066
6 0.001928
7 0.001834
8 0.001775
9 0.001673
10 0.001610
11 0.001569
12 0.001530
13 0.001501
14 0.001485
15 0.001457
16 0.001437
17 0.001419
18 0.001442
19 0.001427
20 0.001436
21 0.001462
22 0.001505
23 0.001538
24 0.001585
25 0.001621
26 0.001649
27 0.001631
28 0.001584
29 0.001521
30 0.001440
31 0.001353
32 0.001322
33 0.001301
34 0.001287
35 0.001296
36 0.001256
37 0.001199
38 0.001179
39 0.001174
40 0.001169
41 0.001171
42 0.001178
43 0.001170
44 0.001189
45 0.001138
46 0.001133
47 0.001116
48 0.001123
49 0.001161
50 0.001212
51 0.001239
52 0.001242
53 0.001224
54 0.001216
55 0.001203
56 0.001184
57 0.001177
58 0.001162
59 0.001162
60 0.001147
61 0.001100
62 0.001071
63 0.001020
64 0.000979
65 0.000971
66 0.000964
67 0.000988
68 0.000987
69 0.000983
70 0.001008
71 0.000982
72 0.000957
73 0.000946
74 0.000931
75 0.000907
76 0.000884
77 0.000865
78 0.000850
79 0.000850
80 0.000862
81 0.000878
82 0.000892
83 0.000926
84 0.000964
85 0.000978
86 0.000968
87 0.000947
88 0.000944
89 0.000934
90 0.000927
91 0.000935
92 0.000960
93 0.000944
94 0.000936
95 0.000944
96 0.000949
97 0.000929
98 0.000876
99 0.000852
100 0.000853
101 0.000825
102 0.000797
103 0.000753
104 0.000722
105 0.000732
106 0.000704
107 0.000689
108 0.000712
109 0.000758
110 0.000773
111 0.000792
112 0.000800
113 0.000806
114 0.000805
115 0.000792
116 0.000794
117 0.000796
118 0.000797
119 0.000804
120 0.000801
121 0.000797
122 0.000791
123 0.000848
124 0.000873
125 0.000865
126 0.000848
127 0.000839
128 0.000807
129 0.000800
130 0.000794
131 0.000795
132 0.000793
133 0.000804
134 0.000828
135 0.000838
136 0.000844
137 0.000848
138 0.000824
139 0.000819
140 0.000836
141 0.000870
142 0.000874
143 0.000852
144 0.000853
145 0.000811
146 0.000790
147 0.000785
148 0.000771
149 0.000759
150 0.000733
151 0.000725
152 0.000716
153 0.000677
154 0.000617
155 0.000598
156 0.000602
157 0.000607
158 0.000623
159 0.000668
160 0.000696
161 0.000715
162 0.000746
163 0.000767
164 0.000793
165 0.000828
166 0.000881
167 0.000913
168 0.000935
169 0.000949
170 0.000948
171 0.000904
172 0.000808
173 0.000725
174 0.000639
175 0.000586
176 0.000555
177 0.000541
178 0.000535
179 0.000535
180 0.000544
181 0.000567
182 0.000577
183 0.000603
184 0.000630
185 0.000672
186 0.000719
187 0.000752
188 0.000763
189 0.000764
190 0.000750
191 0.000767
192 0.000779
193 0.000791
194 0.000811
195 0.000802
196 0.000785
197 0.000752
198 0.000703
199 0.000648
200 0.000579
201 0.000541
202 0.000497
203 0.000479
204 0.000468
205 0.000448
206 0.000448
207 0.000454
208 0.000438
209 0.000439
210 0.000441
211 0.000478
212 0.000504
213 0.000495
214 0.000488
215 0.000480
216 0.000449
217 0.000457
218 0.000447
219 0.000461
220 0.000493
221 0.000527
222 0.000562
223 0.000565
224 0.000565
225 0.000591
226 0.000603
227 0.000596
228 0.000614
229 0.000651
230 0.000666
231 0.000672
232 0.000674
233 0.000686
234 0.000672
235 0.000661
236 0.000683
237 0.000702
238 0.000723
239 0.000722
240 0.000704
241 0.000680
242 0.000661
243 0.000624
244 0.000617
245 0.000611
246 0.000625
247 0.000682
248 0.000725
249 0.000756
250 0.000779
251 0.000800
252 0.000825
253 0.000859
254 0.000851
255 0.000854
256 0.000853
257 0.000850
258 0.000851
259 0.000815
260 0.000787
261 0.000773
262 0.000759
263 0.000750
264 0.000764
265 0.000780
266 0.000781
267 0.000789
268 0.000772
269 0.000751
270 0.000743
271 0.000764
272 0.000780
273 0.000806
274 0.000800
275 0.000795
276 0.000784
277 0.000762
278 0.000741
279 0.000729
280 0.000720
281 0.000706
282 0.000701
283 0.000700
284 0.000699
285 0.000684
286 0.000651
287 0.000626
288 0.000613
289 0.000595
290 0.000572
291 0.000572
292 0.000554
293 0.000546
294 0.000517
295 0.000490
296 0.000501
297 0.000494
298 0.000477
299 0.000471
300 0.000461
301 0.000473
302 0.000473
303 0.000480
304 0.000472
305 0.000440
306 0.000423
307 0.000394
308 0.000380
309 0.000379
310 0.000376
311 0.000362
312 0.000330
313 0.000278
314 0.000246
315 0.000220
316 0.000225
317 0.000259
318 0.000272
319 0.000278
320 0.000293
321 0.000323
322 0.000364
323 0.000371
324 0.000341
325 0.000331
326 0.000318
327 0.000319
328 0.000332
329 0.000341
330 0.000362
331 0.000381
332 0.000386
333 0.000373
334 0.000354
335 0.000330
336 0.000290
337 0.000253
338 0.000248
339 0.000221
340 0.000216
341 0.000202
342 0.000174
343 0.000138
344 0.000095
345 0.000061
346 0.000037
347 0.000041
348 0.000062
349 0.000080
350 0.000085
351 0.000075
352 0.000079
353 0.000093
354 0.000108
355 0.000120
356 0.000138
357 0.000143
358 0.000163
359 0.000172
360 0.000177
361 0.000181
362 0.000201
363 0.000217
364 0.000228
365 0.000214
366 0.000186
367 0.000150
368 0.000112
369 0.000082
370 0.000054
371 0.000044
372 0.000023
373 0.000012
374 -0.000005
375 -0.000001
376 0.000033
377 0.000051
378 0.000054
379 0.000040
380 0.000045
381 0.000073
382 0.000083
383 0.000085
384 0.000094
385 0.000093
386 0.000075
387 0.000058
388 0.000070
389 0.000076
390 0.000079
391 0.000096
392 0.000112
393 0.000123
394 0.000126
395 0.000117
396 0.000099
397 0.000099
398 0.000100
399 0.000096
400 0.000100
401 0.000107
402 0.000107
403 0.000101
404 0.000079
405 0.000041
406 0.000028
407 -0.000012
408 -0.000044
409 -0.000065
410 -0.000085
411 -0.000092
412 -0.000115
413 -0.000115
414 -0.000105
415 -0.000086
416 -0.000062
417 -0.000029
418 0.000002
419 0.000049
420 0.000069
421 0.000080
422 0.000088
423 0.000095
424 0.000097
425 0.000084
426 0.000053
427 0.000028
428 -0.000013
429 -0.000047
430 -0.000068
431 -0.000085
432 -0.000093
433 -0.000093
434 -0.000104
435 -0.000080
436 -0.000057
437 -0.000045
438 -0.000051
439 -0.000066
440 -0.000065
441 -0.000049
442 -0.000028
443 0.000003
444 0.000028
445 0.000059
446 0.000072
447 0.000057
448 0.000035
449 -0.000002
450 -0.000011
451 -0.000002
452 0.000005
453 0.000022
454 0.000044
455 0.000039
456 0.000011
457 -0.000010
458 -0.000017
459 -0.000024
460 -0.000050
461 -0.000055
462 -0.000057
463 -0.000055
464 -0.000065
465 -0.000080
466 -0.000124
467 -0.000173
468 -0.000227
469 -0.000236
470 -0.000241
471 -0.000224
472 -0.000206
473 -0.000175
474 -0.000171
475 -0.000163
476 -0.000144
477 -0.000131
478 -0.000119
479 -0.000109
480 -0.000095
481 -0.000082
482 -0.000097
483 -0.000108
484 -0.000112
485 -0.000105
486 -0.000089
487 -0.000039
488 -0.000018
489 0.000005
490 0.000021
491 0.000013
492 0.000001
493 -0.000015
494 -0.000021
495 -0.000018
496 -0.000022
497 -0.000014
498 -0.000018
499 -0.000028
500 -0.000034
501 -0.000054
502 -0.000064
503 -0.000067
504 -0.000064
505 -0.000020
506 0.000004
507 0.000008
508 0.000020
509 0.000019
510 0.000006
511 0.000002
512 -0.000014
513 -0.000001
514 -0.000011
515 -0.000004
516 -0.000017
517 -0.000030
518 -0.000041
519 -0.000061
520 -0.000069
521 -0.000057
522 -0.000047
523 -0.000024
524 -0.000001
525 0.000036
526 0.000046
527 0.000052
528 0.000079
529 0.000131
530 0.000166
531 0.000205
532 0.000255
533 0.000295
534 0.000293
535 0.000272
536 0.000239
537 0.000208
538 0.000179
539 0.000139
540 0.000137
541 0.000143
542 0.000138
543 0.000138
544 0.000136
545 0.000120
546 0.000122
547 0.000135
548 0.000126
549 0.000118
550 0.000106
551 0.000086
552 0.000061
553 0.000044
554 0.000059
555 0.000091
556 0.000109
557 0.000133
558 0.000155
559 0.000186
560 0.000209
561 0.000200
562 0.000172
563 0.000146
564 0.000117
565 0.000091
566 0.000053
567 0.000037
568 0.000018
569 0.000015
570 0.000032
571 0.000044
572 0.000056
573 0.000064
574 0.000051
575 0.000040
576 0.000020
577 -0.000005
578 -0.000018
579 -0.000025
580 -0.000014
581 -0.000003
582 0.000015
583 0.000031
584 0.000050
585 0.000073
586 0.000086
587 0.000105
588 0.000124
589 0.000126
590 0.000115
591 0.000074
592 0.000063
593 0.000063
594 0.000047
595 0.000037
596 0.000030
597 0.000014
598 0.000008
599 -0.000006
600 -0.000009
601 -0.000009
602 -0.000009
603 -0.000017
604 -0.000028
605 -0.000022
606 -0.000007
607 0.000003
608 0.000003
609 -0.000014
610 -0.000013
611 -0.000011
612 -0.000010
613 0.000015
614 0.000050
615 0.000053
616 0.000051
617 0.000045
618 0.000030
619 -0.000003
620 -0.000010
621 0.000003
622 0.000030
623 0.000047
624 0.000075
625 0.000084
626 0.000082
627 0.000070
628 0.000088
629 0.000114
630 0.000111
631 0.000108
632 0.000105
633 0.000088
634 0.000066
635 0.000027
636 0.000009
637 -0.000015
638 -0.000031
639 -0.000032
640 -0.000035
641 -0.000037
642 -0.000017
643 0.000000
644 0.000018
645 0.000015
646 0.000028
647 0.000016
648 0.000013
649 0.000023
650 0.000055
651 0.000086
652 0.000122
653 0.000142
654 0.000144
655 0.000150
656 0.000151
657 0.000150
658 0.000150
659 0.000140
660 0.000132
661 0.000105
662 0.000060
663 0.000023
664 0.000018
665 0.000025
666 0.000037
667 0.000040
668 0.000050
669 0.000039
670 0.000043
671 0.000048
672 0.000070
673 0.000098
674 0.000118
675 0.000136
676 0.000138
677 0.000132
678 0.000136
679 0.000140
680 0.000146
681 0.000153
682 0.000161
683 0.000150
684 0.000150
685 0.000132
686 0.000109
687 0.000078
688 0.000057
689 0.000040
690 0.000039
691 0.000027
692 0.000024
693 0.000018
694 0.000038
695 0.000040
696 0.000040
697 0.000032
698 0.000028
699 0.000027
700 0.000027
701 0.000026
702 0.000022
703 0.000010
704 -0.000007
705 -0.000035
706 -0.000048
707 -0.000048
708 -0.000053
709 -0.000055
710 -0.000062
711 -0.000071
712 -0.000069
713 -0.000079
714 -0.000094
715 -0.000106
716 -0.000091
717 -0.000072
718 -0.000044
719 -0.000013
720 0.000018
721 0.000040
722 0.000059
723 0.000062
724 0.000069
725 0.000082
726 0.000104
727 0.000112
728 0.000118
729 0.000129
730 0.000126
731 0.000110
732 0.000083
733 0.000054
734 0.000032
735 -0.000002
736 -0.000023
737 -0.000062
738 -0.000084
739 -0.000102
740 -0.000103
741 -0.000089
742 -0.000090
743 -0.000089
744 -0.000072
745 -0.000046
746 -0.000031
747 -0.000010
748 0.000001
749 -0.000009
750 -0.000037
751 -0.000037
752 -0.000027
753 -0.000015
754 0.000012
755 0.000035
756 0.000042
757 0.000037
758 0.000035
759 0.000031
760 0.000016
761 -0.000004
762 -0.000013
763 -0.000022
764 -0.000039
765 -0.000057
766 -0.000053
767 -0.000052
768 -0.000043
769 -0.000023
770 -0.000002
771 0.000009
772 0.000015
773 0.000032
774 0.000054
775 0.000069
776 0.000079
777 0.000088
778 0.000091
779 0.000093
780 0.000120
781 0.000142
782 0.000164
783 0.000184
784 0.000201
785 0.000205
786 0.000198
787 0.000185
788 0.000162
789 0.000148
790 0.000130
791 0.000128
792 0.000124
793 0.000126
794 0.000139
795 0.000170
796 0.000185
797 0.000194
798 0.000200
799 0.000197
800 0.000183
801 0.000167
802 0.000168
803 0.000169
804 0.000163
805 0.000151
806 0.000147
807 0.000150
808 0.000168
809 0.000200
