# i correlation
1 0.003521
2 0.003229
3 0.002981
4 0.002776
5 0.002603
6 0.002446
7 0.002307
8 0.002208
9 0.002125
10 0.002048
11 0.001947
12 0.001856
13 0.001801
14 0.001763
15 0.001703
16 0.001670
17 0.001605
18 0.001550
19 0.001500
20 0.001455
21 0.001422
22 0.001417
23 0.001397
24 0.001371
25 0.001350
26 0.001302
27 0.001306
28 0.001281
29 0.001231
30 0.001195
31 0.001172
32 0.001140
33 0.001135
34 0.001115
35 0.001099
36 0.001068
37 0.001079
38 0.001103
39 0.001083
40 0.001063
41 0.001065
42 0.001030
43 0.001012
44 0.001000
45 0.000976
46 0.000958
47 0.000928
48 0.000905
49 0.000885
50 0.000895
51 0.000892
52 0.000905
53 0.000931
54 0.000951
55 0.000983
56 0.001025
57 0.001092
58 0.001123
59 0.001132
60 0.001171
61 0.001193
62 0.001197
63 0.001182
64 0.001147
65 0.001079
66 0.001042
67 0.001009
68 0.001016
69 0.001037
70 0.001063
71 0.001093
72 0.001112
73 0.001116
74 0.001094
75 0.001039
76 0.001043
77 0.001047
78 0.001063
79 0.001086
80 0.001121
81 0.001156
82 0.001215
83 0.001209
84 0.001208
85 0.001234
86 0.001233
87 0.001235
88 0.001217
89 0.001203
90 0.001162
91 0.001136
92 0.001113
93 0.001070
94 0.001056
95 0.001033
96 0.001033
97 0.001046
98 0.001069
99 0.001044
100 0.000981
101 0.000950
102 0.000951
103 0.000976
104 0.000983
105 0.000975
106 0.000976
107 0.001015
108 0.001025
109 0.001026
110 0.001023
111 0.000993
112 0.000983
113 0.000952
114 0.000925
115 0.000903
116 0.000941
117 0.000935
118 0.000905
119 0.000885
120 0.000904
121 0.000906
122 0.000872
123 0.000884
124 0.000910
125 0.000944
126 0.000948
127 0.000947
128 0.000909
129 0.000888
130 0.000915
131 0.000946
132 0.000980
133 0.000993
134 0.000987
135 0.001007
136 0.001038
137 0.001042
138 0.001023
139 0.001029
140 0.001109
141 0.001184
142 0.001241
143 0.001278
144 0.001311
145 0.001333
146 0.001341
147 0.001355
148 0.001364
149 0.001364
150 0.001354
151 0.001341
152 0.001294
153 0.001229
154 0.001201
155 0.001201
156 0.001182
157 0.001165
158 0.001160
159 0.001174
160 0.001166
161 0.001138
162 0.001106
163 0.001102
164 0.001090
165 0.001077
166 0.001049
167 0.001031
168 0.001019
169 0.001032
170 0.001031
171 0.001000
172 0.000953
173 0.000939
174 0.000917
175 0.000892
176 0.000863
177 0.000840
178 0.000829
179 0.000859
180 0.000874
181 0.000897
182 0.000889
183 0.000906
184 0.000920
185 0.000923
186 0.000926
187 0.000936
188 0.000955
189 0.000952
190 0.000931
191 0.000907
192 0.000906
193 0.000926
194 0.000937
195 0.000899
196 0.000868
197 0.000863
198 0.000848
199 0.000813
200 0.000798
201 0.000801
202 0.000800
203 0.000785
204 0.000795
205 0.000802
206 0.000842
207 0.000854
208 0.000873
209 0.000868
210 0.000857
211 0.000820
212 0.000783
213 0.000778
214 0.000797
215 0.000760
216 0.000735
217 0.000723
218 0.000721
219 0.000715
220 0.000704
221 0.000670
222 0.000660
223 0.000672
224 0.000690
225 0.000697
226 0.000685
227 0.000710
228 0.000742
229 0.000785
230 0.000827
231 0.000855
232 0.000871
233 0.000880
234 0.000882
235 0.000849
236 0.000818
237 0.000832
238 0.000800
239 0.000825
240 0.000844
241 0.000907
242 0.000920
243 0.000919
244 0.000895
245 0.000878
246 0.000851
247 0.000792
248 0.000729
249 0.000681
250 0.000650
251 0.000647
252 0.000639
253 0.000619
254 0.000603
255 0.000599
256 0.000589
257 0.000574
258 0.000564
259 0.000541
260 0.000532
261 0.000558
262 0.000554
263 0.000548
264 0.000559
265 0.000577
266 0.000645
267 0.000688
268 0.000733
269 0.000745
270 0.000750
271 0.000778
272 0.000787
273 0.000780
274 0.000787
275 0.000797
276 0.000808
277 0.000793
278 0.000771
279 0.000750
280 0.000749
281 0.000754
282 0.000776
283 0.000767
284 0.000758
285 0.000756
286 0.000791
287 0.000821
288 0.000852
289 0.000869
290 0.000877
291 0.000926
292 0.000961
293 0.000964
294 0.000938
295 0.000926
296 0.000946
297 0.000957
298 0.000959
299 0.000954
300 0.000948
301 0.000977
302 0.000994
303 0.000982
304 0.000971
305 0.000942
306 0.000893
307 0.000824
308 0.000740
309 0.000682
310 0.000671
311 0.000656
312 0.000649
313 0.000666
314 0.000668
315 0.000662
316 0.000668
317 0.000661
318 0.000647
319 0.000628
320 0.000590
321 0.000569
322 0.000563
323 0.000562
324 0.000578
325 0.000606
326 0.000662
327 0.000697
328 0.000737
329 0.000790
330 0.000800
331 0.000823
332 0.000828
333 0.000836
334 0.000838
335 0.000831
336 0.000804
337 0.000791
338 0.000788
339 0.000794
340 0.000783
341 0.000755
342 0.000718
343 0.000701
344 0.000688
345 0.000671
346 0.000657
347 0.000614
348 0.000600
349 0.000588
350 0.000584
351 0.000600
352 0.000581
353 0.000593
354 0.000605
355 0.000602
356 0.000588
357 0.000599
358 0.000607
359 0.000604
360 0.000591
361 0.000569
362 0.000541
363 0.000519
364 0.000500
365 0.000497
366 0.000502
367 0.000525
368 0.000523
369 0.000504
370 0.000498
371 0.000491
372 0.000470
373 0.000486
374 0.000514
375 0.000542
376 0.000556
377 0.000577
378 0.000596
379 0.000608
380 0.000614
381 0.000641
382 0.000678
383 0.000701
384 0.000707
385 0.000702
386 0.000717
387 0.000725
388 0.000712
389 0.000688
390 0.000643
391 0.000627
392 0.000605
393 0.000579
394 0.000564
395 0.000537
396 0.000521
397 0.000499
398 0.000485
399 0.000454
400 0.000441
401 0.000435
402 0.000445
403 0.000432
404 0.000434
405 0.000434
406 0.000418
407 0.000422
408 0.000442
409 0.000461
410 0.000453
411 0.000467
412 0.000490
413 0.000502
414 0.000518
415 0.000527
416 0.000536
417 0.000524
418 0.000526
419 0.000503
420 0.000526
421 0.000526
422 0.000534
423 0.000554
424 0.000583
425 0.000622
426 0.000631
427 0.000647
428 0.000638
429 0.000628
430 0.000629
431 0.000627
432 0.000629
433 0.000635
434 0.000652
435 0.000669
436 0.000682
437 0.000710
438 0.000748
439 0.000784
440 0.000792
441 0.000790
442 0.000784
443 0.000763
444 0.000707
445 0.000688
446 0.000653
447 0.000632
448 0.000595
449 0.000583
450 0.000560
451 0.000539
452 0.000530
453 0.000521
454 0.000501
455 0.000488
456 0.000456
457 0.000413
458 0.000360
459 0.000322
460 0.000282
461 0.000285
462 0.000293
463 0.000293
464 0.000303
465 0.000330
466 0.000344
467 0.000324
468 0.000297
469 0.000281
470 0.000290
471 0.000298
472 0.000295
473 0.000314
474 0.000331
475 0.000342
476 0.000361
477 0.000371
478 0.000406
479 0.000409
480 0.000419
481 0.000394
482 0.000394
483 0.000391
484 0.000401
485 0.000403
486 0.000426
487 0.000413
488 0.000411
489 0.000394
490 0.000383
491 0.000363
492 0.000335
493 0.000276
494 0.000274
495 0.000290
496 0.000294
497 0.000274
498 0.000278
499 0.000264
500 0.000245
501 0.000224
502 0.000204
503 0.000193
504 0.000163
505 0.000169
506 0.000174
507 0.000193
508 0.000214
509 0.000248
510 0.000276
511 0.000323
512 0.000360
513 0.000352
514 0.000333
515 0.000318
516 0.000328
517 0.000329
518 0.000345
519 0.000357
520 0.000310
521 0.000289
522 0.000262
523 0.000262
524 0.000267
525 0.000275
526 0.000288
527 0.000320
528 0.000352
529 0.000343
530 0.000340
531 0.000301
532 0.000299
533 0.000307
534 0.000327
535 0.000341
536 0.000347
537 0.000349
538 0.000345
539 0.000317
540 0.000299
541 0.000280
542 0.000273
543 0.000291
544 0.000309
545 0.000319
546 0.000347
547 0.000355
548 0.000349
549 0.000347
550 0.000323
551 0.000306
552 0.000314
553 0.000295
554 0.000256
555 0.000228
556 0.000221
557 0.000213
558 0.000209
559 0.000235
560 0.000231
561 0.000220
562 0.000230
563 0.000224
564 0.000206
565 0.000189
566 0.000173
567 0.000179
568 0.000230
569 0.000274
570 0.000309
571 0.000338
572 0.000360
573 0.000378
574 0.000379
575 0.000389
576 0.000386
577 0.000384
578 0.000375
579 0.000365
580 0.000369
581 0.000373
582 0.000367
583 0.000349
584 0.000313
585 0.000305
586 0.000287
587 0.000281
588 0.000263
589 0.000256
590 0.000272
591 0.000261
592 0.000252
593 0.000243
594 0.000265
595 0.000267
596 0.000275
597 0.000280
598 0.000294
599 0.000293
600 0.000285
601 0.000266
602 0.000238
603 0.000211
604 0.000192
605 0.000164
606 0.000141
607 0.000115
608 0.000103
609 0.000089
610 0.000065
611 0.000024
612 -0.000012
613 -0.000045
614 -0.000055
615 -0.000047
616 -0.000042
617 -0.000058
618 -0.000069
619 -0.000056
620 -0.000035
621 -0.000014
622 0.000008
623 0.000009
624 0.000007
625 0.000013
626 0.000023
627 0.000010
628 0.000023
629 0.000013
630 -0.000010
631 -0.000022
632 -0.000001
633 0.000013
634 0.000022
635 0.000035
636 0.000035
637 0.000032
638 0.000022
639 0.000022
640 0.000008
641 0.000013
642 0.000037
643 0.000049
644 0.000061
645 0.000048
646 0.000047
647 0.000044
648 0.000034
649 0.000041
650 0.000045
651 0.000063
652 0.000056
653 0.000065
654 0.000081
655 0.000101
656 0.000111
657 0.000127
658 0.000125
659 0.000148
660 0.000176
661 0.000189
662 0.000196
663 0.000202
664 0.000205
665 0.000214
666 0.000220
667 0.000255
668 0.000286
669 0.000312
670 0.000351
671 0.000370
672 0.000385
673 0.000379
674 0.000370
675 0.000368
676 0.000369
677 0.000362
678 0.000368
679 0.000405
680 0.000439
681 0.000438
682 0.000444
683 0.000457
684 0.000472
685 0.000478
686 0.000492
687 0.000469
688 0.000449
689 0.000408
690 0.000346
691 0.000285
692 0.000266
693 0.000266
694 0.000258
695 0.000257
696 0.000266
697 0.000259
698 0.000258
699 0.000239
700 0.000214
701 0.000197
702 0.000185
703 0.000182
704 0.000176
705 0.000177
706 0.000180
707 0.000193
708 0.000210
709 0.000218
710 0.000211
711 0.000213
712 0.000222
713 0.000234
714 0.000233
715 0.000229
716 0.000210
717 0.000216
718 0.000211
719 0.000198
720 0.000192
721 0.000185
722 0.000155
723 0.000148
724 0.000120
725 0.000117
726 0.000116
727 0.000114
728 0.000103
729 0.000095
730 0.000067
731 0.000048
732 0.000030
733 0.000018
734 -0.000006
735 -0.000024
736 -0.000016
737 -0.000011
738 -0.000007
739 0.000001
740 0.000028
741 0.000064
742 0.000097
743 0.000119
744 0.000141
745 0.000149
746 0.000153
747 0.000134
748 0.000113
749 0.000102
750 0.000093
751 0.000093
752 0.000102
753 0.000117
754 0.000113
755 0.000112
756 0.000121
757 0.000130
758 0.000157
759 0.000175
760 0.000190
761 0.000207
762 0.000215
763 0.000214
764 0.000215
765 0.000213
766 0.000220
767 0.000226
768 0.000232
769 0.000262
770 0.000263
771 0.000263
772 0.000242
773 0.000218
774 0.000207
775 0.000202
776 0.000184
777 0.000194
778 0.000193
779 0.000197
780 0.000202
781 0.000195
782 0.000196
783 0.000206
784 0.000213
785 0.000205
786 0.000193
787 0.000177
788 0.000156
789 0.000130
790 0.000100
791 0.000090
792 0.000064
793 0.000042
794 0.000011
795 -0.000014
796 -0.000019
797 -0.000026
798 -0.000041
799 -0.000038
800 -0.000037
801 -0.000034
802 -0.000023
803 -0.000019
804 -0.000008
805 0.000001
806 -0.000009
807 -0.000001
808 -0.000007
809 0.000005
