# i correlation
1 0.003352
2 0.003017
3 0.002744
4 0.002536
5 0.002378
6 0.002230
7 0.002072
8 0.001955
9 0.001866
10 0.001793
11 0.001751
12 0.001718
13 0.001682
14 0.001649
15 0.001645
16 0.001664
17 0.001669
18 0.001629
19 0.001603
20 0.001585
21 0.001587
22 0.001631
23 0.001637
24 0.001612
25 0.001585
26 0.001531
27 0.001497
28 0.001480
29 0.001460
30 0.001426
31 0.001409
32 0.001375
33 0.001385
34 0.001422
35 0.001442
36 0.001450
37 0.001433
38 0.001418
39 0.001415
40 0.001419
41 0.001398
42 0.001364
43 0.001302
44 0.001234
45 0.001186
46 0.001112
47 0.001069
48 0.001064
49 0.001055
50 0.001067
51 0.001102
52 0.001112
53 0.001091
54 0.001061
55 0.000998
56 0.000954
57 0.000928
58 0.000902
59 0.000898
60 0.000899
61 0.000901
62 0.000912
63 0.000930
64 0.000946
65 0.000962
66 0.000947
67 0.000941
68 0.000932
69 0.000907
70 0.000894
71 0.000898
72 0.000891
73 0.000897
74 0.000900
75 0.000880
76 0.000861
77 0.000816
78 0.000786
79 0.000775
80 0.000799
81 0.000783
82 0.000768
83 0.000751
84 0.000741
85 0.000741
86 0.000735
87 0.000736
88 0.000753
89 0.000744
90 0.000749
91 0.000736
92 0.000710
93 0.000678
94 0.000665
95 0.000700
96 0.000731
97 0.000731
98 0.000723
99 0.000721
100 0.000696
101 0.000709
102 0.000734
103 0.000736
104 0.000749
105 0.000749
106 0.000745
107 0.000743
108 0.000731
109 0.000695
110 0.000654
111 0.000606
112 0.000537
113 0.000493
114 0.000468
115 0.000449
116 0.000453
117 0.000462
118 0.000448
119 0.000412
120 0.000396
121 0.000381
122 0.000354
123 0.000355
124 0.000361
125 0.000392
126 0.000429
127 0.000409
128 0.000412
129 0.000418
130 0.000461
131 0.000493
132 0.000529
133 0.000567
134 0.000574
135 0.000568
136 0.000518
137 0.000461
138 0.000452
139 0.000468
140 0.000454
141 0.000443
142 0.000428
143 0.000432
144 0.000463
145 0.000483
146 0.000440
147 0.000397
148 0.000369
149 0.000356
150 0.000354
151 0.000371
152 0.000345
153 0.000298
154 0.000265
155 0.000288
156 0.000293
157 0.000291
158 0.000305
159 0.000338
160 0.000409
161 0.000480
162 0.000521
163 0.000516
164 0.000481
165 0.000481
166 0.000529
167 0.000592
168 0.000658
169 0.000706
170 0.000702
171 0.000701
172 0.000692
173 0.000690
174 0.000654
175 0.000588
176 0.000522
177 0.000491
178 0.000467
179 0.000434
180 0.000400
181 0.000357
182 0.000329
183 0.000325
184 0.000357
185 0.000371
186 0.000398
187 0.000391
188 0.000350
189 0.000329
190 0.000306
191 0.000307
192 0.000320
193 0.000322
194 0.000347
195 0.000388
196 0.000441
197 0.000483
198 0.000502
199 0.000514
200 0.000521
201 0.000520
202 0.000540
203 0.000584
204 0.000567
205 0.000536
206 0.000506
207 0.000482
208 0.000475
209 0.000476
210 0.000468
211 0.000483
212 0.000485
213 0.000469
214 0.000452
215 0.000422
216 0.000357
217 0.000279
218 0.000228
219 0.000200
220 0.000215
221 0.000188
222 0.000208
223 0.000166
224 0.000092
225 0.000057
226 0.000060
227 0.000088
228 0.000116
229 0.000149
230 0.000180
231 0.000211
232 0.000216
233 0.000212
234 0.000235
235 0.000274
236 0.000295
237 0.000277
238 0.000224
239 0.000202
240 0.000196
241 0.000156
242 0.000127
243 0.000080
244 0.000031
245 -0.000034
246 -0.000085
247 -0.000125
248 -0.000163
249 -0.000166
250 -0.000160
251 -0.000109
252 -0.000077
253 -0.000064
254 -0.000073
255 -0.000096
256 -0.000089
257 -0.000087
258 -0.000110
259 -0.000126
260 -0.000149
261 -0.000149
262 -0.000142
263 -0.000119
264 -0.000080
265 -0.000030
266 0.000003
267 0.000032
268 0.000067
269 0.000108
270 0.000138
271 0.000158
272 0.000178
273 0.000177
274 0.000194
275 0.000191
276 0.000207
277 0.000200
278 0.000163
279 0.000141
280 0.000113
281 0.000068
282 0.000041
283 0.000052
284 0.000047
285 0.000052
286 0.000030
287 0.000007
288 0.000004
289 -0.000001
290 -0.000025
291 -0.000027
292 -0.000021
293 -0.000028
294 0.000003
295 0.000038
296 0.000055
297 0.000032
298 -0.000012
299 -0.000058
300 -0.000069
301 -0.000069
302 -0.000015
303 0.000011
304 0.000052
305 0.000083
306 0.000101
307 0.000135
308 0.000161
309 0.000148
310 0.000144
311 0.000140
312 0.000167
313 0.000165
314 0.000167
315 0.000124
316 0.000089
317 0.000100
318 0.000136
319 0.000162
320 0.000155
321 0.000135
322 0.000123
323 0.000098
324 0.000081
325 0.000061
326 0.000031
327 0.000005
328 0.000017
329 0.000041
330 0.000077
331 0.000109
332 0.000111
333 0.000099
334 0.000072
335 0.000094
336 0.000125
337 0.000170
338 0.000172
339 0.000178
340 0.000186
341 0.000185
342 0.000177
343 0.000155
344 0.000132
345 0.000130
346 0.000147
347 0.000161
348 0.000180
349 0.000141
350 0.000092
351 0.000054
352 0.000072
353 0.000123
354 0.000168
355 0.000199
356 0.000214
357 0.000246
358 0.000255
359 0.000293
360 0.000322
361 0.000328
362 0.000332
363 0.000341
364 0.000343
365 0.000360
366 0.000361
367 0.000366
368 0.000392
369 0.000436
370 0.000478
371 0.000512
372 0.000535
373 0.000567
374 0.000582
375 0.000592
376 0.000604
377 0.000611
378 0.000618
379 0.000597
380 0.000579
381 0.000590
382 0.000611
383 0.000592
384 0.000579
385 0.000558
386 0.000528
387 0.000503
388 0.000493
389 0.000477
390 0.000488
391 0.000510
392 0.000524
393 0.000542
394 0.000567
395 0.000566
396 0.000593
397 0.000617
398 0.000644
399 0.000674
400 0.000701
401 0.000706
402 0.000740
403 0.000765
404 0.000803
405 0.000829
406 0.000833
407 0.000834
408 0.000817
409 0.000809
410 0.000796
411 0.000779
412 0.000755
413 0.000722
414 0.000679
415 0.000652
416 0.000606
417 0.000561
418 0.000543
419 0.000533
420 0.000522
421 0.000525
422 0.000500
423 0.000487
424 0.000471
425 0.000462
426 0.000442
427 0.000423
428 0.000417
429 0.000386
430 0.000348
431 0.000309
432 0.000277
433 0.000282
434 0.000304
435 0.000332
436 0.000354
437 0.000380
438 0.000405
439 0.000398
440 0.000419
441 0.000424
442 0.000421
443 0.000434
444 0.000434
445 0.000429
446 0.000409
447 0.000387
448 0.000349
449 0.000324
450 0.000302
451 0.000273
452 0.000225
453 0.000186
454 0.000157
455 0.000135
456 0.000147
457 0.000174
458 0.000185
459 0.000191
460 0.000183
461 0.000175
462 0.000193
463 0.000228
464 0.000268
465 0.000298
466 0.000292
467 0.000279
468 0.000268
469 0.000267
470 0.000234
471 0.000212
472 0.000195
473 0.000196
474 0.000211
475 0.000222
476 0.000235
477 0.000237
478 0.000229
479 0.000242
480 0.000270
481 0.000301
482 0.000291
483 0.000292
484 0.000251
485 0.000249
486 0.000262
487 0.000276
488 0.000289
489 0.000267
490 0.000222
491 0.000222
492 0.000239
493 0.000222
494 0.000185
495 0.000151
496 0.000140
497 0.000133
498 0.000146
499 0.000169
500 0.000176
501 0.000191
502 0.000212
503 0.000232
504 0.000269
505 0.000308
506 0.000333
507 0.000337
508 0.000355
509 0.000362
510 0.000369
511 0.000352
512 0.000299
513 0.000239
514 0.000221
515 0.000205
516 0.000217
517 0.000223
518 0.000212
519 0.000196
520 0.000166
521 0.000141
522 0.000141
523 0.000132
524 0.000123
525 0.000127
526 0.000125
527 0.000126
528 0.000118
529 0.000110
530 0.000096
531 0.000078
532 0.000066
533 0.000065
534 0.000073
535 0.000083
536 0.000091
537 0.000101
538 0.000115
539 0.000155
540 0.000185
541 0.000206
542 0.000211
543 0.000199
544 0.000221
545 0.000248
546 0.000242
547 0.000224
548 0.000210
549 0.000204
550 0.000192
551 0.000199
552 0.000189
553 0.000191
554 0.000206
555 0.000213
556 0.000199
557 0.000195
558 0.000186
559 0.000195
560 0.000203
561 0.000196
562 0.000176
563 0.000172
564 0.000162
565 0.000158
566 0.000162
567 0.000180
568 0.000216
569 0.000218
570 0.000212
571 0.000220
572 0.000231
573 0.000244
574 0.000253
575 0.000251
576 0.000278
577 0.000298
578 0.000299
579 0.000305
580 0.000307
581 0.000310
582 0.000315
583 0.000302
584 0.000293
585 0.000283
586 0.000236
587 0.000203
588 0.000195
589 0.000207
590 0.000232
591 0.000250
592 0.000272
593 0.000294
594 0.000319
595 0.000330
596 0.000340
597 0.000339
598 0.000345
599 0.000369
600 0.000364
601 0.000351
602 0.000338
603 0.000329
604 0.000350
605 0.000366
606 0.000382
607 0.000405
608 0.000432
609 0.000468
610 0.000496
611 0.000520
612 0.000545
613 0.000579
614 0.000591
615 0.000571
616 0.000542
617 0.000511
618 0.000482
619 0.000441
620 0.000403
621 0.000372
622 0.000347
623 0.000295
624 0.000264
625 0.000251
626 0.000255
627 0.000272
628 0.000266
629 0.000257
630 0.000270
631 0.000280
632 0.000294
633 0.000312
634 0.000328
635 0.000333
636 0.000346
637 0.000367
638 0.000366
639 0.000358
640 0.000365
641 0.000368
642 0.000369
643 0.000384
644 0.000384
645 0.000365
646 0.000341
647 0.000337
648 0.000329
649 0.000334
650 0.000334
651 0.000328
652 0.000330
653 0.000331
654 0.000321
655 0.000320
656 0.000309
657 0.000296
658 0.000285
659 0.000283
660 0.000273
661 0.000282
662 0.000265
663 0.000254
664 0.000241
665 0.000241
666 0.000233
667 0.000231
668 0.000228
669 0.000232
670 0.000241
671 0.000244
672 0.000251
673 0.000257
674 0.000278
675 0.000313
676 0.000346
677 0.000393
678 0.000423
679 0.000464
680 0.000493
681 0.000493
682 0.000470
683 0.000447
684 0.000437
685 0.000429
686 0.000419
687 0.000406
688 0.000396
689 0.000393
690 0.000389
691 0.000390
692 0.000382
693 0.000363
694 0.000355
695 0.000344
696 0.000340
697 0.000332
698 0.000315
699 0.000306
700 0.000300
701 0.000293
702 0.000282
703 0.000276
704 0.000255
705 0.000232
706 0.000222
707 0.000214
708 0.000213
709 0.000215
710 0.000220
711 0.000223
712 0.000240
713 0.000256
714 0.000268
715 0.000282
716 0.000293
717 0.000312
718 0.000322
719 0.000323
720 0.000318
721 0.000321
722 0.000321
723 0.000324
724 0.000320
725 0.000308
726 0.000276
727 0.000251
728 0.000244
729 0.000235
730 0.000212
731 0.000185
732 0.000178
733 0.000181
734 0.000179
735 0.000171
736 0.000160
737 0.000166
738 0.000178
739 0.000189
740 0.000203
741 0.000196
742 0.000186
743 0.000182
744 0.000184
745 0.000191
746 0.000182
747 0.000181
748 0.000178
749 0.000164
750 0.000159
751 0.000157
752 0.000159
753 0.000152
754 0.000154
755 0.000162
756 0.000165
757 0.000184
758 0.000201
759 0.000216
760 0.000235
761 0.000252
762 0.000265
763 0.000278
764 0.000282
765 0.000285
766 0.000284
767 0.000276
768 0.000258
769 0.000251
770 0.000231
771 0.000229
772 0.000242
773 0.000264
774 0.000281
775 0.000297
776 0.000316
777 0.000344
778 0.000360
779 0.000368
780 0.000380
781 0.000385
782 0.000390
783 0.000391
784 0.000377
785 0.000364
786 0.000353
787 0.000336
788 0.000331
789 0.000304
790 0.000281
791 0.000262
792 0.000238
793 0.000224
794 0.000219
795 0.000227
796 0.000240
797 0.000263
798 0.000282
799 0.000303
800 0.000309
801 0.000300
802 0.000287
803 0.000280
804 0.000271
805 0.000260
806 0.000238
807 0.000218
808 0.000215
809 0.000220
