# i correlation
1 0.002999
2 0.002708
3 0.002483
4 0.002327
5 0.002197
6 0.002059
7 0.001963
8 0.001865
9 0.001772
10 0.001683
11 0.001572
12 0.001517
13 0.001448
14 0.001422
15 0.001377
16 0.001349
17 0.001322
18 0.001274
19 0.001215
20 0.001141
21 0.001092
22 0.001038
23 0.000983
24 0.000949
25 0.000916
26 0.000924
27 0.000916
28 0.000971
29 0.001027
30 0.001050
31 0.001033
32 0.001013
33 0.001068
34 0.001093
35 0.001099
36 0.001101
37 0.001081
38 0.001095
39 0.001057
40 0.001018
41 0.000998
42 0.000984
43 0.000956
44 0.000894
45 0.000843
46 0.000792
47 0.000796
48 0.000814
49 0.000822
50 0.000777
51 0.000771
52 0.000779
53 0.000744
54 0.000711
55 0.000669
56 0.000636
57 0.000625
58 0.000615
59 0.000604
60 0.000584
61 0.000583
62 0.000607
63 0.000615
64 0.000631
65 0.000646
66 0.000685
67 0.000687
68 0.000684
69 0.000660
70 0.000642
71 0.000649
72 0.000616
73 0.000554
74 0.000470
75 0.000386
76 0.000354
77 0.000353
78 0.000329
79 0.000287
80 0.000313
81 0.000369
82 0.000407
83 0.000427
84 0.000443
85 0.000504
86 0.000552
87 0.000610
88 0.000655
89 0.000686
90 0.000709
91 0.000725
92 0.000737
93 0.000745
94 0.000736
95 0.000755
96 0.000794
97 0.000848
98 0.000872
99 0.000926
100 0.000967
101 0.001035
102 0.001066
103 0.001074
104 0.001107
105 0.001155
106 0.001195
107 0.001183
108 0.001127
109 0.001100
110 0.001055
111 0.001022
112 0.000944
113 0.000932
114 0.000939
115 0.000943
116 0.000897
117 0.000858
118 0.000850
119 0.000871
120 0.000897
121 0.000928
122 0.000920
123 0.000922
124 0.000918
125 0.000913
126 0.000904
127 0.000870
128 0.000848
129 0.000866
130 0.000881
131 0.000905
132 0.000893
133 0.000861
134 0.000855
135 0.000881
136 0.000930
137 0.000954
138 0.000991
139 0.001023
140 0.001016
141 0.000964
142 0.000886
143 0.000841
144 0.000826
145 0.000760
146 0.000696
147 0.000625
148 0.000606
149 0.000616
150 0.000620
151 0.000590
152 0.000551
153 0.000576
154 0.000599
155 0.000638
156 0.000675
157 0.000694
158 0.000701
159 0.000692
160 0.000642
161 0.000571
162 0.000555
163 0.000521
164 0.000475
165 0.000427
166 0.000384
167 0.000356
168 0.000355
169 0.000359
170 0.000342
171 0.000352
172 0.000377
173 0.000414
174 0.000429
175 0.000417
176 0.000395
177 0.000386
178 0.000378
179 0.000361
180 0.000328
181 0.000274
182 0.000246
183 0.000227
184 0.000186
185 0.000131
186 0.000111
187 0.000118
188 0.000150
189 0.000171
190 0.000182
191 0.000203
192 0.000269
193 0.000320
194 0.000344
195 0.000350
196 0.000347
197 0.000364
198 0.000395
199 0.000379
200 0.000382
201 0.000397
202 0.000397
203 0.000391
204 0.000348
205 0.000336
206 0.000343
207 0.000364
208 0.000374
209 0.000317
210 0.000306
211 0.000310
212 0.000277
213 0.000235
214 0.000176
215 0.000118
216 0.000115
217 0.000143
218 0.000175
219 0.000198
220 0.000255
221 0.000322
222 0.000382
223 0.000392
224 0.000423
225 0.000449
226 0.000509
227 0.000568
228 0.000600
229 0.000609
230 0.000622
231 0.000641
232 0.000630
233 0.000594
234 0.000605
235 0.000630
236 0.000697
237 0.000736
238 0.000750
239 0.000766
240 0.000804
241 0.000845
242 0.000876
243 0.000896
244 0.000895
245 0.000877
246 0.000864
247 0.000838
248 0.000818
249 0.000821
250 0.000832
251 0.000814
252 0.000788
253 0.000728
254 0.000700
255 0.000707
256 0.000736
257 0.000752
258 0.000747
259 0.000768
260 0.000795
261 0.000795
262 0.000800
263 0.000801
264 0.000846
265 0.000883
266 0.000889
267 0.000867
268 0.000827
269 0.000815
270 0.000818
271 0.000791
272 0.000777
273 0.000753
274 0.000730
275 0.000709
276 0.000694
277 0.000704
278 0.000741
279 0.000779
280 0.000794
281 0.000804
282 0.000792
283 0.000776
284 0.000785
285 0.000790
286 0.000793
287 0.000807
288 0.000826
289 0.000837
290 0.000819
291 0.000804
292 0.000801
293 0.000829
294 0.000856
295 0.000836
296 0.000791
297 0.000752
298 0.000750
299 0.000743
300 0.000705
301 0.000672
302 0.000658
303 0.000655
304 0.000607
305 0.000542
306 0.000489
307 0.000469
308 0.000451
309 0.000438
310 0.000398
311 0.000346
312 0.000361
313 0.000379
314 0.000380
315 0.000391
316 0.000371
317 0.000360
318 0.000339
319 0.000324
320 0.000293
321 0.000309
322 0.000342
323 0.000354
324 0.000371
325 0.000371
326 0.000377
327 0.000392
328 0.000411
329 0.000447
330 0.000486
331 0.000554
332 0.000629
333 0.000655
334 0.000638
335 0.000606
336 0.000587
337 0.000584
338 0.000572
339 0.000559
340 0.000521
341 0.000488
342 0.000480
343 0.000485
344 0.000474
345 0.000481
346 0.000474
347 0.000458
348 0.000421
349 0.000409
350 0.000410
351 0.000426
352 0.000414
353 0.000390
354 0.000364
355 0.000353
356 0.000346
357 0.000362
358 0.000361
359 0.000347
360 0.000354
361 0.000366
362 0.000373
363 0.000386
364 0.000377
365 0.000390
366 0.000405
367 0.000445
368 0.000424
369 0.000395
370 0.000395
371 0.000401
372 0.000406
373 0.000392
374 0.000394
375 0.000407
376 0.000393
377 0.000378
378 0.000355
379 0.000367
380 0.000425
381 0.000479
382 0.000485
383 0.000491
384 0.000512
385 0.000515
386 0.000534
387 0.000556
388 0.000564
389 0.000554
390 0.000570
391 0.000582
392 0.000577
393 0.000595
394 0.000611
395 0.000656
396 0.000692
397 0.000701
398 0.000712
399 0.000723
400 0.000756
401 0.000760
402 0.000777
403 0.000793
404 0.000761
405 0.000741
406 0.000712
407 0.000657
408 0.000610
409 0.000565
410 0.000505
411 0.000445
412 0.000402
413 0.000382
414 0.000383
415 0.000365
416 0.000365
417 0.000328
418 0.000305
419 0.000311
420 0.000323
421 0.000331
422 0.000333
423 0.000338
424 0.000357
425 0.000350
426 0.000323
427 0.000297
428 0.000308
429 0.000341
430 0.000350
431 0.000390
432 0.000419
433 0.000436
434 0.000428
435 0.000426
436 0.000422
437 0.000424
438 0.000453
439 0.000461
440 0.000443
441 0.000418
442 0.000393
443 0.000403
444 0.000394
445 0.000364
446 0.000318
447 0.000267
448 0.000240
449 0.000219
450 0.000188
451 0.000138
452 0.000100
453 0.000070
454 0.000019
455 -0.000048
456 -0.000115
457 -0.000143
458 -0.000150
459 -0.000159
460 -0.000157
461 -0.000149
462 -0.000144
463 -0.000148
464 -0.000146
465 -0.000133
466 -0.000153
467 -0.000154
468 -0.000139
469 -0.000119
470 -0.000093
471 -0.000078
472 -0.000065
473 -0.000077
474 -0.000093
475 -0.000134
476 -0.000134
477 -0.000146
478 -0.000151
479 -0.000171
480 -0.000184
481 -0.000187
482 -0.000191
483 -0.000195
484 -0.000191
485 -0.000186
486 -0.000141
487 -0.000110
488 -0.000090
489 -0.000080
490 -0.000064
491 -0.000033
492 -0.000017
493 -0.000014
494 -0.000008
495 0.000018
496 0.000052
497 0.000060
498 0.000080
499 0.000105
500 0.000114
501 0.000142
502 0.000182
503 0.000202
504 0.000223
505 0.000257
506 0.000278
507 0.000280
508 0.000265
509 0.000256
510 0.000250
511 0.000241
512 0.000227
513 0.000235
514 0.000240
515 0.000245
516 0.000247
517 0.000229
518 0.000182
519 0.000143
520 0.000153
521 0.000177
522 0.000191
523 0.000197
524 0.000205
525 0.000231
526 0.000242
527 0.000251
528 0.000242
529 0.000271
530 0.000303
531 0.000331
532 0.000341
533 0.000354
534 0.000383
535 0.000403
536 0.000400
537 0.000405
538 0.000410
539 0.000407
540 0.000392
541 0.000382
542 0.000368
543 0.000375
544 0.000389
545 0.000395
546 0.000388
547 0.000366
548 0.000329
549 0.000300
550 0.000293
551 0.000299
552 0.000288
553 0.000292
554 0.000269
555 0.000252
556 0.000229
557 0.000234
558 0.000239
559 0.000244
560 0.000234
561 0.000204
562 0.000201
563 0.000202
564 0.000193
565 0.000190
566 0.000153
567 0.000145
568 0.000144
569 0.000146
570 0.000147
571 0.000138
572 0.000113
573 0.000122
574 0.000137
575 0.000147
576 0.000141
577 0.000118
578 0.000090
579 0.000091
580 0.000089
581 0.000102
582 0.000119
583 0.000143
584 0.000140
585 0.000133
586 0.000105
587 0.000105
588 0.000100
589 0.000094
590 0.000070
591 0.000079
592 0.000076
593 0.000094
594 0.000099
595 0.000085
596 0.000095
597 0.000108
598 0.000097
599 0.000099
600 0.000124
601 0.000162
602 0.000179
603 0.000197
604 0.000215
605 0.000212
606 0.000203
607 0.000191
608 0.000182
609 0.000184
610 0.000182
611 0.000191
612 0.000184
613 0.000157
614 0.000148
615 0.000148
616 0.000158
617 0.000177
618 0.000189
619 0.000209
620 0.000227
621 0.000241
622 0.000270
623 0.000304
624 0.000322
625 0.000329
626 0.000336
627 0.000359
628 0.000359
629 0.000351
630 0.000358
631 0.000380
632 0.000398
633 0.000404
634 0.000430
635 0.000434
636 0.000449
637 0.000440
638 0.000434
639 0.000430
640 0.000432
641 0.000416
642 0.000420
643 0.000422
644 0.000431
645 0.000442
646 0.000451
647 0.000443
648 0.000427
649 0.000395
650 0.000370
651 0.000348
652 0.000334
653 0.000326
654 0.000314
655 0.000300
656 0.000294
657 0.000283
658 0.000275
659 0.000275
660 0.000283
661 0.000295
662 0.000304
663 0.000298
664 0.000301
665 0.000309
666 0.000322
667 0.000321
668 0.000325
669 0.000330
670 0.000348
671 0.000351
672 0.000359
673 0.000374
674 0.000385
675 0.000385
676 0.000387
677 0.000379
678 0.000368
679 0.000346
680 0.000331
681 0.000327
682 0.000318
683 0.000306
684 0.000309
685 0.000311
686 0.000305
687 0.000306
688 0.000318
689 0.000348
690 0.000354
691 0.000343
692 0.000312
693 0.000296
694 0.000285
695 0.000271
696 0.000263
697 0.000249
698 0.000235
699 0.000215
700 0.000204
701 0.000175
702 0.000166
703 0.000155
704 0.000141
705 0.000133
706 0.000138
707 0.000141
708 0.000129
709 0.000103
710 0.000091
711 0.000059
712 0.000041
713 0.000029
714 0.000030
715 0.000030
716 0.000010
717 -0.000009
718 -0.000020
719 -0.000023
720 -0.000028
721 -0.000031
722 -0.000036
723 -0.000029
724 -0.000010
725 0.000004
726 0.000012
727 0.000034
728 0.000053
729 0.000046
730 0.000044
731 0.000063
732 0.000079
733 0.000102
734 0.000101
735 0.000109
736 0.000124
737 0.000145
738 0.000158
739 0.000150
740 0.000159
741 0.000175
742 0.000184
743 0.000178
744 0.000168
745 0.000160
746 0.000145
747 0.000139
748 0.000135
749 0.000132
750 0.000114
751 0.000110
752 0.000114
753 0.000124
754 0.000130
755 0.000138
756 0.000138
757 0.000140
758 0.000150
759 0.000160
760 0.000143
761 0.000147
762 0.000151
763 0.000160
764 0.000156
765 0.000152
766 0.000153
767 0.000151
768 0.000133
769 0.000114
770 0.000103
771 0.000091
772 0.000072
773 0.000064
774 0.000058
775 0.000064
776 0.000072
777 0.000074
778 0.000071
779 0.000066
780 0.000070
781 0.000062
782 0.000062
783 0.000073
784 0.000087
785 0.000089
786 0.000079
787 0.000076
788 0.000063
789 0.000054
790 0.000048
791 0.000044
792 0.000040
793 0.000039
794 0.000051
795 0.000061
796 0.000073
797 0.000077
798 0.000070
799 0.000070
800 0.000070
801 0.000077
802 0.000081
803 0.000087
804 0.000097
805 0.000106
806 0.000103
807 0.000081
808 0.000065
809 0.000048
