# i correlation
1 0.003320
2 0.003018
3 0.002798
4 0.002634
5 0.002451
6 0.002290
7 0.002172
8 0.002062
9 0.001975
10 0.001911
11 0.001844
12 0.001775
13 0.001732
14 0.001692
15 0.001634
16 0.001577
17 0.001542
18 0.001530
19 0.001486
20 0.001450
21 0.001470
22 0.001471
23 0.001457
24 0.001446
25 0.001414
26 0.001344
27 0.001309
28 0.001292
29 0.001270
30 0.001235
31 0.001230
32 0.001248
33 0.001250
34 0.001237
35 0.001228
36 0.001211
37 0.001210
38 0.001201
39 0.001216
40 0.001221
41 0.001237
42 0.001240
43 0.001230
44 0.001198
45 0.001230
46 0.001265
47 0.001283
48 0.001284
49 0.001272
50 0.001283
51 0.001297
52 0.001344
53 0.001363
54 0.001387
55 0.001385
56 0.001371
57 0.001339
58 0.001307
59 0.001294
60 0.001260
61 0.001260
62 0.001253
63 0.001233
64 0.001230
65 0.001213
66 0.001227
67 0.001235
68 0.001232
69 0.001258
70 0.001269
71 0.001258
72 0.001244
73 0.001200
74 0.001239
75 0.001287
76 0.001294
77 0.001315
78 0.001328
79 0.001326
80 0.001326
81 0.001308
82 0.001319
83 0.001336
84 0.001367
85 0.001369
86 0.001366
87 0.001373
88 0.001369
89 0.001380
90 0.001389
91 0.001347
92 0.001303
93 0.001271
94 0.001220
95 0.001159
96 0.001093
97 0.001067
98 0.001065
99 0.001054
100 0.001017
101 0.000999
102 0.000986
103 0.000938
104 0.000897
105 0.000880
106 0.000903
107 0.000954
108 0.000985
109 0.000998
110 0.000984
111 0.000999
112 0.001048
113 0.001064
114 0.001075
115 0.001067
116 0.001072
117 0.001057
118 0.001046
119 0.001011
120 0.001017
121 0.001008
122 0.000997
123 0.001022
124 0.001006
125 0.000979
126 0.000988
127 0.000998
128 0.001014
129 0.001044
130 0.001131
131 0.001221
132 0.001283
133 0.001318
134 0.001341
135 0.001335
136 0.001351
137 0.001337
138 0.001324
139 0.001318
140 0.001292
141 0.001249
142 0.001221
143 0.001185
144 0.001149
145 0.001094
146 0.001053
147 0.001012
148 0.001010
149 0.000980
150 0.000910
151 0.000878
152 0.000857
153 0.000862
154 0.000889
155 0.000910
156 0.000932
157 0.000947
158 0.000967
159 0.001005
160 0.000992
161 0.001008
162 0.000984
163 0.001004
164 0.001047
165 0.001077
166 0.001092
167 0.001102
168 0.001137
169 0.001158
170 0.001144
171 0.001136
172 0.001120
173 0.001100
174 0.001091
175 0.001101
176 0.001126
177 0.001125
178 0.001107
179 0.001112
180 0.001125
181 0.001149
182 0.001195
183 0.001220
184 0.001234
185 0.001254
186 0.001263
187 0.001242
188 0.001215
189 0.001197
190 0.001151
191 0.001137
192 0.001122
193 0.001123
194 0.001093
195 0.001077
196 0.001065
197 0.001101
198 0.001126
199 0.001101
200 0.001102
201 0.001104
202 0.001089
203 0.001088
204 0.001066
205 0.001047
206 0.001026
207 0.000995
208 0.000973
209 0.000965
210 0.000954
211 0.000950
212 0.000914
213 0.000886
214 0.000882
215 0.000877
216 0.000885
217 0.000888
218 0.000943
219 0.000989
220 0.001019
221 0.001055
222 0.001081
223 0.001101
224 0.001065
225 0.001045
226 0.001009
227 0.000969
228 0.000947
229 0.000941
230 0.000948
231 0.000949
232 0.000938
233 0.000918
234 0.000859
235 0.000818
236 0.000771
237 0.000728
238 0.000742
239 0.000726
240 0.000693
241 0.000681
242 0.000647
243 0.000679
244 0.000695
245 0.000719
246 0.000754
247 0.000760
248 0.000765
249 0.000789
250 0.000809
251 0.000848
252 0.000876
253 0.000863
254 0.000872
255 0.000891
256 0.000928
257 0.000931
258 0.000902
259 0.000871
260 0.000874
261 0.000849
262 0.000830
263 0.000804
264 0.000800
265 0.000788
266 0.000768
267 0.000760
268 0.000763
269 0.000789
270 0.000846
271 0.000874
272 0.000911
273 0.000947
274 0.000964
275 0.001007
276 0.001040
277 0.001042
278 0.001052
279 0.001063
280 0.001094
281 0.001105
282 0.001086
283 0.001090
284 0.001077
285 0.001074
286 0.001079
287 0.001079
288 0.001081
289 0.001070
290 0.001047
291 0.001030
292 0.001020
293 0.001013
294 0.001002
295 0.001013
296 0.001024
297 0.001079
298 0.001131
299 0.001179
300 0.001164
301 0.001157
302 0.001153
303 0.001141
304 0.001137
305 0.001162
306 0.001165
307 0.001192
308 0.001200
309 0.001204
310 0.001199
311 0.001180
312 0.001162
313 0.001153
314 0.001098
315 0.001087
316 0.001049
317 0.001023
318 0.001031
319 0.001025
320 0.001049
321 0.001060
322 0.001049
323 0.001032
324 0.001008
325 0.000948
326 0.000894
327 0.000874
328 0.000867
329 0.000860
330 0.000845
331 0.000860
332 0.000858
333 0.000863
334 0.000864
335 0.000867
336 0.000885
337 0.000898
338 0.000872
339 0.000869
340 0.000878
341 0.000872
342 0.000853
343 0.000804
344 0.000764
345 0.000747
346 0.000733
347 0.000704
348 0.000625
349 0.000563
350 0.000550
351 0.000577
352 0.000606
353 0.000633
354 0.000688
355 0.000714
356 0.000727
357 0.000737
358 0.000781
359 0.000820
360 0.000849
361 0.000896
362 0.000949
363 0.001015
364 0.001039
365 0.001071
366 0.001087
367 0.001101
368 0.001088
369 0.001108
370 0.001103
371 0.001045
372 0.000996
373 0.000959
374 0.000929
375 0.000892
376 0.000879
377 0.000890
378 0.000860
379 0.000837
380 0.000796
381 0.000747
382 0.000716
383 0.000687
384 0.000677
385 0.000651
386 0.000646
387 0.000665
388 0.000694
389 0.000684
390 0.000696
391 0.000717
392 0.000734
393 0.000721
394 0.000710
395 0.000676
396 0.000626
397 0.000614
398 0.000594
399 0.000566
400 0.000531
401 0.000502
402 0.000492
403 0.000474
404 0.000458
405 0.000456
406 0.000476
407 0.000486
408 0.000500
409 0.000504
410 0.000493
411 0.000513
412 0.000493
413 0.000473
414 0.000464
415 0.000471
416 0.000464
417 0.000459
418 0.000460
419 0.000468
420 0.000459
421 0.000487
422 0.000513
423 0.000493
424 0.000462
425 0.000454
426 0.000438
427 0.000394
428 0.000352
429 0.000361
430 0.000354
431 0.000346
432 0.000358
433 0.000368
434 0.000371
435 0.000368
436 0.000390
437 0.000400
438 0.000406
439 0.000442
440 0.000467
441 0.000499
442 0.000482
443 0.000500
444 0.000551
445 0.000578
446 0.000599
447 0.000624
448 0.000608
449 0.000603
450 0.000597
451 0.000588
452 0.000573
453 0.000600
454 0.000643
455 0.000672
456 0.000682
457 0.000699
458 0.000671
459 0.000635
460 0.000632
461 0.000632
462 0.000602
463 0.000570
464 0.000549
465 0.000512
466 0.000495
467 0.000490
468 0.000496
469 0.000491
470 0.000483
471 0.000467
472 0.000459
473 0.000437
474 0.000445
475 0.000463
476 0.000470
477 0.000457
478 0.000434
479 0.000441
480 0.000430
481 0.000448
482 0.000440
483 0.000428
484 0.000422
485 0.000444
486 0.000463
487 0.000457
488 0.000456
489 0.000465
490 0.000483
491 0.000494
492 0.000528
493 0.000569
494 0.000601
495 0.000629
496 0.000658
497 0.000669
498 0.000659
499 0.000665
500 0.000706
501 0.000728
502 0.000734
503 0.000734
504 0.000729
505 0.000710
506 0.000703
507 0.000699
508 0.000712
509 0.000715
510 0.000691
511 0.000675
512 0.000636
513 0.000605
514 0.000568
515 0.000544
516 0.000528
517 0.000491
518 0.000482
519 0.000462
520 0.000438
521 0.000419
522 0.000415
523 0.000377
524 0.000357
525 0.000326
526 0.000318
527 0.000313
528 0.000307
529 0.000324
530 0.000319
531 0.000319
532 0.000300
533 0.000278
534 0.000265
535 0.000252
536 0.000263
537 0.000286
538 0.000314
539 0.000310
540 0.000307
541 0.000303
542 0.000304
543 0.000331
544 0.000323
545 0.000337
546 0.000330
547 0.000328
548 0.000340
549 0.000330
550 0.000340
551 0.000357
552 0.000354
553 0.000365
554 0.000369
555 0.000360
556 0.000365
557 0.000365
558 0.000366
559 0.000378
560 0.000365
561 0.000366
562 0.000380
563 0.000387
564 0.000363
565 0.000328
566 0.000286
567 0.000264
568 0.000231
569 0.000222
570 0.000224
571 0.000193
572 0.000197
573 0.000197
574 0.000202
575 0.000219
576 0.000247
577 0.000290
578 0.000309
579 0.000324
580 0.000343
581 0.000337
582 0.000319
583 0.000319
584 0.000321
585 0.000340
586 0.000353
587 0.000366
588 0.000387
589 0.000392
590 0.000411
591 0.000424
592 0.000421
593 0.000432
594 0.000428
595 0.000423
596 0.000408
597 0.000399
598 0.000379
599 0.000352
600 0.000328
601 0.000289
602 0.000272
603 0.000261
604 0.000255
605 0.000227
606 0.000224
607 0.000230
608 0.000242
609 0.000247
610 0.000251
611 0.000236
612 0.000242
613 0.000226
614 0.000217
615 0.000233
616 0.000248
617 0.000253
618 0.000252
619 0.000246
620 0.000264
621 0.000274
622 0.000283
623 0.000279
624 0.000270
625 0.000286
626 0.000302
627 0.000323
628 0.000331
629 0.000355
630 0.000365
631 0.000375
632 0.000376
633 0.000374
634 0.000362
635 0.000350
636 0.000349
637 0.000342
638 0.000343
639 0.000357
640 0.000371
641 0.000368
642 0.000362
643 0.000354
644 0.000360
645 0.000358
646 0.000346
647 0.000316
648 0.000304
649 0.000325
650 0.000349
651 0.000356
652 0.000361
653 0.000342
654 0.000318
655 0.000301
656 0.000250
657 0.000223
658 0.000207
659 0.000192
660 0.000175
661 0.000162
662 0.000173
663 0.000173
664 0.000186
665 0.000190
666 0.000203
667 0.000219
668 0.000254
669 0.000273
670 0.000278
671 0.000292
672 0.000301
673 0.000310
674 0.000323
675 0.000329
676 0.000334
677 0.000327
678 0.000332
679 0.000327
680 0.000303
681 0.000271
682 0.000266
683 0.000248
684 0.000227
685 0.000211
686 0.000215
687 0.000223
688 0.000220
689 0.000209
690 0.000203
691 0.000201
692 0.000211
693 0.000203
694 0.000186
695 0.000169
696 0.000153
697 0.000147
698 0.000132
699 0.000117
700 0.000115
701 0.000119
702 0.000114
703 0.000096
704 0.000083
705 0.000082
706 0.000096
707 0.000091
708 0.000051
709 0.000035
710 0.000025
711 0.000021
712 0.000004
713 0.000006
714 -0.000003
715 -0.000009
716 -0.000026
717 -0.000041
718 -0.000059
719 -0.000062
720 -0.000043
721 -0.000023
722 -0.000024
723 -0.000022
724 -0.000006
725 -0.000002
726 -0.000007
727 0.000000
728 0.000010
729 0.000016
730 0.000040
731 0.000048
732 0.000045
733 0.000049
734 0.000073
735 0.000058
736 0.000032
737 0.000010
738 0.000004
739 0.000003
740 -0.000002
741 -0.000020
742 -0.000022
743 -0.000030
744 -0.000031
745 -0.000024
746 -0.000013
747 -0.000020
748 -0.000021
749 -0.000020
750 -0.000044
751 -0.000070
752 -0.000069
753 -0.000073
754 -0.000070
755 -0.000081
756 -0.000072
757 -0.000062
758 -0.000055
759 -0.000050
760 -0.000046
761 -0.000020
762 -0.000004
763 0.000013
764 0.000023
765 0.000042
766 0.000054
767 0.000079
768 0.000097
769 0.000115
770 0.000117
771 0.000111
772 0.000113
773 0.000121
774 0.000121
775 0.000132
776 0.000167
777 0.000175
778 0.000178
779 0.000174
780 0.000180
781 0.000201
782 0.000200
783 0.000185
784 0.000169
785 0.000166
786 0.000163
787 0.000144
788 0.000134
789 0.000129
790 0.000116
791 0.000112
792 0.000104
793 0.000084
794 0.000081
795 0.000088
796 0.000093
797 0.000093
798 0.000099
799 0.000123
800 0.000145
801 0.000150
802 0.000144
803 0.000145
804 0.000139
805 0.000123
806 0.000105
807 0.000093
808 0.000096
809 0.000109
