# i correlation
1 0.002986
2 0.002671
3 0.002390
4 0.002175
5 0.002033
6 0.001919
7 0.001837
8 0.001749
9 0.001646
10 0.001559
11 0.001443
12 0.001307
13 0.001178
14 0.001075
15 0.000972
16 0.000910
17 0.000860
18 0.000849
19 0.000845
20 0.000837
21 0.000846
22 0.000889
23 0.000932
24 0.000948
25 0.000937
26 0.000931
27 0.000933
28 0.000932
29 0.000951
30 0.000977
31 0.000984
32 0.001019
33 0.001073
34 0.001124
35 0.001125
36 0.001103
37 0.001069
38 0.001055
39 0.001044
40 0.001072
41 0.001087
42 0.001104
43 0.001130
44 0.001139
45 0.001163
46 0.001173
47 0.001158
48 0.001155
49 0.001134
50 0.001115
51 0.001050
52 0.001010
53 0.000995
54 0.000941
55 0.000875
56 0.000821
57 0.000784
58 0.000775
59 0.000755
60 0.000736
61 0.000732
62 0.000734
63 0.000722
64 0.000714
65 0.000702
66 0.000682
67 0.000709
68 0.000735
69 0.000763
70 0.000773
71 0.000792
72 0.000822
73 0.000825
74 0.000820
75 0.000827
76 0.000836
77 0.000862
78 0.000850
79 0.000835
80 0.000791
81 0.000762
82 0.000754
83 0.000756
84 0.000743
85 0.000748
86 0.000738
87 0.000733
88 0.000692
89 0.000650
90 0.000604
91 0.000566
92 0.000539
93 0.000533
94 0.000554
95 0.000588
96 0.000629
97 0.000662
98 0.000688
99 0.000726
100 0.000750
101 0.000763
102 0.000770
103 0.000767
104 0.000795
105 0.000812
106 0.000837
107 0.000839
108 0.000840
109 0.000817
110 0.000786
111 0.000750
112 0.000731
113 0.000694
114 0.000628
115 0.000591
116 0.000545
117 0.000544
118 0.000505
119 0.000496
120 0.000522
121 0.000503
122 0.000484
123 0.000465
124 0.000449
125 0.000431
126 0.000366
127 0.000325
128 0.000294
129 0.000315
130 0.000357
131 0.000393
132 0.000399
133 0.000381
134 0.000375
135 0.000373
136 0.000383
137 0.000394
138 0.000404
139 0.000426
140 0.000478
141 0.000509
142 0.000535
143 0.000512
144 0.000526
145 0.000548
146 0.000583
147 0.000631
148 0.000652
149 0.000658
150 0.000645
151 0.000592
152 0.000526
153 0.000446
154 0.000438
155 0.000424
156 0.000425
157 0.000448
158 0.000447
159 0.000410
160 0.000363
161 0.000324
162 0.000276
163 0.000272
164 0.000269
165 0.000287
166 0.000291
167 0.000279
168 0.000293
169 0.000318
170 0.000373
171 0.000388
172 0.000375
173 0.000389
174 0.000401
175 0.000416
176 0.000392
177 0.000372
178 0.000338
179 0.000296
180 0.000286
181 0.000273
182 0.000248
183 0.000232
184 0.000216
185 0.000186
186 0.000142
187 0.000127
188 0.000116
189 0.000128
190 0.000131
191 0.000156
192 0.000216
193 0.000225
194 0.000218
195 0.000207
196 0.000184
197 0.000178
198 0.000189
199 0.000188
200 0.000197
201 0.000184
202 0.000200
203 0.000220
204 0.000244
205 0.000265
206 0.000274
207 0.000250
208 0.000256
209 0.000236
210 0.000192
211 0.000169
212 0.000142
213 0.000109
214 0.000080
215 0.000039
216 0.000040
217 0.000016
218 0.000024
219 0.000073
220 0.000095
221 0.000107
222 0.000080
223 0.000060
224 0.000043
225 0.000041
226 0.000042
227 0.000058
228 0.000065
229 0.000070
230 0.000039
231 0.000023
232 0.000018
233 0.000011
234 0.000013
235 0.000034
236 0.000064
237 0.000090
238 0.000112
239 0.000134
240 0.000142
241 0.000157
242 0.000209
243 0.000254
244 0.000298
245 0.000331
246 0.000375
247 0.000380
248 0.000367
249 0.000367
250 0.000391
251 0.000391
252 0.000413
253 0.000447
254 0.000476
255 0.000437
256 0.000389
257 0.000314
258 0.000232
259 0.000170
260 0.000122
261 0.000118
262 0.000093
263 0.000020
264 -0.000033
265 -0.000087
266 -0.000155
267 -0.000201
268 -0.000255
269 -0.000272
270 -0.000266
271 -0.000274
272 -0.000281
273 -0.000323
274 -0.000351
275 -0.000344
276 -0.000315
277 -0.000260
278 -0.000217
279 -0.000191
280 -0.000143
281 -0.000078
282 -0.000037
283 -0.000004
284 0.000006
285 0.000035
286 0.000056
287 0.000094
288 0.000154
289 0.000209
290 0.000243
291 0.000235
292 0.000229
293 0.000226
294 0.000233
295 0.000257
296 0.000270
297 0.000264
298 0.000260
299 0.000260
300 0.000235
301 0.000205
302 0.000141
303 0.000108
304 0.000092
305 0.000099
306 0.000111
307 0.000089
308 0.000077
309 0.000032
310 -0.000004
311 -0.000048
312 -0.000082
313 -0.000116
314 -0.000132
315 -0.000112
316 -0.000124
317 -0.000112
318 -0.000126
319 -0.000137
320 -0.000153
321 -0.000170
322 -0.000184
323 -0.000179
324 -0.000177
325 -0.000135
326 -0.000094
327 -0.000057
328 -0.000010
329 0.000077
330 0.000118
331 0.000189
332 0.000233
333 0.000277
334 0.000298
335 0.000308
336 0.000303
337 0.000331
338 0.000366
339 0.000421
340 0.000452
341 0.000456
342 0.000437
343 0.000424
344 0.000389
345 0.000349
346 0.000328
347 0.000292
348 0.000298
349 0.000331
350 0.000372
351 0.000395
352 0.000371
353 0.000346
354 0.000320
355 0.000275
356 0.000248
357 0.000226
358 0.000222
359 0.000203
360 0.000182
361 0.000169
362 0.000172
363 0.000197
364 0.000171
365 0.000147
366 0.000126
367 0.000117
368 0.000110
369 0.000114
370 0.000111
371 0.000104
372 0.000090
373 0.000107
374 0.000114
375 0.000114
376 0.000113
377 0.000092
378 0.000065
379 0.000046
380 0.000019
381 0.000018
382 0.000031
383 0.000046
384 0.000069
385 0.000083
386 0.000105
387 0.000083
388 0.000035
389 -0.000017
390 -0.000046
391 -0.000059
392 -0.000031
393 0.000014
394 0.000049
395 0.000072
396 0.000094
397 0.000109
398 0.000106
399 0.000095
400 0.000115
401 0.000122
402 0.000134
403 0.000150
404 0.000161
405 0.000162
406 0.000161
407 0.000148
408 0.000130
409 0.000105
410 0.000081
411 0.000063
412 0.000051
413 0.000023
414 0.000012
415 0.000007
416 0.000046
417 0.000056
418 0.000063
419 0.000059
420 0.000043
421 0.000008
422 -0.000024
423 -0.000037
424 -0.000042
425 -0.000044
426 -0.000031
427 -0.000001
428 0.000019
429 0.000023
430 0.000025
431 0.000035
432 0.000029
433 0.000019
434 0.000027
435 0.000056
436 0.000071
437 0.000105
438 0.000138
439 0.000170
440 0.000194
441 0.000204
442 0.000228
443 0.000216
444 0.000189
445 0.000215
446 0.000250
447 0.000248
448 0.000259
449 0.000252
450 0.000280
451 0.000293
452 0.000300
453 0.000301
454 0.000291
455 0.000291
456 0.000283
457 0.000267
458 0.000265
459 0.000268
460 0.000253
461 0.000229
462 0.000207
463 0.000191
464 0.000187
465 0.000173
466 0.000127
467 0.000083
468 0.000044
469 0.000038
470 0.000040
471 0.000035
472 0.000024
473 0.000047
474 0.000077
475 0.000122
476 0.000135
477 0.000127
478 0.000120
479 0.000109
480 0.000135
481 0.000204
482 0.000248
483 0.000309
484 0.000325
485 0.000343
486 0.000356
487 0.000337
488 0.000330
489 0.000310
490 0.000295
491 0.000285
492 0.000271
493 0.000244
494 0.000204
495 0.000164
496 0.000119
497 0.000092
498 0.000073
499 0.000060
500 0.000062
501 0.000056
502 0.000047
503 0.000065
504 0.000095
505 0.000126
506 0.000159
507 0.000179
508 0.000205
509 0.000214
510 0.000220
511 0.000201
512 0.000180
513 0.000163
514 0.000151
515 0.000157
516 0.000147
517 0.000140
518 0.000121
519 0.000090
520 0.000069
521 0.000059
522 0.000054
523 0.000055
524 0.000055
525 0.000040
526 0.000038
527 0.000039
528 0.000042
529 0.000047
530 0.000043
531 0.000066
532 0.000090
533 0.000128
534 0.000147
535 0.000149
536 0.000132
537 0.000131
538 0.000143
539 0.000149
540 0.000162
541 0.000172
542 0.000182
543 0.000176
544 0.000160
545 0.000147
546 0.000122
547 0.000097
548 0.000084
549 0.000067
550 0.000061
551 0.000061
552 0.000068
553 0.000079
554 0.000099
555 0.000113
556 0.000112
557 0.000117
558 0.000133
559 0.000129
560 0.000111
561 0.000070
562 0.000052
563 0.000045
564 0.000011
565 -0.000017
566 -0.000052
567 -0.000067
568 -0.000058
569 -0.000065
570 -0.000069
571 -0.000071
572 -0.000087
573 -0.000105
574 -0.000131
575 -0.000132
576 -0.000122
577 -0.000077
578 -0.000040
579 -0.000011
580 0.000008
581 0.000029
582 0.000066
583 0.000101
584 0.000143
585 0.000190
586 0.000227
587 0.000279
588 0.000316
589 0.000342
590 0.000368
591 0.000394
592 0.000421
593 0.000450
594 0.000468
595 0.000481
596 0.000475
597 0.000462
598 0.000468
599 0.000453
600 0.000442
601 0.000422
602 0.000391
603 0.000358
604 0.000330
605 0.000317
606 0.000312
607 0.000303
608 0.000278
609 0.000249
610 0.000222
611 0.000198
612 0.000191
613 0.000173
614 0.000144
615 0.000132
616 0.000128
617 0.000132
618 0.000128
619 0.000115
620 0.000128
621 0.000158
622 0.000187
623 0.000212
624 0.000233
625 0.000263
626 0.000274
627 0.000297
628 0.000316
629 0.000327
630 0.000358
631 0.000393
632 0.000439
633 0.000451
634 0.000443
635 0.000444
636 0.000446
637 0.000436
638 0.000434
639 0.000448
640 0.000452
641 0.000425
642 0.000386
643 0.000350
644 0.000321
645 0.000292
646 0.000281
647 0.000287
648 0.000301
649 0.000295
650 0.000286
651 0.000288
652 0.000282
653 0.000278
654 0.000286
655 0.000287
656 0.000299
657 0.000315
658 0.000358
659 0.000375
660 0.000374
661 0.000363
662 0.000375
663 0.000392
664 0.000402
665 0.000405
666 0.000405
667 0.000374
668 0.000350
669 0.000342
670 0.000357
671 0.000382
672 0.000395
673 0.000394
674 0.000381
675 0.000376
676 0.000357
677 0.000358
678 0.000376
679 0.000392
680 0.000419
681 0.000463
682 0.000495
683 0.000522
684 0.000539
685 0.000543
686 0.000520
687 0.000487
688 0.000484
689 0.000498
690 0.000508
691 0.000511
692 0.000532
693 0.000539
694 0.000539
695 0.000541
696 0.000530
697 0.000514
698 0.000493
699 0.000485
700 0.000484
701 0.000483
702 0.000483
703 0.000483
704 0.000490
705 0.000497
706 0.000492
707 0.000491
708 0.000489
709 0.000477
710 0.000453
711 0.000437
712 0.000426
713 0.000417
714 0.000403
715 0.000391
716 0.000366
717 0.000338
718 0.000319
719 0.000303
720 0.000281
721 0.000259
722 0.000231
723 0.000200
724 0.000171
725 0.000174
726 0.000182
727 0.000200
728 0.000205
729 0.000213
730 0.000218
731 0.000237
732 0.000248
733 0.000261
734 0.000276
735 0.000308
736 0.000325
737 0.000342
738 0.000348
739 0.000347
740 0.000344
741 0.000350
742 0.000350
743 0.000339
744 0.000326
745 0.000331
746 0.000323
747 0.000319
748 0.000311
749 0.000296
750 0.000259
751 0.000233
752 0.000211
753 0.000203
754 0.000197
755 0.000202
756 0.000213
757 0.000230
758 0.000246
759 0.000254
760 0.000255
761 0.000257
762 0.000248
763 0.000252
764 0.000261
765 0.000274
766 0.000281
767 0.000294
768 0.000309
769 0.000311
770 0.000301
771 0.000298
772 0.000283
773 0.000273
774 0.000271
775 0.000277
776 0.000271
777 0.000265
778 0.000262
779 0.000265
780 0.000270
781 0.000279
782 0.000290
783 0.000295
784 0.000288
785 0.000283
786 0.000272
787 0.000273
788 0.000279
789 0.000285
790 0.000307
791 0.000329
792 0.000331
793 0.000332
794 0.000322
795 0.000305
796 0.000290
797 0.000271
798 0.000261
799 0.000251
800 0.000251
801 0.000259
802 0.000275
803 0.000280
804 0.000283
805 0.000273
806 0.000255
807 0.000230
808 0.000211
809 0.000202
