# i correlation
1 0.003390
2 0.003091
3 0.002873
4 0.002708
5 0.002560
6 0.002416
7 0.002289
8 0.002162
9 0.002076
10 0.002050
11 0.002020
12 0.001996
13 0.001929
14 0.001884
15 0.001848
16 0.001844
17 0.001827
18 0.001811
19 0.001820
20 0.001815
21 0.001810
22 0.001822
23 0.001820
24 0.001813
25 0.001817
26 0.001847
27 0.001868
28 0.001837
29 0.001811
30 0.001779
31 0.001759
32 0.001745
33 0.001714
34 0.001675
35 0.001659
36 0.001641
37 0.001576
38 0.001530
39 0.001505
40 0.001476
41 0.001451
42 0.001444
43 0.001450
44 0.001423
45 0.001381
46 0.001359
47 0.001360
48 0.001373
49 0.001350
50 0.001287
51 0.001284
52 0.001306
53 0.001296
54 0.001277
55 0.001260
56 0.001245
57 0.001227
58 0.001229
59 0.001230
60 0.001231
61 0.001239
62 0.001241
63 0.001232
64 0.001219
65 0.001179
66 0.001117
67 0.001088
68 0.001079
69 0.001085
70 0.001094
71 0.001089
72 0.001078
73 0.001055
74 0.001036
75 0.001053
76 0.001018
77 0.000980
78 0.000962
79 0.000992
80 0.001019
81 0.001044
82 0.001069
83 0.001075
84 0.001052
85 0.001052
86 0.001078
87 0.001128
88 0.001143
89 0.001156
90 0.001144
91 0.001173
92 0.001198
93 0.001201
94 0.001214
95 0.001247
96 0.001276
97 0.001277
98 0.001241
99 0.001217
100 0.001203
101 0.001174
102 0.001165
103 0.001173
104 0.001141
105 0.001149
106 0.001163
107 0.001177
108 0.001190
109 0.001185
110 0.001195
111 0.001220
112 0.001243
113 0.001277
114 0.001299
115 0.001319
116 0.001314
117 0.001300
118 0.001301
119 0.001295
120 0.001253
121 0.001222
122 0.001217
123 0.001213
124 0.001205
125 0.001201
126 0.001182
127 0.001150
128 0.001104
129 0.001058
130 0.001025
131 0.001003
132 0.001018
133 0.001015
134 0.001015
135 0.001042
136 0.001042
137 0.001009
138 0.000992
139 0.000995
140 0.001026
141 0.001042
142 0.001038
143 0.001063
144 0.001100
145 0.001124
146 0.001143
147 0.001146
148 0.001143
149 0.001131
150 0.001121
151 0.001108
152 0.001074
153 0.001037
154 0.001022
155 0.001007
156 0.000984
157 0.000967
158 0.000959
159 0.000949
160 0.000956
161 0.000989
162 0.001009
163 0.000994
164 0.001003
165 0.001014
166 0.000997
167 0.001018
168 0.001025
169 0.001011
170 0.001024
171 0.001054
172 0.001072
173 0.001057
174 0.001044
175 0.001073
176 0.001095
177 0.001098
178 0.001112
179 0.001125
180 0.001122
181 0.001117
182 0.001082
183 0.001078
184 0.001090
185 0.001075
186 0.001065
187 0.001044
188 0.001026
189 0.001007
190 0.001010
191 0.001000
192 0.000997
193 0.000994
194 0.000982
195 0.000941
196 0.000900
197 0.000873
198 0.000862
199 0.000847
200 0.000847
201 0.000867
202 0.000893
203 0.000912
204 0.000926
205 0.000978
206 0.001006
207 0.001013
208 0.001021
209 0.000997
210 0.000988
211 0.000981
212 0.000989
213 0.000958
214 0.000919
215 0.000911
216 0.000919
217 0.000942
218 0.000965
219 0.001007
220 0.001031
221 0.001030
222 0.001042
223 0.001034
224 0.001027
225 0.000979
226 0.000939
227 0.000903
228 0.000879
229 0.000873
230 0.000834
231 0.000798
232 0.000783
233 0.000793
234 0.000778
235 0.000752
236 0.000753
237 0.000770
238 0.000797
239 0.000816
240 0.000839
241 0.000846
242 0.000842
243 0.000823
244 0.000798
245 0.000782
246 0.000756
247 0.000725
248 0.000712
249 0.000689
250 0.000686
251 0.000689
252 0.000685
253 0.000704
254 0.000715
255 0.000724
256 0.000730
257 0.000748
258 0.000779
259 0.000816
260 0.000817
261 0.000807
262 0.000785
263 0.000788
264 0.000796
265 0.000804
266 0.000766
267 0.000755
268 0.000740
269 0.000726
270 0.000701
271 0.000685
272 0.000653
273 0.000645
274 0.000618
275 0.000634
276 0.000645
277 0.000633
278 0.000605
279 0.000590
280 0.000611
281 0.000625
282 0.000661
283 0.000676
284 0.000691
285 0.000709
286 0.000714
287 0.000727
288 0.000736
289 0.000761
290 0.000761
291 0.000745
292 0.000717
293 0.000668
294 0.000651
295 0.000610
296 0.000557
297 0.000533
298 0.000500
299 0.000485
300 0.000490
301 0.000532
302 0.000561
303 0.000568
304 0.000565
305 0.000556
306 0.000591
307 0.000610
308 0.000620
309 0.000595
310 0.000574
311 0.000598
312 0.000610
313 0.000605
314 0.000578
315 0.000561
316 0.000557
317 0.000559
318 0.000559
319 0.000541
320 0.000528
321 0.000516
322 0.000520
323 0.000518
324 0.000521
325 0.000519
326 0.000507
327 0.000514
328 0.000510
329 0.000510
330 0.000515
331 0.000521
332 0.000536
333 0.000569
334 0.000612
335 0.000627
336 0.000625
337 0.000646
338 0.000658
339 0.000618
340 0.000609
341 0.000577
342 0.000555
343 0.000531
344 0.000524
345 0.000524
346 0.000546
347 0.000560
348 0.000587
349 0.000590
350 0.000589
351 0.000594
352 0.000624
353 0.000641
354 0.000656
355 0.000656
356 0.000694
357 0.000704
358 0.000727
359 0.000767
360 0.000799
361 0.000795
362 0.000803
363 0.000813
364 0.000857
365 0.000886
366 0.000894
367 0.000897
368 0.000889
369 0.000909
370 0.000931
371 0.000940
372 0.000948
373 0.000950
374 0.000933
375 0.000884
376 0.000865
377 0.000851
378 0.000847
379 0.000849
380 0.000864
381 0.000899
382 0.000918
383 0.000946
384 0.000955
385 0.000960
386 0.000966
387 0.000952
388 0.000947
389 0.000941
390 0.000912
391 0.000898
392 0.000901
393 0.000885
394 0.000863
395 0.000859
396 0.000860
397 0.000873
398 0.000880
399 0.000853
400 0.000829
401 0.000808
402 0.000792
403 0.000777
404 0.000792
405 0.000809
406 0.000816
407 0.000835
408 0.000858
409 0.000879
410 0.000892
411 0.000908
412 0.000897
413 0.000895
414 0.000882
415 0.000846
416 0.000816
417 0.000778
418 0.000742
419 0.000713
420 0.000704
421 0.000703
422 0.000681
423 0.000670
424 0.000668
425 0.000680
426 0.000691
427 0.000689
428 0.000687
429 0.000680
430 0.000679
431 0.000666
432 0.000643
433 0.000635
434 0.000639
435 0.000634
436 0.000583
437 0.000554
438 0.000526
439 0.000485
440 0.000477
441 0.000476
442 0.000455
443 0.000438
444 0.000432
445 0.000437
446 0.000450
447 0.000464
448 0.000459
449 0.000464
450 0.000458
451 0.000459
452 0.000476
453 0.000485
454 0.000455
455 0.000427
456 0.000423
457 0.000427
458 0.000411
459 0.000414
460 0.000412
461 0.000428
462 0.000454
463 0.000459
464 0.000448
465 0.000436
466 0.000421
467 0.000420
468 0.000414
469 0.000428
470 0.000441
471 0.000441
472 0.000451
473 0.000471
474 0.000488
475 0.000515
476 0.000552
477 0.000589
478 0.000615
479 0.000620
480 0.000616
481 0.000625
482 0.000630
483 0.000645
484 0.000664
485 0.000665
486 0.000672
487 0.000658
488 0.000643
489 0.000624
490 0.000567
491 0.000532
492 0.000535
493 0.000537
494 0.000544
495 0.000549
496 0.000565
497 0.000579
498 0.000582
499 0.000577
500 0.000555
501 0.000519
502 0.000497
503 0.000479
504 0.000485
505 0.000501
506 0.000499
507 0.000487
508 0.000486
509 0.000509
510 0.000513
511 0.000507
512 0.000501
513 0.000527
514 0.000555
515 0.000574
516 0.000595
517 0.000605
518 0.000615
519 0.000622
520 0.000632
521 0.000651
522 0.000640
523 0.000634
524 0.000637
525 0.000627
526 0.000601
527 0.000594
528 0.000606
529 0.000614
530 0.000617
531 0.000598
532 0.000597
533 0.000571
534 0.000536
535 0.000484
536 0.000436
537 0.000402
538 0.000377
539 0.000362
540 0.000372
541 0.000377
542 0.000371
543 0.000372
544 0.000389
545 0.000417
546 0.000468
547 0.000504
548 0.000535
549 0.000533
550 0.000529
551 0.000523
552 0.000534
553 0.000553
554 0.000544
555 0.000507
556 0.000511
557 0.000531
558 0.000558
559 0.000566
560 0.000567
561 0.000545
562 0.000520
563 0.000490
564 0.000474
565 0.000470
566 0.000482
567 0.000485
568 0.000484
569 0.000483
570 0.000483
571 0.000496
572 0.000526
573 0.000566
574 0.000580
575 0.000597
576 0.000618
577 0.000633
578 0.000642
579 0.000652
580 0.000643
581 0.000630
582 0.000609
583 0.000591
584 0.000580
585 0.000576
586 0.000589
587 0.000585
588 0.000609
589 0.000635
590 0.000647
591 0.000675
592 0.000704
593 0.000723
594 0.000727
595 0.000723
596 0.000726
597 0.000716
598 0.000685
599 0.000666
600 0.000669
601 0.000678
602 0.000713
603 0.000732
604 0.000741
605 0.000772
606 0.000780
607 0.000787
608 0.000773
609 0.000775
610 0.000775
611 0.000777
612 0.000779
613 0.000792
614 0.000793
615 0.000793
616 0.000793
617 0.000791
618 0.000774
619 0.000769
620 0.000759
621 0.000756
622 0.000732
623 0.000708
624 0.000674
625 0.000655
626 0.000626
627 0.000633
628 0.000653
629 0.000671
630 0.000673
631 0.000686
632 0.000701
633 0.000717
634 0.000733
635 0.000741
636 0.000736
637 0.000731
638 0.000739
639 0.000742
640 0.000761
641 0.000759
642 0.000751
643 0.000740
644 0.000730
645 0.000723
646 0.000708
647 0.000690
648 0.000699
649 0.000711
650 0.000703
651 0.000664
652 0.000625
653 0.000607
654 0.000617
655 0.000624
656 0.000636
657 0.000622
658 0.000598
659 0.000593
660 0.000594
661 0.000592
662 0.000573
663 0.000557
664 0.000559
665 0.000559
666 0.000559
667 0.000560
668 0.000557
669 0.000550
670 0.000543
671 0.000551
672 0.000561
673 0.000571
674 0.000570
675 0.000584
676 0.000588
677 0.000577
678 0.000559
679 0.000518
680 0.000484
681 0.000454
682 0.000443
683 0.000438
684 0.000419
685 0.000395
686 0.000388
687 0.000388
688 0.000394
689 0.000405
690 0.000410
691 0.000411
692 0.000414
693 0.000425
694 0.000457
695 0.000474
696 0.000482
697 0.000486
698 0.000497
699 0.000527
700 0.000557
701 0.000575
702 0.000597
703 0.000602
704 0.000609
705 0.000614
706 0.000595
707 0.000570
708 0.000559
709 0.000547
710 0.000530
711 0.000500
712 0.000467
713 0.000436
714 0.000423
715 0.000412
716 0.000400
717 0.000397
718 0.000407
719 0.000415
720 0.000430
721 0.000436
722 0.000452
723 0.000465
724 0.000474
725 0.000485
726 0.000494
727 0.000505
728 0.000515
729 0.000537
730 0.000565
731 0.000594
732 0.000612
733 0.000608
734 0.000607
735 0.000618
736 0.000636
737 0.000664
738 0.000684
739 0.000683
740 0.000668
741 0.000661
742 0.000657
743 0.000655
744 0.000645
745 0.000633
746 0.000625
747 0.000610
748 0.000601
749 0.000601
750 0.000594
751 0.000602
752 0.000609
753 0.000623
754 0.000632
755 0.000627
756 0.000637
757 0.000649
758 0.000667
759 0.000663
760 0.000641
761 0.000631
762 0.000620
763 0.000630
764 0.000639
765 0.000646
766 0.000662
767 0.000669
768 0.000682
769 0.000697
770 0.000714
771 0.000718
772 0.000716
773 0.000695
774 0.000682
775 0.000668
776 0.000650
777 0.000618
778 0.000607
779 0.000591
780 0.000603
781 0.000616
782 0.000627
783 0.000630
784 0.000630
785 0.000639
786 0.000648
787 0.000644
788 0.000635
789 0.000626
790 0.000633
791 0.000632
792 0.000636
793 0.000637
794 0.000636
795 0.000643
796 0.000637
797 0.000639
798 0.000632
799 0.000626
800 0.000615
801 0.000603
802 0.000579
803 0.000548
804 0.000518
805 0.000509
806 0.000505
807 0.000501
808 0.000489
809 0.000485
