# i correlation
1 0.004751
2 0.004473
3 0.004210
4 0.003990
5 0.003801
6 0.003627
7 0.003473
8 0.003329
9 0.003214
10 0.003108
11 0.003024
12 0.002955
13 0.002919
14 0.002915
15 0.002884
16 0.002888
17 0.002827
18 0.002758
19 0.002716
20 0.002669
21 0.002630
22 0.002587
23 0.002562
24 0.002515
25 0.002474
26 0.002416
27 0.002347
28 0.002279
29 0.002245
30 0.002277
31 0.002256
32 0.002234
33 0.002181
34 0.002134
35 0.002139
36 0.002117
37 0.002129
38 0.002108
39 0.002059
40 0.001983
41 0.001968
42 0.001914
43 0.001893
44 0.001840
45 0.001787
46 0.001794
47 0.001765
48 0.001733
49 0.001684
50 0.001671
51 0.001662
52 0.001658
53 0.001660
54 0.001675
55 0.001705
56 0.001724
57 0.001737
58 0.001767
59 0.001787
60 0.001830
61 0.001864
62 0.001879
63 0.001892
64 0.001919
65 0.001906
66 0.001888
67 0.001885
68 0.001921
69 0.001941
70 0.001922
71 0.001916
72 0.001922
73 0.001921
74 0.001936
75 0.001941
76 0.001941
77 0.001934
78 0.001958
79 0.001960
80 0.001971
81 0.001960
82 0.001943
83 0.001915
84 0.001927
85 0.001937
86 0.001930
87 0.001908
88 0.001888
89 0.001895
90 0.001902
91 0.001917
92 0.001908
93 0.001893
94 0.001875
95 0.001834
96 0.001794
97 0.001777
98 0.001746
99 0.001720
100 0.001689
101 0.001659
102 0.001598
103 0.001510
104 0.001428
105 0.001359
106 0.001284
107 0.001263
108 0.001215
109 0.001190
110 0.001169
111 0.001132
112 0.001091
113 0.001027
114 0.001001
115 0.001025
116 0.001083
117 0.001121
118 0.001155
119 0.001161
120 0.001172
121 0.001216
122 0.001239
123 0.001298
124 0.001331
125 0.001357
126 0.001390
127 0.001416
128 0.001464
129 0.001489
130 0.001512
131 0.001521
132 0.001531
133 0.001513
134 0.001478
135 0.001470
136 0.001443
137 0.001435
138 0.001435
139 0.001443
140 0.001493
141 0.001538
142 0.001593
143 0.001585
144 0.001582
145 0.001566
146 0.001582
147 0.001593
148 0.001602
149 0.001615
150 0.001599
151 0.001581
152 0.001568
153 0.001610
154 0.001615
155 0.001627
156 0.001638
157 0.001664
158 0.001716
159 0.001758
160 0.001805
161 0.001832
162 0.001882
163 0.001889
164 0.001908
165 0.001936
166 0.001942
167 0.001948
168 0.001951
169 0.001918
170 0.001878
171 0.001833
172 0.001816
173 0.001787
174 0.001735
175 0.001670
176 0.001652
177 0.001654
178 0.001639
179 0.001638
180 0.001606
181 0.001614
182 0.001611
183 0.001615
184 0.001626
185 0.001636
186 0.001598
187 0.001563
188 0.001531
189 0.001490
190 0.001438
191 0.001407
192 0.001388
193 0.001360
194 0.001352
195 0.001342
196 0.001343
197 0.001347
198 0.001335
199 0.001341
200 0.001334
201 0.001337
202 0.001329
203 0.001328
204 0.001317
205 0.001282
206 0.001270
207 0.001249
208 0.001248
209 0.001254
210 0.001241
211 0.001238
212 0.001217
213 0.001203
214 0.001199
215 0.001199
216 0.001201
217 0.001234
218 0.001271
219 0.001276
220 0.001284
221 0.001310
222 0.001352
223 0.001367
224 0.001369
225 0.001361
226 0.001314
227 0.001284
228 0.001234
229 0.001192
230 0.001173
231 0.001167
232 0.001167
233 0.001165
234 0.001170
235 0.001161
236 0.001119
237 0.001092
238 0.001066
239 0.001047
240 0.001043
241 0.001035
242 0.001000
243 0.000966
244 0.000961
245 0.000927
246 0.000919
247 0.000928
248 0.000932
249 0.000936
250 0.000943
251 0.000931
252 0.000925
253 0.000933
254 0.000936
255 0.000973
256 0.001026
257 0.001100
258 0.001148
259 0.001182
260 0.001229
261 0.001241
262 0.001245
263 0.001226
264 0.001225
265 0.001208
266 0.001161
267 0.001153
268 0.001121
269 0.001116
270 0.001136
271 0.001142
272 0.001125
273 0.001086
274 0.001063
275 0.001051
276 0.001046
277 0.001048
278 0.001082
279 0.001090
280 0.001101
281 0.001127
282 0.001148
283 0.001161
284 0.001147
285 0.001120
286 0.001102
287 0.001075
288 0.001064
289 0.001023
290 0.001005
291 0.001030
292 0.001053
293 0.001084
294 0.001118
295 0.001143
296 0.001147
297 0.001170
298 0.001154
299 0.001144
300 0.001140
301 0.001132
302 0.001132
303 0.001129
304 0.001104
305 0.001081
306 0.001053
307 0.001028
308 0.001056
309 0.001065
310 0.001070
311 0.001072
312 0.001058
313 0.001056
314 0.001036
315 0.001014
316 0.000993
317 0.000972
318 0.000967
319 0.000980
320 0.000972
321 0.000941
322 0.000929
323 0.000902
324 0.000905
325 0.000936
326 0.000952
327 0.000935
328 0.000881
329 0.000859
330 0.000821
331 0.000785
332 0.000789
333 0.000784
334 0.000791
335 0.000806
336 0.000795
337 0.000766
338 0.000789
339 0.000819
340 0.000858
341 0.000916
342 0.000939
343 0.000971
344 0.000984
345 0.001016
346 0.001048
347 0.001056
348 0.001066
349 0.001118
350 0.001138
351 0.001148
352 0.001145
353 0.001129
354 0.001112
355 0.001102
356 0.001123
357 0.001130
358 0.001115
359 0.001116
360 0.001113
361 0.001091
362 0.001117
363 0.001129
364 0.001145
365 0.001194
366 0.001214
367 0.001226
368 0.001236
369 0.001250
370 0.001245
371 0.001237
372 0.001244
373 0.001242
374 0.001240
375 0.001227
376 0.001210
377 0.001175
378 0.001149
379 0.001148
380 0.001151
381 0.001158
382 0.001151
383 0.001147
384 0.001132
385 0.001111
386 0.001086
387 0.001065
388 0.001061
389 0.001053
390 0.001036
391 0.001016
392 0.001008
393 0.001008
394 0.000974
395 0.000967
396 0.000935
397 0.000919
398 0.000908
399 0.000930
400 0.000956
401 0.000959
402 0.000969
403 0.000999
404 0.001032
405 0.001042
406 0.001056
407 0.001059
408 0.001045
409 0.001035
410 0.001015
411 0.001021
412 0.001025
413 0.001035
414 0.001029
415 0.001010
416 0.000983
417 0.000971
418 0.000971
419 0.000973
420 0.001003
421 0.001016
422 0.001023
423 0.001033
424 0.001052
425 0.001067
426 0.001065
427 0.001042
428 0.001012
429 0.001010
430 0.001018
431 0.001009
432 0.000985
433 0.000949
434 0.000957
435 0.000963
436 0.000975
437 0.000981
438 0.001006
439 0.001028
440 0.001066
441 0.001107
442 0.001155
443 0.001217
444 0.001258
445 0.001267
446 0.001279
447 0.001279
448 0.001281
449 0.001281
450 0.001280
451 0.001261
452 0.001237
453 0.001210
454 0.001177
455 0.001150
456 0.001158
457 0.001158
458 0.001153
459 0.001144
460 0.001127
461 0.001129
462 0.001107
463 0.001070
464 0.001053
465 0.001047
466 0.001066
467 0.001085
468 0.001080
469 0.001090
470 0.001083
471 0.001070
472 0.001065
473 0.001073
474 0.001080
475 0.001099
476 0.001101
477 0.001096
478 0.001078
479 0.001076
480 0.001069
481 0.001087
482 0.001101
483 0.001065
484 0.001014
485 0.000980
486 0.000944
487 0.000891
488 0.000839
489 0.000805
490 0.000794
491 0.000788
492 0.000798
493 0.000831
494 0.000879
495 0.000901
496 0.000906
497 0.000913
498 0.000902
499 0.000905
500 0.000891
501 0.000851
502 0.000829
503 0.000808
504 0.000803
505 0.000796
506 0.000764
507 0.000735
508 0.000715
509 0.000712
510 0.000697
511 0.000691
512 0.000681
513 0.000686
514 0.000686
515 0.000695
516 0.000709
517 0.000723
518 0.000735
519 0.000719
520 0.000718
521 0.000711
522 0.000709
523 0.000685
524 0.000672
525 0.000669
526 0.000642
527 0.000637
528 0.000641
529 0.000648
530 0.000657
531 0.000649
532 0.000654
533 0.000642
534 0.000633
535 0.000639
536 0.000623
537 0.000617
538 0.000625
539 0.000620
540 0.000630
541 0.000669
542 0.000679
543 0.000662
544 0.000635
545 0.000595
546 0.000560
547 0.000538
548 0.000514
549 0.000476
550 0.000474
551 0.000456
552 0.000421
553 0.000392
554 0.000360
555 0.000342
556 0.000309
557 0.000306
558 0.000291
559 0.000277
560 0.000261
561 0.000259
562 0.000234
563 0.000227
564 0.000221
565 0.000217
566 0.000237
567 0.000257
568 0.000266
569 0.000267
570 0.000270
571 0.000277
572 0.000290
573 0.000327
574 0.000341
575 0.000362
576 0.000383
577 0.000407
578 0.000406
579 0.000395
580 0.000387
581 0.000359
582 0.000336
583 0.000307
584 0.000291
585 0.000271
586 0.000242
587 0.000225
588 0.000205
589 0.000221
590 0.000225
591 0.000237
592 0.000245
593 0.000252
594 0.000252
595 0.000214
596 0.000204
597 0.000189
598 0.000182
599 0.000161
600 0.000133
601 0.000122
602 0.000147
603 0.000171
604 0.000181
605 0.000198
606 0.000219
607 0.000243
608 0.000270
609 0.000293
610 0.000314
611 0.000333
612 0.000329
613 0.000326
614 0.000316
615 0.000314
616 0.000316
617 0.000314
618 0.000310
619 0.000322
620 0.000325
621 0.000330
622 0.000339
623 0.000365
624 0.000386
625 0.000388
626 0.000393
627 0.000404
628 0.000407
629 0.000400
630 0.000385
631 0.000372
632 0.000348
633 0.000337
634 0.000333
635 0.000360
636 0.000368
637 0.000372
638 0.000374
639 0.000379
640 0.000389
641 0.000399
642 0.000398
643 0.000407
644 0.000410
645 0.000393
646 0.000378
647 0.000361
648 0.000365
649 0.000359
650 0.000348
651 0.000341
652 0.000331
653 0.000325
654 0.000314
655 0.000289
656 0.000252
657 0.000231
658 0.000243
659 0.000249
660 0.000260
661 0.000253
662 0.000262
663 0.000256
664 0.000251
665 0.000255
666 0.000267
667 0.000289
668 0.000294
669 0.000277
670 0.000273
671 0.000270
672 0.000235
673 0.000227
674 0.000230
675 0.000213
676 0.000190
677 0.000152
678 0.000133
679 0.000116
680 0.000087
681 0.000083
682 0.000077
683 0.000077
684 0.000078
685 0.000065
686 0.000028
687 0.000003
688 -0.000033
689 -0.000069
690 -0.000087
691 -0.000105
692 -0.000115
693 -0.000135
694 -0.000140
695 -0.000138
696 -0.000150
697 -0.000156
698 -0.000162
699 -0.000142
700 -0.000126
701 -0.000116
702 -0.000127
703 -0.000123
704 -0.000110
705 -0.000091
706 -0.000081
707 -0.000092
708 -0.000092
709 -0.000095
710 -0.000103
711 -0.000125
712 -0.000139
713 -0.000158
714 -0.000180
715 -0.000197
716 -0.000221
717 -0.000222
718 -0.000229
719 -0.000233
720 -0.000237
721 -0.000258
722 -0.000272
723 -0.000290
724 -0.000314
725 -0.000327
726 -0.000339
727 -0.000350
728 -0.000373
729 -0.000381
730 -0.000402
731 -0.000400
732 -0.000412
733 -0.000416
734 -0.000396
735 -0.000381
736 -0.000367
737 -0.000356
738 -0.000342
739 -0.000324
740 -0.000309
741 -0.000314
742 -0.000308
743 -0.000308
744 -0.000312
745 -0.000319
746 -0.000328
747 -0.000342
748 -0.000367
749 -0.000374
750 -0.000370
751 -0.000353
752 -0.000329
753 -0.000307
754 -0.000289
755 -0.000271
756 -0.000259
757 -0.000255
758 -0.000254
759 -0.000242
760 -0.000225
761 -0.000204
762 -0.000198
763 -0.000195
764 -0.000180
765 -0.000161
766 -0.000145
767 -0.000150
768 -0.000146
769 -0.000136
770 -0.000117
771 -0.000117
772 -0.000117
773 -0.000119
774 -0.000120
775 -0.000111
776 -0.000100
777 -0.000074
778 -0.000059
779 -0.000041
780 -0.000030
781 -0.000004
782 0.000015
783 0.000026
784 0.000041
785 0.000063
786 0.000075
787 0.000088
788 0.000103
789 0.000113
790 0.000135
791 0.000154
792 0.000177
793 0.000185
794 0.000200
795 0.000213
796 0.000224
797 0.000237
798 0.000240
799 0.000239
800 0.000251
801 0.000251
802 0.000260
803 0.000257
804 0.000250
805 0.000235
806 0.000220
807 0.000214
808 0.000211
809 0.000208
