# i correlation
1 0.003847
2 0.003487
3 0.003177
4 0.002913
5 0.002683
6 0.002512
7 0.002364
8 0.002250
9 0.002169
10 0.002089
11 0.002043
12 0.001998
13 0.001948
14 0.001916
15 0.001857
16 0.001854
17 0.001869
18 0.001908
19 0.001937
20 0.001954
21 0.001976
22 0.002009
23 0.002054
24 0.002083
25 0.002072
26 0.002052
27 0.002047
28 0.002017
29 0.001987
30 0.001962
31 0.001916
32 0.001869
33 0.001840
34 0.001832
35 0.001826
36 0.001842
37 0.001846
38 0.001880
39 0.001882
40 0.001890
41 0.001902
42 0.001903
43 0.001881
44 0.001842
45 0.001811
46 0.001789
47 0.001801
48 0.001827
49 0.001845
50 0.001844
51 0.001822
52 0.001801
53 0.001725
54 0.001637
55 0.001598
56 0.001547
57 0.001501
58 0.001458
59 0.001447
60 0.001445
61 0.001472
62 0.001480
63 0.001478
64 0.001469
65 0.001460
66 0.001450
67 0.001445
68 0.001473
69 0.001524
70 0.001565
71 0.001569
72 0.001597
73 0.001619
74 0.001633
75 0.001636
76 0.001649
77 0.001637
78 0.001607
79 0.001596
80 0.001587
81 0.001589
82 0.001592
83 0.001550
84 0.001518
85 0.001488
86 0.001449
87 0.001409
88 0.001424
89 0.001449
90 0.001455
91 0.001479
92 0.001491
93 0.001527
94 0.001565
95 0.001582
96 0.001564
97 0.001577
98 0.001566
99 0.001532
100 0.001479
101 0.001451
102 0.001445
103 0.001410
104 0.001397
105 0.001373
106 0.001329
107 0.001311
108 0.001300
109 0.001253
110 0.001214
111 0.001207
112 0.001174
113 0.001181
114 0.001198
115 0.001239
116 0.001308
117 0.001353
118 0.001361
119 0.001350
120 0.001370
121 0.001391
122 0.001408
123 0.001401
124 0.001407
125 0.001445
126 0.001429
127 0.001406
128 0.001406
129 0.001404
130 0.001363
131 0.001363
132 0.001353
133 0.001365
134 0.001333
135 0.001292
136 0.001253
137 0.001222
138 0.001206
139 0.001196
140 0.001182
141 0.001167
142 0.001170
143 0.001179
144 0.001202
145 0.001241
146 0.001273
147 0.001297
148 0.001262
149 0.001218
150 0.001181
151 0.001160
152 0.001140
153 0.001109
154 0.001069
155 0.001055
156 0.001075
157 0.001070
158 0.001068
159 0.001027
160 0.000981
161 0.000973
162 0.000966
163 0.000981
164 0.000998
165 0.001035
166 0.001071
167 0.001110
168 0.001102
169 0.001090
170 0.001083
171 0.001093
172 0.001060
173 0.001041
174 0.001055
175 0.001077
176 0.001123
177 0.001160
178 0.001168
179 0.001172
180 0.001193
181 0.001198
182 0.001176
183 0.001173
184 0.001170
185 0.001162
186 0.001152
187 0.001123
188 0.001087
189 0.001044
190 0.001036
191 0.001015
192 0.001005
193 0.000987
194 0.000978
195 0.000991
196 0.000970
197 0.000935
198 0.000903
199 0.000899
200 0.000872
201 0.000852
202 0.000834
203 0.000826
204 0.000837
205 0.000887
206 0.000910
207 0.000905
208 0.000908
209 0.000888
210 0.000894
211 0.000886
212 0.000859
213 0.000840
214 0.000820
215 0.000774
216 0.000753
217 0.000754
218 0.000772
219 0.000778
220 0.000774
221 0.000751
222 0.000711
223 0.000661
224 0.000636
225 0.000618
226 0.000604
227 0.000565
228 0.000521
229 0.000485
230 0.000477
231 0.000482
232 0.000489
233 0.000472
234 0.000451
235 0.000456
236 0.000453
237 0.000441
238 0.000447
239 0.000438
240 0.000432
241 0.000434
242 0.000430
243 0.000439
244 0.000463
245 0.000450
246 0.000432
247 0.000442
248 0.000456
249 0.000465
250 0.000483
251 0.000471
252 0.000456
253 0.000449
254 0.000444
255 0.000471
256 0.000513
257 0.000534
258 0.000552
259 0.000548
260 0.000575
261 0.000589
262 0.000605
263 0.000589
264 0.000572
265 0.000547
266 0.000531
267 0.000525
268 0.000529
269 0.000532
270 0.000518
271 0.000481
272 0.000465
273 0.000454
274 0.000474
275 0.000504
276 0.000543
277 0.000584
278 0.000643
279 0.000695
280 0.000693
281 0.000698
282 0.000688
283 0.000660
284 0.000620
285 0.000571
286 0.000530
287 0.000531
288 0.000509
289 0.000486
290 0.000470
291 0.000461
292 0.000465
293 0.000494
294 0.000522
295 0.000550
296 0.000576
297 0.000592
298 0.000588
299 0.000599
300 0.000621
301 0.000625
302 0.000653
303 0.000667
304 0.000671
305 0.000644
306 0.000614
307 0.000595
308 0.000589
309 0.000572
310 0.000556
311 0.000541
312 0.000546
313 0.000589
314 0.000600
315 0.000595
316 0.000593
317 0.000581
318 0.000563
319 0.000554
320 0.000552
321 0.000528
322 0.000476
323 0.000393
324 0.000330
325 0.000274
326 0.000233
327 0.000228
328 0.000239
329 0.000276
330 0.000301
331 0.000331
332 0.000368
333 0.000394
334 0.000423
335 0.000406
336 0.000398
337 0.000406
338 0.000446
339 0.000478
340 0.000505
341 0.000536
342 0.000574
343 0.000603
344 0.000620
345 0.000616
346 0.000629
347 0.000622
348 0.000602
349 0.000586
350 0.000552
351 0.000558
352 0.000591
353 0.000574
354 0.000545
355 0.000536
356 0.000494
357 0.000455
358 0.000430
359 0.000411
360 0.000403
361 0.000403
362 0.000369
363 0.000362
364 0.000347
365 0.000333
366 0.000301
367 0.000280
368 0.000281
369 0.000329
370 0.000340
371 0.000343
372 0.000369
373 0.000383
374 0.000370
375 0.000393
376 0.000447
377 0.000497
378 0.000523
379 0.000531
380 0.000511
381 0.000516
382 0.000539
383 0.000526
384 0.000497
385 0.000460
386 0.000465
387 0.000479
388 0.000498
389 0.000520
390 0.000529
391 0.000533
392 0.000533
393 0.000530
394 0.000519
395 0.000518
396 0.000513
397 0.000502
398 0.000492
399 0.000472
400 0.000444
401 0.000427
402 0.000434
403 0.000438
404 0.000442
405 0.000426
406 0.000402
407 0.000395
408 0.000404
409 0.000405
410 0.000401
411 0.000410
412 0.000410
413 0.000393
414 0.000367
415 0.000368
416 0.000405
417 0.000417
418 0.000437
419 0.000460
420 0.000490
421 0.000504
422 0.000510
423 0.000489
424 0.000503
425 0.000508
426 0.000529
427 0.000539
428 0.000569
429 0.000574
430 0.000571
431 0.000571
432 0.000542
433 0.000495
434 0.000445
435 0.000434
436 0.000423
437 0.000416
438 0.000433
439 0.000448
440 0.000460
441 0.000462
442 0.000486
443 0.000496
444 0.000514
445 0.000543
446 0.000564
447 0.000552
448 0.000531
449 0.000522
450 0.000506
451 0.000498
452 0.000485
453 0.000476
454 0.000483
455 0.000480
456 0.000481
457 0.000488
458 0.000510
459 0.000535
460 0.000570
461 0.000586
462 0.000620
463 0.000657
464 0.000677
465 0.000693
466 0.000717
467 0.000755
468 0.000793
469 0.000835
470 0.000832
471 0.000843
472 0.000844
473 0.000847
474 0.000849
475 0.000809
476 0.000766
477 0.000734
478 0.000699
479 0.000666
480 0.000678
481 0.000668
482 0.000634
483 0.000631
484 0.000646
485 0.000672
486 0.000714
487 0.000773
488 0.000820
489 0.000833
490 0.000853
491 0.000856
492 0.000876
493 0.000893
494 0.000920
495 0.000931
496 0.000933
497 0.000966
498 0.000998
499 0.001001
500 0.001011
501 0.001002
502 0.000948
503 0.000887
504 0.000837
505 0.000797
506 0.000749
507 0.000742
508 0.000735
509 0.000749
510 0.000770
511 0.000768
512 0.000757
513 0.000760
514 0.000774
515 0.000786
516 0.000789
517 0.000792
518 0.000780
519 0.000778
520 0.000791
521 0.000808
522 0.000827
523 0.000853
524 0.000890
525 0.000917
526 0.000941
527 0.000932
528 0.000918
529 0.000905
530 0.000863
531 0.000807
532 0.000770
533 0.000758
534 0.000763
535 0.000761
536 0.000760
537 0.000776
538 0.000784
539 0.000807
540 0.000825
541 0.000832
542 0.000834
543 0.000832
544 0.000839
545 0.000854
546 0.000862
547 0.000874
548 0.000889
549 0.000910
550 0.000918
551 0.000914
552 0.000899
553 0.000917
554 0.000898
555 0.000893
556 0.000884
557 0.000900
558 0.000892
559 0.000873
560 0.000862
561 0.000830
562 0.000824
563 0.000825
564 0.000846
565 0.000863
566 0.000886
567 0.000888
568 0.000877
569 0.000868
570 0.000831
571 0.000815
572 0.000808
573 0.000788
574 0.000780
575 0.000780
576 0.000799
577 0.000819
578 0.000833
579 0.000841
580 0.000822
581 0.000796
582 0.000790
583 0.000786
584 0.000766
585 0.000764
586 0.000772
587 0.000794
588 0.000795
589 0.000819
590 0.000850
591 0.000865
592 0.000860
593 0.000844
594 0.000849
595 0.000863
596 0.000886
597 0.000890
598 0.000881
599 0.000853
600 0.000808
601 0.000772
602 0.000746
603 0.000722
604 0.000693
605 0.000656
606 0.000622
607 0.000605
608 0.000622
609 0.000646
610 0.000650
611 0.000639
612 0.000650
613 0.000682
614 0.000722
615 0.000766
616 0.000791
617 0.000800
618 0.000808
619 0.000798
620 0.000778
621 0.000775
622 0.000757
623 0.000735
624 0.000692
625 0.000677
626 0.000672
627 0.000692
628 0.000699
629 0.000707
630 0.000740
631 0.000784
632 0.000813
633 0.000822
634 0.000841
635 0.000827
636 0.000820
637 0.000820
638 0.000831
639 0.000839
640 0.000837
641 0.000823
642 0.000808
643 0.000778
644 0.000741
645 0.000716
646 0.000697
647 0.000678
648 0.000676
649 0.000678
650 0.000692
651 0.000697
652 0.000700
653 0.000695
654 0.000698
655 0.000704
656 0.000714
657 0.000732
658 0.000742
659 0.000751
660 0.000754
661 0.000745
662 0.000722
663 0.000701
664 0.000689
665 0.000688
666 0.000680
667 0.000661
668 0.000639
669 0.000604
670 0.000571
671 0.000557
672 0.000555
673 0.000577
674 0.000602
675 0.000621
676 0.000638
677 0.000649
678 0.000657
679 0.000671
680 0.000694
681 0.000716
682 0.000722
683 0.000740
684 0.000757
685 0.000764
686 0.000759
687 0.000744
688 0.000724
689 0.000712
690 0.000700
691 0.000682
692 0.000661
693 0.000644
694 0.000630
695 0.000621
696 0.000608
697 0.000606
698 0.000606
699 0.000593
700 0.000584
701 0.000577
702 0.000577
703 0.000575
704 0.000585
705 0.000583
706 0.000586
707 0.000597
708 0.000596
709 0.000587
710 0.000568
711 0.000572
712 0.000572
713 0.000560
714 0.000523
715 0.000495
716 0.000469
717 0.000422
718 0.000389
719 0.000363
720 0.000348
721 0.000340
722 0.000332
723 0.000327
724 0.000347
725 0.000375
726 0.000382
727 0.000373
728 0.000366
729 0.000370
730 0.000374
731 0.000371
732 0.000374
733 0.000374
734 0.000389
735 0.000401
736 0.000410
737 0.000406
738 0.000393
739 0.000366
740 0.000330
741 0.000294
742 0.000279
743 0.000268
744 0.000248
745 0.000223
746 0.000211
747 0.000222
748 0.000250
749 0.000262
750 0.000264
751 0.000250
752 0.000229
753 0.000203
754 0.000198
755 0.000198
756 0.000196
757 0.000191
758 0.000198
759 0.000208
760 0.000210
761 0.000211
762 0.000202
763 0.000196
764 0.000179
765 0.000179
766 0.000187
767 0.000195
768 0.000194
769 0.000190
770 0.000201
771 0.000218
772 0.000235
773 0.000248
774 0.000266
775 0.000279
776 0.000290
777 0.000305
778 0.000309
779 0.000306
780 0.000301
781 0.000292
782 0.000280
783 0.000255
784 0.000233
785 0.000220
786 0.000189
787 0.000159
788 0.000135
789 0.000127
790 0.000112
791 0.000096
792 0.000081
793 0.000062
794 0.000044
795 0.000039
796 0.000047
797 0.000061
798 0.000070
799 0.000075
800 0.000079
801 0.000104
802 0.000117
803 0.000135
804 0.000151
805 0.000166
806 0.000184
807 0.000205
808 0.000234
809 0.000257
