# i correlation
1 0.002393
2 0.002093
3 0.001840
4 0.001671
5 0.001547
6 0.001426
7 0.001308
8 0.001199
9 0.001104
10 0.001053
11 0.000998
12 0.000984
13 0.000975
14 0.000955
15 0.000945
16 0.000950
17 0.000944
18 0.000928
19 0.000942
20 0.000950
21 0.000938
22 0.000928
23 0.000897
24 0.000881
25 0.000867
26 0.000850
27 0.000867
28 0.000862
29 0.000872
30 0.000857
31 0.000875
32 0.000886
33 0.000931
34 0.000939
35 0.000930
36 0.000915
37 0.000920
38 0.000874
39 0.000836
40 0.000823
41 0.000806
42 0.000785
43 0.000758
44 0.000741
45 0.000724
46 0.000724
47 0.000740
48 0.000760
49 0.000784
50 0.000816
51 0.000808
52 0.000779
53 0.000769
54 0.000723
55 0.000704
56 0.000687
57 0.000708
58 0.000750
59 0.000749
60 0.000763
61 0.000755
62 0.000744
63 0.000762
64 0.000795
65 0.000781
66 0.000735
67 0.000707
68 0.000674
69 0.000631
70 0.000586
71 0.000563
72 0.000545
73 0.000556
74 0.000556
75 0.000558
76 0.000550
77 0.000574
78 0.000569
79 0.000542
80 0.000539
81 0.000544
82 0.000526
83 0.000521
84 0.000542
85 0.000525
86 0.000487
87 0.000459
88 0.000411
89 0.000377
90 0.000382
91 0.000371
92 0.000349
93 0.000357
94 0.000338
95 0.000363
96 0.000399
97 0.000419
98 0.000411
99 0.000383
100 0.000406
101 0.000433
102 0.000438
103 0.000444
104 0.000475
105 0.000481
106 0.000506
107 0.000484
108 0.000475
109 0.000453
110 0.000476
111 0.000481
112 0.000479
113 0.000454
114 0.000428
115 0.000404
116 0.000386
117 0.000382
118 0.000384
119 0.000376
120 0.000376
121 0.000405
122 0.000449
123 0.000472
124 0.000511
125 0.000548
126 0.000551
127 0.000537
128 0.000557
129 0.000603
130 0.000603
131 0.000601
132 0.000586
133 0.000591
134 0.000623
135 0.000623
136 0.000593
137 0.000584
138 0.000568
139 0.000564
140 0.000560
141 0.000557
142 0.000537
143 0.000520
144 0.000523
145 0.000526
146 0.000523
147 0.000544
148 0.000567
149 0.000555
150 0.000539
151 0.000517
152 0.000489
153 0.000475
154 0.000463
155 0.000451
156 0.000438
157 0.000407
158 0.000374
159 0.000356
160 0.000325
161 0.000334
162 0.000326
163 0.000335
164 0.000318
165 0.000323
166 0.000326
167 0.000324
168 0.000333
169 0.000366
170 0.000403
171 0.000457
172 0.000449
173 0.000425
174 0.000420
175 0.000419
176 0.000391
177 0.000369
178 0.000337
179 0.000336
180 0.000336
181 0.000358
182 0.000373
183 0.000389
184 0.000399
185 0.000397
186 0.000378
187 0.000382
188 0.000400
189 0.000394
190 0.000390
191 0.000371
192 0.000337
193 0.000306
194 0.000279
195 0.000237
196 0.000206
197 0.000199
198 0.000219
199 0.000244
200 0.000271
201 0.000293
202 0.000289
203 0.000288
204 0.000271
205 0.000283
206 0.000311
207 0.000346
208 0.000347
209 0.000324
210 0.000292
211 0.000251
212 0.000262
213 0.000269
214 0.000274
215 0.000257
216 0.000269
217 0.000266
218 0.000288
219 0.000301
220 0.000274
221 0.000266
222 0.000273
223 0.000243
224 0.000232
225 0.000229
226 0.000215
227 0.000178
228 0.000166
229 0.000178
230 0.000187
231 0.000178
232 0.000179
233 0.000178
234 0.000203
235 0.000235
236 0.000245
237 0.000234
238 0.000243
239 0.000241
240 0.000259
241 0.000263
242 0.000224
243 0.000178
244 0.000141
245 0.000109
246 0.000096
247 0.000083
248 0.000055
249 0.000036
250 0.000018
251 0.000016
252 0.000004
253 0.000001
254 0.000028
255 0.000055
256 0.000077
257 0.000077
258 0.000092
259 0.000094
260 0.000115
261 0.000134
262 0.000162
263 0.000156
264 0.000159
265 0.000168
266 0.000209
267 0.000256
268 0.000283
269 0.000282
270 0.000220
271 0.000175
272 0.000157
273 0.000144
274 0.000195
275 0.000237
276 0.000241
277 0.000232
278 0.000205
279 0.000217
280 0.000230
281 0.000262
282 0.000307
283 0.000335
284 0.000376
285 0.000385
286 0.000326
287 0.000296
288 0.000268
289 0.000282
290 0.000287
291 0.000295
292 0.000296
293 0.000307
294 0.000342
295 0.000350
296 0.000337
297 0.000321
298 0.000310
299 0.000312
300 0.000305
301 0.000276
302 0.000250
303 0.000242
304 0.000240
305 0.000267
306 0.000265
307 0.000227
308 0.000200
309 0.000233
310 0.000277
311 0.000309
312 0.000354
313 0.000405
314 0.000463
315 0.000498
316 0.000539
317 0.000574
318 0.000599
319 0.000591
320 0.000566
321 0.000518
322 0.000502
323 0.000467
324 0.000454
325 0.000453
326 0.000429
327 0.000413
328 0.000368
329 0.000329
330 0.000324
331 0.000324
332 0.000359
333 0.000371
334 0.000400
335 0.000414
336 0.000407
337 0.000400
338 0.000397
339 0.000389
340 0.000394
341 0.000412
342 0.000436
343 0.000453
344 0.000462
345 0.000459
346 0.000466
347 0.000509
348 0.000522
349 0.000531
350 0.000535
351 0.000543
352 0.000554
353 0.000564
354 0.000570
355 0.000555
356 0.000545
357 0.000539
358 0.000535
359 0.000520
360 0.000473
361 0.000434
362 0.000431
363 0.000424
364 0.000410
365 0.000406
366 0.000417
367 0.000427
368 0.000410
369 0.000419
370 0.000409
371 0.000385
372 0.000380
373 0.000357
374 0.000370
375 0.000402
376 0.000410
377 0.000416
378 0.000426
379 0.000421
380 0.000424
381 0.000412
382 0.000383
383 0.000361
384 0.000346
385 0.000375
386 0.000368
387 0.000354
388 0.000362
389 0.000365
390 0.000382
391 0.000404
392 0.000372
393 0.000339
394 0.000287
395 0.000283
396 0.000266
397 0.000258
398 0.000248
399 0.000255
400 0.000261
401 0.000239
402 0.000242
403 0.000236
404 0.000248
405 0.000249
406 0.000254
407 0.000240
408 0.000227
409 0.000237
410 0.000249
411 0.000238
412 0.000236
413 0.000212
414 0.000217
415 0.000232
416 0.000233
417 0.000218
418 0.000216
419 0.000231
420 0.000247
421 0.000266
422 0.000275
423 0.000271
424 0.000263
425 0.000260
426 0.000230
427 0.000197
428 0.000159
429 0.000134
430 0.000112
431 0.000104
432 0.000082
433 0.000051
434 0.000029
435 0.000024
436 0.000027
437 0.000032
438 0.000054
439 0.000088
440 0.000103
441 0.000136
442 0.000161
443 0.000184
444 0.000186
445 0.000189
446 0.000204
447 0.000216
448 0.000225
449 0.000229
450 0.000219
451 0.000213
452 0.000192
453 0.000193
454 0.000192
455 0.000181
456 0.000185
457 0.000173
458 0.000170
459 0.000180
460 0.000172
461 0.000133
462 0.000104
463 0.000095
464 0.000096
465 0.000089
466 0.000081
467 0.000049
468 0.000049
469 0.000047
470 0.000045
471 0.000027
472 0.000036
473 0.000049
474 0.000057
475 0.000075
476 0.000099
477 0.000066
478 0.000019
479 -0.000001
480 0.000000
481 0.000023
482 0.000055
483 0.000079
484 0.000106
485 0.000127
486 0.000154
487 0.000187
488 0.000213
489 0.000208
490 0.000185
491 0.000172
492 0.000159
493 0.000151
494 0.000124
495 0.000099
496 0.000107
497 0.000121
498 0.000116
499 0.000124
500 0.000131
501 0.000157
502 0.000171
503 0.000192
504 0.000194
505 0.000208
506 0.000232
507 0.000241
508 0.000250
509 0.000252
510 0.000266
511 0.000265
512 0.000248
513 0.000219
514 0.000201
515 0.000192
516 0.000196
517 0.000191
518 0.000201
519 0.000206
520 0.000206
521 0.000196
522 0.000220
523 0.000240
524 0.000265
525 0.000268
526 0.000245
527 0.000205
528 0.000187
529 0.000169
530 0.000149
531 0.000132
532 0.000124
533 0.000124
534 0.000111
535 0.000097
536 0.000084
537 0.000084
538 0.000082
539 0.000071
540 0.000070
541 0.000061
542 0.000027
543 0.000012
544 0.000003
545 -0.000029
546 -0.000037
547 -0.000054
548 -0.000085
549 -0.000077
550 -0.000059
551 -0.000030
552 -0.000007
553 -0.000002
554 0.000012
555 0.000013
556 0.000046
557 0.000067
558 0.000074
559 0.000097
560 0.000120
561 0.000126
562 0.000103
563 0.000080
564 0.000054
565 0.000046
566 0.000051
567 0.000036
568 0.000031
569 0.000036
570 0.000040
571 0.000030
572 0.000038
573 0.000053
574 0.000064
575 0.000068
576 0.000065
577 0.000043
578 0.000026
579 0.000020
580 0.000028
581 0.000041
582 0.000032
583 0.000012
584 -0.000013
585 -0.000030
586 -0.000029
587 -0.000030
588 -0.000023
589 -0.000002
590 -0.000003
591 -0.000016
592 -0.000019
593 -0.000013
594 -0.000001
595 -0.000010
596 -0.000009
597 0.000003
598 0.000016
599 0.000018
600 0.000011
601 0.000006
602 -0.000020
603 -0.000052
604 -0.000064
605 -0.000068
606 -0.000088
607 -0.000080
608 -0.000080
609 -0.000052
610 -0.000039
611 -0.000037
612 -0.000059
613 -0.000063
614 -0.000069
615 -0.000071
616 -0.000063
617 -0.000069
618 -0.000078
619 -0.000084
620 -0.000073
621 -0.000046
622 -0.000028
623 -0.000010
624 -0.000009
625 -0.000023
626 -0.000012
627 0.000007
628 0.000022
629 0.000033
630 0.000054
631 0.000075
632 0.000098
633 0.000132
634 0.000165
635 0.000187
636 0.000224
637 0.000245
638 0.000243
639 0.000235
640 0.000223
641 0.000211
642 0.000195
643 0.000188
644 0.000187
645 0.000169
646 0.000148
647 0.000155
648 0.000142
649 0.000131
650 0.000126
651 0.000119
652 0.000102
653 0.000101
654 0.000090
655 0.000066
656 0.000052
657 0.000073
658 0.000097
659 0.000139
660 0.000174
661 0.000192
662 0.000193
663 0.000183
664 0.000182
665 0.000178
666 0.000183
667 0.000189
668 0.000174
669 0.000164
670 0.000174
671 0.000197
672 0.000229
673 0.000257
674 0.000273
675 0.000267
676 0.000263
677 0.000248
678 0.000245
679 0.000240
680 0.000229
681 0.000226
682 0.000227
683 0.000220
684 0.000228
685 0.000230
686 0.000242
687 0.000258
688 0.000268
689 0.000270
690 0.000270
691 0.000277
692 0.000247
693 0.000237
694 0.000271
695 0.000285
696 0.000285
697 0.000281
698 0.000280
699 0.000286
700 0.000308
701 0.000324
702 0.000316
703 0.000308
704 0.000321
705 0.000332
706 0.000334
707 0.000334
708 0.000332
709 0.000330
710 0.000326
711 0.000329
712 0.000320
713 0.000323
714 0.000305
715 0.000309
716 0.000293
717 0.000284
718 0.000273
719 0.000266
720 0.000259
721 0.000267
722 0.000274
723 0.000280
724 0.000285
725 0.000288
726 0.000284
727 0.000278
728 0.000267
729 0.000255
730 0.000236
731 0.000229
732 0.000221
733 0.000216
734 0.000227
735 0.000231
736 0.000234
737 0.000245
738 0.000267
739 0.000265
740 0.000265
741 0.000260
742 0.000246
743 0.000228
744 0.000218
745 0.000199
746 0.000180
747 0.000163
748 0.000160
749 0.000147
750 0.000133
751 0.000130
752 0.000136
753 0.000135
754 0.000145
755 0.000146
756 0.000138
757 0.000143
758 0.000153
759 0.000164
760 0.000170
761 0.000170
762 0.000175
763 0.000181
764 0.000188
765 0.000200
766 0.000203
767 0.000195
768 0.000201
769 0.000208
770 0.000201
771 0.000209
772 0.000216
773 0.000223
774 0.000229
775 0.000221
776 0.000213
777 0.000198
778 0.000185
779 0.000181
780 0.000178
781 0.000168
782 0.000163
783 0.000139
784 0.000126
785 0.000116
786 0.000119
787 0.000115
788 0.000112
789 0.000102
790 0.000106
791 0.000114
792 0.000117
793 0.000113
794 0.000103
795 0.000105
796 0.000105
797 0.000101
798 0.000110
799 0.000129
800 0.000145
801 0.000165
802 0.000173
803 0.000172
804 0.000177
805 0.000184
806 0.000201
807 0.000206
808 0.000216
809 0.000220
