# i correlation
1 0.002948
2 0.002629
3 0.002400
4 0.002163
5 0.001964
6 0.001792
7 0.001663
8 0.001579
9 0.001480
10 0.001352
11 0.001281
12 0.001224
13 0.001163
14 0.001160
15 0.001134
16 0.001138
17 0.001170
18 0.001190
19 0.001181
20 0.001155
21 0.001155
22 0.001144
23 0.001119
24 0.001114
25 0.001118
26 0.001138
27 0.001144
28 0.001177
29 0.001175
30 0.001159
31 0.001149
32 0.001117
33 0.001104
34 0.001124
35 0.001169
36 0.001217
37 0.001271
38 0.001251
39 0.001201
40 0.001214
41 0.001194
42 0.001201
43 0.001223
44 0.001240
45 0.001293
46 0.001332
47 0.001359
48 0.001371
49 0.001351
50 0.001304
51 0.001271
52 0.001242
53 0.001252
54 0.001279
55 0.001290
56 0.001289
57 0.001283
58 0.001282
59 0.001271
60 0.001261
61 0.001255
62 0.001220
63 0.001235
64 0.001210
65 0.001188
66 0.001171
67 0.001156
68 0.001136
69 0.001107
70 0.001134
71 0.001159
72 0.001167
73 0.001169
74 0.001170
75 0.001167
76 0.001154
77 0.001123
78 0.001099
79 0.001053
80 0.001014
81 0.000953
82 0.000952
83 0.000947
84 0.000933
85 0.000913
86 0.000907
87 0.000903
88 0.000904
89 0.000909
90 0.000892
91 0.000873
92 0.000868
93 0.000885
94 0.000916
95 0.000944
96 0.000942
97 0.000951
98 0.000954
99 0.000927
100 0.000915
101 0.000923
102 0.000913
103 0.000892
104 0.000882
105 0.000852
106 0.000840
107 0.000847
108 0.000868
109 0.000860
110 0.000904
111 0.000953
112 0.001001
113 0.001075
114 0.001135
115 0.001132
116 0.001098
117 0.001069
118 0.001053
119 0.001048
120 0.001043
121 0.001021
122 0.000998
123 0.000944
124 0.000905
125 0.000896
126 0.000911
127 0.000906
128 0.000899
129 0.000916
130 0.000901
131 0.000915
132 0.000924
133 0.000914
134 0.000930
135 0.000956
136 0.000920
137 0.000848
138 0.000796
139 0.000789
140 0.000799
141 0.000817
142 0.000817
143 0.000831
144 0.000823
145 0.000805
146 0.000752
147 0.000683
148 0.000663
149 0.000665
150 0.000691
151 0.000690
152 0.000687
153 0.000697
154 0.000710
155 0.000715
156 0.000714
157 0.000728
158 0.000766
159 0.000770
160 0.000789
161 0.000809
162 0.000831
163 0.000831
164 0.000807
165 0.000790
166 0.000787
167 0.000793
168 0.000798
169 0.000779
170 0.000750
171 0.000749
172 0.000742
173 0.000717
174 0.000719
175 0.000715
176 0.000715
177 0.000739
178 0.000745
179 0.000767
180 0.000781
181 0.000782
182 0.000794
183 0.000814
184 0.000825
185 0.000844
186 0.000869
187 0.000878
188 0.000904
189 0.000951
190 0.000975
191 0.000948
192 0.000896
193 0.000867
194 0.000809
195 0.000730
196 0.000681
197 0.000671
198 0.000663
199 0.000639
200 0.000629
201 0.000657
202 0.000662
203 0.000659
204 0.000626
205 0.000619
206 0.000623
207 0.000603
208 0.000593
209 0.000597
210 0.000589
211 0.000585
212 0.000570
213 0.000576
214 0.000594
215 0.000656
216 0.000687
217 0.000695
218 0.000687
219 0.000661
220 0.000617
221 0.000602
222 0.000588
223 0.000562
224 0.000563
225 0.000559
226 0.000540
227 0.000536
228 0.000575
229 0.000618
230 0.000620
231 0.000624
232 0.000636
233 0.000680
234 0.000709
235 0.000740
236 0.000748
237 0.000749
238 0.000746
239 0.000740
240 0.000737
241 0.000707
242 0.000697
243 0.000700
244 0.000680
245 0.000668
246 0.000690
247 0.000697
248 0.000679
249 0.000674
250 0.000694
251 0.000705
252 0.000705
253 0.000710
254 0.000732
255 0.000730
256 0.000711
257 0.000690
258 0.000669
259 0.000649
260 0.000630
261 0.000640
262 0.000651
263 0.000655
264 0.000674
265 0.000669
266 0.000669
267 0.000627
268 0.000593
269 0.000567
270 0.000561
271 0.000589
272 0.000606
273 0.000595
274 0.000566
275 0.000555
276 0.000577
277 0.000597
278 0.000600
279 0.000614
280 0.000611
281 0.000585
282 0.000541
283 0.000516
284 0.000510
285 0.000497
286 0.000476
287 0.000482
288 0.000501
289 0.000504
290 0.000489
291 0.000479
292 0.000470
293 0.000443
294 0.000417
295 0.000424
296 0.000413
297 0.000401
298 0.000420
299 0.000451
300 0.000486
301 0.000521
302 0.000513
303 0.000518
304 0.000535
305 0.000555
306 0.000581
307 0.000620
308 0.000668
309 0.000698
310 0.000700
311 0.000712
312 0.000724
313 0.000741
314 0.000721
315 0.000717
316 0.000721
317 0.000727
318 0.000706
319 0.000682
320 0.000661
321 0.000623
322 0.000611
323 0.000584
324 0.000559
325 0.000530
326 0.000489
327 0.000432
328 0.000389
329 0.000412
330 0.000420
331 0.000393
332 0.000382
333 0.000335
334 0.000303
335 0.000290
336 0.000280
337 0.000295
338 0.000327
339 0.000320
340 0.000291
341 0.000283
342 0.000297
343 0.000319
344 0.000339
345 0.000328
346 0.000367
347 0.000404
348 0.000441
349 0.000447
350 0.000446
351 0.000430
352 0.000378
353 0.000355
354 0.000333
355 0.000322
356 0.000303
357 0.000264
358 0.000261
359 0.000264
360 0.000273
361 0.000275
362 0.000278
363 0.000284
364 0.000316
365 0.000334
366 0.000348
367 0.000381
368 0.000402
369 0.000427
370 0.000417
371 0.000380
372 0.000368
373 0.000350
374 0.000346
375 0.000358
376 0.000378
377 0.000388
378 0.000421
379 0.000474
380 0.000474
381 0.000456
382 0.000455
383 0.000496
384 0.000522
385 0.000522
386 0.000519
387 0.000494
388 0.000430
389 0.000377
390 0.000360
391 0.000331
392 0.000313
393 0.000324
394 0.000293
395 0.000277
396 0.000274
397 0.000249
398 0.000254
399 0.000255
400 0.000256
401 0.000264
402 0.000271
403 0.000275
404 0.000295
405 0.000321
406 0.000353
407 0.000403
408 0.000401
409 0.000381
410 0.000356
411 0.000325
412 0.000326
413 0.000333
414 0.000357
415 0.000354
416 0.000346
417 0.000338
418 0.000357
419 0.000390
420 0.000428
421 0.000493
422 0.000538
423 0.000566
424 0.000592
425 0.000591
426 0.000615
427 0.000620
428 0.000580
429 0.000547
430 0.000503
431 0.000463
432 0.000436
433 0.000406
434 0.000396
435 0.000375
436 0.000353
437 0.000341
438 0.000323
439 0.000292
440 0.000302
441 0.000315
442 0.000344
443 0.000387
444 0.000436
445 0.000460
446 0.000486
447 0.000495
448 0.000487
449 0.000505
450 0.000529
451 0.000566
452 0.000578
453 0.000570
454 0.000569
455 0.000563
456 0.000562
457 0.000557
458 0.000534
459 0.000503
460 0.000467
461 0.000438
462 0.000406
463 0.000396
464 0.000407
465 0.000400
466 0.000398
467 0.000403
468 0.000420
469 0.000443
470 0.000445
471 0.000435
472 0.000455
473 0.000469
474 0.000446
475 0.000425
476 0.000360
477 0.000337
478 0.000339
479 0.000333
480 0.000350
481 0.000377
482 0.000423
483 0.000451
484 0.000461
485 0.000452
486 0.000446
487 0.000428
488 0.000402
489 0.000412
490 0.000422
491 0.000413
492 0.000420
493 0.000417
494 0.000424
495 0.000401
496 0.000390
497 0.000404
498 0.000411
499 0.000412
500 0.000428
501 0.000451
502 0.000435
503 0.000420
504 0.000437
505 0.000426
506 0.000421
507 0.000403
508 0.000364
509 0.000333
510 0.000312
511 0.000268
512 0.000232
513 0.000199
514 0.000195
515 0.000200
516 0.000181
517 0.000172
518 0.000195
519 0.000206
520 0.000214
521 0.000203
522 0.000208
523 0.000203
524 0.000190
525 0.000168
526 0.000168
527 0.000184
528 0.000200
529 0.000210
530 0.000197
531 0.000182
532 0.000170
533 0.000169
534 0.000164
535 0.000183
536 0.000213
537 0.000244
538 0.000283
539 0.000323
540 0.000346
541 0.000362
542 0.000369
543 0.000343
544 0.000350
545 0.000352
546 0.000328
547 0.000329
548 0.000332
549 0.000311
550 0.000299
551 0.000286
552 0.000264
553 0.000253
554 0.000229
555 0.000235
556 0.000248
557 0.000262
558 0.000262
559 0.000261
560 0.000258
561 0.000255
562 0.000256
563 0.000263
564 0.000267
565 0.000288
566 0.000302
567 0.000316
568 0.000321
569 0.000317
570 0.000311
571 0.000292
572 0.000284
573 0.000280
574 0.000245
575 0.000236
576 0.000229
577 0.000225
578 0.000191
579 0.000174
580 0.000159
581 0.000158
582 0.000165
583 0.000168
584 0.000201
585 0.000240
586 0.000255
587 0.000252
588 0.000241
589 0.000220
590 0.000178
591 0.000138
592 0.000126
593 0.000132
594 0.000144
595 0.000143
596 0.000149
597 0.000138
598 0.000135
599 0.000126
600 0.000131
601 0.000141
602 0.000128
603 0.000117
604 0.000120
605 0.000113
606 0.000073
607 0.000035
608 0.000034
609 0.000036
610 0.000046
611 0.000045
612 0.000053
613 0.000067
614 0.000079
615 0.000091
616 0.000091
617 0.000079
618 0.000093
619 0.000107
620 0.000112
621 0.000118
622 0.000141
623 0.000148
624 0.000150
625 0.000141
626 0.000134
627 0.000138
628 0.000127
629 0.000125
630 0.000150
631 0.000160
632 0.000143
633 0.000136
634 0.000111
635 0.000105
636 0.000119
637 0.000130
638 0.000129
639 0.000139
640 0.000145
641 0.000142
642 0.000130
643 0.000106
644 0.000065
645 0.000040
646 0.000028
647 0.000013
648 0.000008
649 0.000001
650 -0.000017
651 -0.000030
652 -0.000043
653 -0.000072
654 -0.000083
655 -0.000060
656 -0.000037
657 -0.000006
658 0.000018
659 0.000046
660 0.000063
661 0.000057
662 0.000033
663 0.000006
664 -0.000006
665 -0.000039
666 -0.000061
667 -0.000067
668 -0.000065
669 -0.000065
670 -0.000070
671 -0.000064
672 -0.000048
673 -0.000026
674 -0.000016
675 -0.000015
676 -0.000021
677 -0.000035
678 -0.000028
679 -0.000013
680 0.000005
681 0.000012
682 0.000018
683 0.000049
684 0.000072
685 0.000098
686 0.000116
687 0.000124
688 0.000120
689 0.000107
690 0.000089
691 0.000079
692 0.000076
693 0.000078
694 0.000082
695 0.000068
696 0.000051
697 0.000059
698 0.000052
699 0.000034
700 0.000027
701 0.000018
702 0.000007
703 -0.000014
704 -0.000054
705 -0.000089
706 -0.000106
707 -0.000129
708 -0.000133
709 -0.000143
710 -0.000169
711 -0.000184
712 -0.000207
713 -0.000222
714 -0.000244
715 -0.000240
716 -0.000223
717 -0.000218
718 -0.000219
719 -0.000204
720 -0.000183
721 -0.000161
722 -0.000142
723 -0.000125
724 -0.000111
725 -0.000096
726 -0.000100
727 -0.000079
728 -0.000053
729 -0.000011
730 0.000034
731 0.000056
732 0.000076
733 0.000088
734 0.000107
735 0.000116
736 0.000117
737 0.000113
738 0.000097
739 0.000081
740 0.000053
741 0.000029
742 -0.000010
743 -0.000021
744 -0.000019
745 -0.000011
746 0.000003
747 -0.000007
748 -0.000021
749 -0.000031
750 -0.000039
751 -0.000044
752 -0.000049
753 -0.000057
754 -0.000053
755 -0.000055
756 -0.000056
757 -0.000050
758 -0.000050
759 -0.000053
760 -0.000062
761 -0.000072
762 -0.000067
763 -0.000070
764 -0.000085
765 -0.000098
766 -0.000101
767 -0.000124
768 -0.000141
769 -0.000154
770 -0.000152
771 -0.000138
772 -0.000125
773 -0.000110
774 -0.000106
775 -0.000113
776 -0.000117
777 -0.000124
778 -0.000133
779 -0.000155
780 -0.000159
781 -0.000154
782 -0.000144
783 -0.000132
784 -0.000125
785 -0.000133
786 -0.000134
787 -0.000139
788 -0.000149
789 -0.000160
790 -0.000151
791 -0.000139
792 -0.000121
793 -0.000111
794 -0.000106
795 -0.000082
796 -0.000086
797 -0.000087
798 -0.000073
799 -0.000049
800 -0.000037
801 -0.000017
802 0.000003
803 0.000012
804 0.000017
805 0.000017
806 0.000018
807 0.000018
808 0.000016
809 0.000016
