# i correlation
1 0.002800
2 0.002498
3 0.002254
4 0.002032
5 0.001826
6 0.001679
7 0.001529
8 0.001409
9 0.001321
10 0.001236
11 0.001168
12 0.001152
13 0.001127
14 0.001090
15 0.001066
16 0.001005
17 0.000962
18 0.000953
19 0.000936
20 0.000928
21 0.000914
22 0.000874
23 0.000838
24 0.000827
25 0.000819
26 0.000796
27 0.000803
28 0.000809
29 0.000820
30 0.000847
31 0.000882
32 0.000897
33 0.000922
34 0.000910
35 0.000899
36 0.000909
37 0.000911
38 0.000878
39 0.000860
40 0.000825
41 0.000767
42 0.000753
43 0.000752
44 0.000742
45 0.000732
46 0.000738
47 0.000760
48 0.000809
49 0.000888
50 0.000926
51 0.000946
52 0.000956
53 0.000947
54 0.000925
55 0.000889
56 0.000842
57 0.000824
58 0.000757
59 0.000696
60 0.000663
61 0.000649
62 0.000660
63 0.000666
64 0.000661
65 0.000646
66 0.000622
67 0.000598
68 0.000579
69 0.000585
70 0.000597
71 0.000607
72 0.000624
73 0.000650
74 0.000679
75 0.000728
76 0.000742
77 0.000741
78 0.000760
79 0.000754
80 0.000773
81 0.000827
82 0.000909
83 0.000921
84 0.000923
85 0.000957
86 0.000972
87 0.000981
88 0.001013
89 0.001011
90 0.001001
91 0.000984
92 0.000967
93 0.000939
94 0.000929
95 0.000926
96 0.000946
97 0.000964
98 0.000978
99 0.000992
100 0.000988
101 0.000959
102 0.000937
103 0.000909
104 0.000873
105 0.000842
106 0.000833
107 0.000804
108 0.000794
109 0.000779
110 0.000790
111 0.000821
112 0.000815
113 0.000797
114 0.000792
115 0.000793
116 0.000729
117 0.000702
118 0.000681
119 0.000656
120 0.000633
121 0.000621
122 0.000597
123 0.000577
124 0.000594
125 0.000585
126 0.000546
127 0.000522
128 0.000512
129 0.000512
130 0.000504
131 0.000510
132 0.000521
133 0.000536
134 0.000513
135 0.000477
136 0.000414
137 0.000371
138 0.000344
139 0.000335
140 0.000328
141 0.000312
142 0.000309
143 0.000322
144 0.000350
145 0.000416
146 0.000459
147 0.000519
148 0.000581
149 0.000628
150 0.000663
151 0.000669
152 0.000632
153 0.000586
154 0.000536
155 0.000489
156 0.000440
157 0.000419
158 0.000405
159 0.000381
160 0.000414
161 0.000432
162 0.000462
163 0.000503
164 0.000543
165 0.000555
166 0.000569
167 0.000540
168 0.000537
169 0.000507
170 0.000458
171 0.000425
172 0.000404
173 0.000363
174 0.000351
175 0.000376
176 0.000376
177 0.000373
178 0.000389
179 0.000362
180 0.000331
181 0.000349
182 0.000352
183 0.000372
184 0.000417
185 0.000468
186 0.000519
187 0.000553
188 0.000581
189 0.000594
190 0.000611
191 0.000608
192 0.000599
193 0.000629
194 0.000647
195 0.000674
196 0.000712
197 0.000753
198 0.000768
199 0.000786
200 0.000811
201 0.000829
202 0.000858
203 0.000855
204 0.000831
205 0.000794
206 0.000783
207 0.000723
208 0.000658
209 0.000608
210 0.000553
211 0.000486
212 0.000443
213 0.000416
214 0.000403
215 0.000406
216 0.000417
217 0.000402
218 0.000387
219 0.000379
220 0.000394
221 0.000416
222 0.000410
223 0.000408
224 0.000399
225 0.000406
226 0.000397
227 0.000365
228 0.000324
229 0.000319
230 0.000321
231 0.000308
232 0.000316
233 0.000324
234 0.000333
235 0.000345
236 0.000343
237 0.000341
238 0.000349
239 0.000353
240 0.000351
241 0.000346
242 0.000349
243 0.000341
244 0.000347
245 0.000360
246 0.000369
247 0.000349
248 0.000337
249 0.000353
250 0.000361
251 0.000376
252 0.000374
253 0.000377
254 0.000375
255 0.000361
256 0.000358
257 0.000391
258 0.000414
259 0.000427
260 0.000417
261 0.000354
262 0.000285
263 0.000254
264 0.000216
265 0.000157
266 0.000136
267 0.000098
268 0.000078
269 0.000051
270 0.000057
271 0.000061
272 0.000076
273 0.000113
274 0.000134
275 0.000173
276 0.000209
277 0.000255
278 0.000293
279 0.000337
280 0.000348
281 0.000370
282 0.000377
283 0.000396
284 0.000426
285 0.000448
286 0.000478
287 0.000497
288 0.000503
289 0.000512
290 0.000519
291 0.000525
292 0.000532
293 0.000536
294 0.000542
295 0.000535
296 0.000528
297 0.000530
298 0.000534
299 0.000537
300 0.000540
301 0.000535
302 0.000499
303 0.000453
304 0.000385
305 0.000342
306 0.000335
307 0.000363
308 0.000405
309 0.000401
310 0.000401
311 0.000438
312 0.000491
313 0.000507
314 0.000535
315 0.000559
316 0.000579
317 0.000604
318 0.000601
319 0.000604
320 0.000616
321 0.000607
322 0.000582
323 0.000574
324 0.000574
325 0.000539
326 0.000532
327 0.000527
328 0.000505
329 0.000484
330 0.000469
331 0.000467
332 0.000480
333 0.000508
334 0.000508
335 0.000482
336 0.000469
337 0.000435
338 0.000423
339 0.000394
340 0.000397
341 0.000401
342 0.000383
343 0.000364
344 0.000361
345 0.000354
346 0.000344
347 0.000325
348 0.000344
349 0.000390
350 0.000409
351 0.000440
352 0.000445
353 0.000445
354 0.000436
355 0.000397
356 0.000390
357 0.000384
358 0.000364
359 0.000343
360 0.000309
361 0.000275
362 0.000248
363 0.000256
364 0.000277
365 0.000271
366 0.000260
367 0.000255
368 0.000235
369 0.000241
370 0.000242
371 0.000262
372 0.000282
373 0.000282
374 0.000290
375 0.000301
376 0.000314
377 0.000332
378 0.000331
379 0.000300
380 0.000251
381 0.000235
382 0.000216
383 0.000217
384 0.000224
385 0.000237
386 0.000222
387 0.000227
388 0.000237
389 0.000261
390 0.000292
391 0.000323
392 0.000357
393 0.000383
394 0.000387
395 0.000387
396 0.000402
397 0.000415
398 0.000432
399 0.000455
400 0.000469
401 0.000481
402 0.000516
403 0.000552
404 0.000588
405 0.000639
406 0.000705
407 0.000741
408 0.000787
409 0.000812
410 0.000813
411 0.000816
412 0.000807
413 0.000798
414 0.000771
415 0.000764
416 0.000735
417 0.000672
418 0.000619
419 0.000584
420 0.000539
421 0.000503
422 0.000497
423 0.000492
424 0.000453
425 0.000409
426 0.000389
427 0.000380
428 0.000358
429 0.000329
430 0.000325
431 0.000323
432 0.000317
433 0.000292
434 0.000290
435 0.000289
436 0.000301
437 0.000281
438 0.000266
439 0.000287
440 0.000303
441 0.000340
442 0.000376
443 0.000367
444 0.000375
445 0.000398
446 0.000419
447 0.000427
448 0.000424
449 0.000397
450 0.000359
451 0.000337
452 0.000305
453 0.000260
454 0.000241
455 0.000253
456 0.000252
457 0.000262
458 0.000243
459 0.000238
460 0.000226
461 0.000227
462 0.000226
463 0.000219
464 0.000202
465 0.000198
466 0.000188
467 0.000182
468 0.000164
469 0.000175
470 0.000199
471 0.000205
472 0.000227
473 0.000253
474 0.000280
475 0.000294
476 0.000303
477 0.000311
478 0.000327
479 0.000322
480 0.000316
481 0.000306
482 0.000308
483 0.000306
484 0.000320
485 0.000303
486 0.000274
487 0.000258
488 0.000239
489 0.000247
490 0.000255
491 0.000279
492 0.000292
493 0.000321
494 0.000351
495 0.000379
496 0.000415
497 0.000425
498 0.000448
499 0.000450
500 0.000427
501 0.000424
502 0.000429
503 0.000414
504 0.000421
505 0.000434
506 0.000421
507 0.000402
508 0.000411
509 0.000431
510 0.000454
511 0.000469
512 0.000462
513 0.000455
514 0.000449
515 0.000429
516 0.000425
517 0.000443
518 0.000460
519 0.000465
520 0.000468
521 0.000468
522 0.000483
523 0.000485
524 0.000483
525 0.000463
526 0.000474
527 0.000490
528 0.000474
529 0.000453
530 0.000433
531 0.000383
532 0.000332
533 0.000298
534 0.000241
535 0.000192
536 0.000154
537 0.000122
538 0.000101
539 0.000091
540 0.000082
541 0.000082
542 0.000087
543 0.000101
544 0.000135
545 0.000151
546 0.000167
547 0.000198
548 0.000213
549 0.000220
550 0.000219
551 0.000220
552 0.000222
553 0.000231
554 0.000248
555 0.000262
556 0.000294
557 0.000327
558 0.000351
559 0.000372
560 0.000391
561 0.000371
562 0.000356
563 0.000325
564 0.000300
565 0.000284
566 0.000284
567 0.000269
568 0.000238
569 0.000213
570 0.000207
571 0.000223
572 0.000238
573 0.000236
574 0.000241
575 0.000245
576 0.000256
577 0.000267
578 0.000270
579 0.000270
580 0.000286
581 0.000285
582 0.000273
583 0.000248
584 0.000233
585 0.000199
586 0.000159
587 0.000131
588 0.000091
589 0.000056
590 0.000048
591 0.000047
592 0.000037
593 0.000058
594 0.000071
595 0.000086
596 0.000098
597 0.000128
598 0.000172
599 0.000210
600 0.000215
601 0.000224
602 0.000238
603 0.000246
604 0.000253
605 0.000274
606 0.000299
607 0.000328
608 0.000391
609 0.000449
610 0.000490
611 0.000521
612 0.000534
613 0.000518
614 0.000478
615 0.000441
616 0.000392
617 0.000357
618 0.000314
619 0.000297
620 0.000285
621 0.000274
622 0.000259
623 0.000245
624 0.000240
625 0.000234
626 0.000228
627 0.000232
628 0.000231
629 0.000232
630 0.000237
631 0.000241
632 0.000258
633 0.000262
634 0.000263
635 0.000275
636 0.000258
637 0.000232
638 0.000226
639 0.000210
640 0.000200
641 0.000193
642 0.000209
643 0.000216
644 0.000223
645 0.000225
646 0.000221
647 0.000215
648 0.000243
649 0.000240
650 0.000232
651 0.000228
652 0.000239
653 0.000234
654 0.000210
655 0.000213
656 0.000207
657 0.000200
658 0.000203
659 0.000216
660 0.000237
661 0.000254
662 0.000272
663 0.000275
664 0.000284
665 0.000287
666 0.000260
667 0.000229
668 0.000219
669 0.000188
670 0.000174
671 0.000169
672 0.000159
673 0.000146
674 0.000143
675 0.000122
676 0.000126
677 0.000140
678 0.000126
679 0.000112
680 0.000099
681 0.000073
682 0.000063
683 0.000069
684 0.000058
685 0.000041
686 0.000032
687 0.000028
688 0.000032
689 0.000041
690 0.000049
691 0.000073
692 0.000111
693 0.000134
694 0.000151
695 0.000184
696 0.000204
697 0.000225
698 0.000247
699 0.000255
700 0.000257
701 0.000262
702 0.000253
703 0.000226
704 0.000222
705 0.000237
706 0.000241
707 0.000268
708 0.000303
709 0.000321
710 0.000335
711 0.000332
712 0.000323
713 0.000316
714 0.000311
715 0.000306
716 0.000314
717 0.000322
718 0.000304
719 0.000286
720 0.000288
721 0.000279
722 0.000280
723 0.000296
724 0.000300
725 0.000290
726 0.000286
727 0.000285
728 0.000289
729 0.000286
730 0.000310
731 0.000321
732 0.000326
733 0.000303
734 0.000276
735 0.000263
736 0.000247
737 0.000218
738 0.000205
739 0.000184
740 0.000167
741 0.000159
742 0.000168
743 0.000176
744 0.000192
745 0.000201
746 0.000208
747 0.000220
748 0.000241
749 0.000256
750 0.000268
751 0.000268
752 0.000268
753 0.000271
754 0.000263
755 0.000254
756 0.000253
757 0.000258
758 0.000260
759 0.000272
760 0.000283
761 0.000280
762 0.000291
763 0.000293
764 0.000286
765 0.000273
766 0.000252
767 0.000229
768 0.000211
769 0.000192
770 0.000172
771 0.000144
772 0.000121
773 0.000103
774 0.000087
775 0.000071
776 0.000054
777 0.000043
778 0.000026
779 0.000018
780 0.000019
781 0.000020
782 0.000022
783 0.000025
784 0.000026
785 0.000031
786 0.000013
787 0.000000
788 -0.000010
789 -0.000014
790 -0.000022
791 -0.000038
792 -0.000040
793 -0.000035
794 -0.000036
795 -0.000032
796 -0.000018
797 0.000004
798 0.000025
799 0.000041
800 0.000049
801 0.000053
802 0.000056
803 0.000076
804 0.000098
805 0.000124
806 0.000162
807 0.000184
808 0.000210
809 0.000224
