# i correlation
1 0.003135
2 0.002873
3 0.002631
4 0.002417
5 0.002230
6 0.002084
7 0.001956
8 0.001872
9 0.001815
10 0.001743
11 0.001716
12 0.001680
13 0.001642
14 0.001587
15 0.001542
16 0.001519
17 0.001486
18 0.001423
19 0.001395
20 0.001368
21 0.001334
22 0.001296
23 0.001279
24 0.001251
25 0.001231
26 0.001202
27 0.001167
28 0.001161
29 0.001168
30 0.001123
31 0.001089
32 0.001057
33 0.001036
34 0.001022
35 0.001018
36 0.001046
37 0.001049
38 0.001058
39 0.001051
40 0.001033
41 0.000998
42 0.000973
43 0.000965
44 0.000974
45 0.000983
46 0.000972
47 0.000970
48 0.000955
49 0.000945
50 0.000909
51 0.000860
52 0.000849
53 0.000852
54 0.000854
55 0.000856
56 0.000846
57 0.000860
58 0.000868
59 0.000856
60 0.000851
61 0.000869
62 0.000859
63 0.000851
64 0.000833
65 0.000836
66 0.000809
67 0.000789
68 0.000765
69 0.000740
70 0.000714
71 0.000691
72 0.000711
73 0.000722
74 0.000754
75 0.000785
76 0.000807
77 0.000831
78 0.000842
79 0.000836
80 0.000815
81 0.000812
82 0.000787
83 0.000764
84 0.000753
85 0.000753
86 0.000771
87 0.000761
88 0.000760
89 0.000779
90 0.000809
91 0.000847
92 0.000885
93 0.000912
94 0.000911
95 0.000861
96 0.000827
97 0.000805
98 0.000775
99 0.000737
100 0.000693
101 0.000693
102 0.000698
103 0.000717
104 0.000752
105 0.000768
106 0.000775
107 0.000784
108 0.000791
109 0.000829
110 0.000844
111 0.000843
112 0.000869
113 0.000887
114 0.000870
115 0.000845
116 0.000805
117 0.000763
118 0.000708
119 0.000660
120 0.000591
121 0.000560
122 0.000536
123 0.000538
124 0.000531
125 0.000558
126 0.000580
127 0.000616
128 0.000628
129 0.000644
130 0.000664
131 0.000679
132 0.000682
133 0.000687
134 0.000666
135 0.000653
136 0.000646
137 0.000652
138 0.000666
139 0.000675
140 0.000713
141 0.000723
142 0.000762
143 0.000773
144 0.000767
145 0.000725
146 0.000712
147 0.000687
148 0.000695
149 0.000716
150 0.000715
151 0.000741
152 0.000773
153 0.000807
154 0.000822
155 0.000863
156 0.000876
157 0.000864
158 0.000870
159 0.000892
160 0.000887
161 0.000895
162 0.000887
163 0.000870
164 0.000830
165 0.000761
166 0.000704
167 0.000648
168 0.000613
169 0.000593
170 0.000571
171 0.000578
172 0.000552
173 0.000516
174 0.000476
175 0.000457
176 0.000435
177 0.000427
178 0.000433
179 0.000436
180 0.000464
181 0.000467
182 0.000479
183 0.000469
184 0.000457
185 0.000421
186 0.000405
187 0.000405
188 0.000396
189 0.000414
190 0.000429
191 0.000443
192 0.000452
193 0.000428
194 0.000411
195 0.000387
196 0.000329
197 0.000278
198 0.000249
199 0.000226
200 0.000251
201 0.000269
202 0.000294
203 0.000357
204 0.000398
205 0.000428
206 0.000481
207 0.000512
208 0.000527
209 0.000533
210 0.000499
211 0.000465
212 0.000440
213 0.000421
214 0.000406
215 0.000394
216 0.000404
217 0.000429
218 0.000465
219 0.000488
220 0.000511
221 0.000499
222 0.000462
223 0.000433
224 0.000420
225 0.000413
226 0.000414
227 0.000433
228 0.000452
229 0.000485
230 0.000485
231 0.000487
232 0.000500
233 0.000481
234 0.000494
235 0.000492
236 0.000514
237 0.000514
238 0.000540
239 0.000580
240 0.000610
241 0.000651
242 0.000671
243 0.000676
244 0.000679
245 0.000696
246 0.000709
247 0.000729
248 0.000743
249 0.000743
250 0.000729
251 0.000686
252 0.000673
253 0.000659
254 0.000637
255 0.000615
256 0.000615
257 0.000632
258 0.000619
259 0.000596
260 0.000564
261 0.000553
262 0.000521
263 0.000498
264 0.000482
265 0.000512
266 0.000498
267 0.000530
268 0.000556
269 0.000578
270 0.000612
271 0.000612
272 0.000637
273 0.000679
274 0.000702
275 0.000692
276 0.000681
277 0.000648
278 0.000631
279 0.000579
280 0.000542
281 0.000519
282 0.000491
283 0.000465
284 0.000471
285 0.000469
286 0.000484
287 0.000493
288 0.000494
289 0.000486
290 0.000454
291 0.000419
292 0.000408
293 0.000412
294 0.000437
295 0.000476
296 0.000529
297 0.000568
298 0.000589
299 0.000613
300 0.000600
301 0.000604
302 0.000588
303 0.000555
304 0.000535
305 0.000515
306 0.000482
307 0.000449
308 0.000416
309 0.000374
310 0.000360
311 0.000359
312 0.000358
313 0.000395
314 0.000423
315 0.000456
316 0.000492
317 0.000548
318 0.000572
319 0.000590
320 0.000598
321 0.000609
322 0.000647
323 0.000669
324 0.000669
325 0.000652
326 0.000637
327 0.000597
328 0.000540
329 0.000470
330 0.000421
331 0.000391
332 0.000372
333 0.000386
334 0.000395
335 0.000411
336 0.000410
337 0.000415
338 0.000421
339 0.000413
340 0.000382
341 0.000349
342 0.000319
343 0.000279
344 0.000223
345 0.000174
346 0.000138
347 0.000105
348 0.000066
349 0.000030
350 0.000007
351 0.000023
352 -0.000015
353 -0.000015
354 -0.000024
355 -0.000004
356 -0.000001
357 -0.000015
358 -0.000029
359 -0.000029
360 -0.000026
361 -0.000020
362 0.000008
363 0.000033
364 0.000063
365 0.000064
366 0.000065
367 0.000037
368 -0.000010
369 -0.000028
370 -0.000041
371 -0.000033
372 -0.000019
373 -0.000021
374 -0.000003
375 0.000017
376 0.000049
377 0.000068
378 0.000117
379 0.000145
380 0.000176
381 0.000201
382 0.000210
383 0.000198
384 0.000194
385 0.000200
386 0.000194
387 0.000193
388 0.000216
389 0.000221
390 0.000224
391 0.000209
392 0.000169
393 0.000135
394 0.000105
395 0.000110
396 0.000111
397 0.000115
398 0.000151
399 0.000155
400 0.000172
401 0.000185
402 0.000176
403 0.000164
404 0.000149
405 0.000151
406 0.000123
407 0.000117
408 0.000116
409 0.000119
410 0.000136
411 0.000166
412 0.000183
413 0.000206
414 0.000242
415 0.000239
416 0.000229
417 0.000194
418 0.000179
419 0.000154
420 0.000147
421 0.000128
422 0.000106
423 0.000081
424 0.000058
425 0.000045
426 0.000056
427 0.000065
428 0.000068
429 0.000087
430 0.000098
431 0.000109
432 0.000109
433 0.000107
434 0.000100
435 0.000093
436 0.000092
437 0.000089
438 0.000070
439 0.000054
440 0.000045
441 0.000018
442 -0.000009
443 -0.000018
444 -0.000026
445 -0.000048
446 -0.000070
447 -0.000084
448 -0.000059
449 -0.000039
450 -0.000024
451 -0.000007
452 0.000004
453 0.000016
454 0.000007
455 -0.000008
456 -0.000021
457 -0.000025
458 -0.000039
459 -0.000028
460 0.000007
461 -0.000021
462 -0.000071
463 -0.000104
464 -0.000114
465 -0.000106
466 -0.000103
467 -0.000082
468 -0.000058
469 -0.000051
470 -0.000056
471 -0.000076
472 -0.000089
473 -0.000097
474 -0.000102
475 -0.000115
476 -0.000079
477 -0.000051
478 -0.000038
479 -0.000005
480 0.000004
481 0.000016
482 0.000033
483 0.000030
484 0.000028
485 0.000020
486 0.000014
487 0.000025
488 0.000057
489 0.000104
490 0.000128
491 0.000153
492 0.000159
493 0.000173
494 0.000167
495 0.000152
496 0.000127
497 0.000120
498 0.000080
499 0.000053
500 0.000016
501 -0.000013
502 -0.000032
503 -0.000045
504 -0.000032
505 0.000003
506 0.000025
507 0.000038
508 0.000038
509 0.000017
510 -0.000015
511 -0.000050
512 -0.000058
513 -0.000060
514 -0.000047
515 -0.000039
516 -0.000041
517 -0.000021
518 0.000006
519 0.000014
520 0.000008
521 0.000005
522 0.000009
523 0.000016
524 0.000027
525 0.000044
526 0.000068
527 0.000082
528 0.000083
529 0.000078
530 0.000081
531 0.000076
532 0.000068
533 0.000076
534 0.000088
535 0.000106
536 0.000097
537 0.000098
538 0.000087
539 0.000076
540 0.000085
541 0.000117
542 0.000148
543 0.000183
544 0.000217
545 0.000235
546 0.000261
547 0.000280
548 0.000277
549 0.000275
550 0.000260
551 0.000242
552 0.000222
553 0.000209
554 0.000203
555 0.000182
556 0.000169
557 0.000148
558 0.000159
559 0.000156
560 0.000153
561 0.000136
562 0.000127
563 0.000114
564 0.000098
565 0.000087
566 0.000073
567 0.000057
568 0.000028
569 0.000035
570 0.000041
571 0.000056
572 0.000049
573 0.000048
574 0.000020
575 -0.000012
576 -0.000047
577 -0.000093
578 -0.000128
579 -0.000159
580 -0.000175
581 -0.000186
582 -0.000172
583 -0.000161
584 -0.000138
585 -0.000127
586 -0.000132
587 -0.000151
588 -0.000173
589 -0.000199
590 -0.000213
591 -0.000213
592 -0.000199
593 -0.000204
594 -0.000203
595 -0.000188
596 -0.000170
597 -0.000153
598 -0.000129
599 -0.000114
600 -0.000116
601 -0.000126
602 -0.000130
603 -0.000120
604 -0.000113
605 -0.000117
606 -0.000148
607 -0.000179
608 -0.000188
609 -0.000191
610 -0.000206
611 -0.000220
612 -0.000223
613 -0.000231
614 -0.000236
615 -0.000234
616 -0.000216
617 -0.000214
618 -0.000218
619 -0.000206
620 -0.000179
621 -0.000162
622 -0.000178
623 -0.000208
624 -0.000225
625 -0.000249
626 -0.000267
627 -0.000273
628 -0.000278
629 -0.000282
630 -0.000300
631 -0.000310
632 -0.000308
633 -0.000311
634 -0.000311
635 -0.000323
636 -0.000357
637 -0.000374
638 -0.000382
639 -0.000372
640 -0.000364
641 -0.000361
642 -0.000352
643 -0.000327
644 -0.000326
645 -0.000301
646 -0.000278
647 -0.000260
648 -0.000254
649 -0.000252
650 -0.000243
651 -0.000238
652 -0.000227
653 -0.000228
654 -0.000216
655 -0.000196
656 -0.000165
657 -0.000143
658 -0.000114
659 -0.000096
660 -0.000072
661 -0.000054
662 -0.000051
663 -0.000058
664 -0.000061
665 -0.000079
666 -0.000104
667 -0.000150
668 -0.000183
669 -0.000229
670 -0.000253
671 -0.000275
672 -0.000300
673 -0.000310
674 -0.000310
675 -0.000310
676 -0.000303
677 -0.000277
678 -0.000252
679 -0.000238
680 -0.000235
681 -0.000237
682 -0.000235
683 -0.000237
684 -0.000249
685 -0.000250
686 -0.000251
687 -0.000231
688 -0.000220
689 -0.000197
690 -0.000195
691 -0.000215
692 -0.000227
693 -0.000239
694 -0.000240
695 -0.000236
696 -0.000216
697 -0.000212
698 -0.000206
699 -0.000209
700 -0.000201
701 -0.000186
702 -0.000180
703 -0.000182
704 -0.000179
705 -0.000184
706 -0.000183
707 -0.000173
708 -0.000169
709 -0.000161
710 -0.000163
711 -0.000163
712 -0.000175
713 -0.000167
714 -0.000166
715 -0.000173
716 -0.000200
717 -0.000216
718 -0.000218
719 -0.000234
720 -0.000244
721 -0.000240
722 -0.000238
723 -0.000246
724 -0.000235
725 -0.000226
726 -0.000217
727 -0.000206
728 -0.000216
729 -0.000230
730 -0.000248
731 -0.000263
732 -0.000267
733 -0.000263
734 -0.000243
735 -0.000229
736 -0.000210
737 -0.000190
738 -0.000164
739 -0.000136
740 -0.000125
741 -0.000113
742 -0.000121
743 -0.000118
744 -0.000121
745 -0.000128
746 -0.000135
747 -0.000122
748 -0.000106
749 -0.000098
750 -0.000090
751 -0.000083
752 -0.000068
753 -0.000047
754 -0.000032
755 -0.000022
756 -0.000016
757 -0.000015
758 -0.000020
759 -0.000020
760 -0.000020
761 -0.000007
762 0.000015
763 0.000021
764 0.000040
765 0.000051
766 0.000053
767 0.000051
768 0.000053
769 0.000051
770 0.000043
771 0.000034
772 0.000018
773 0.000007
774 0.000004
775 0.000011
776 0.000018
777 0.000023
778 0.000024
779 0.000039
780 0.000033
781 0.000027
782 0.000028
783 0.000031
784 0.000011
785 -0.000001
786 -0.000003
787 0.000004
788 0.000003
789 -0.000000
790 0.000002
791 0.000013
792 0.000030
793 0.000038
794 0.000043
795 0.000039
796 0.000033
797 0.000022
798 0.000015
799 0.000020
800 0.000022
801 0.000029
802 0.000041
803 0.000051
804 0.000064
805 0.000073
806 0.000097
807 0.000118
808 0.000139
809 0.000143
