# i correlation
1 0.003507
2 0.003199
3 0.002956
4 0.002735
5 0.002541
6 0.002383
7 0.002248
8 0.002160
9 0.002086
10 0.002011
11 0.001944
12 0.001916
13 0.001915
14 0.001897
15 0.001901
16 0.001901
17 0.001897
18 0.001862
19 0.001853
20 0.001850
21 0.001862
22 0.001875
23 0.001874
24 0.001895
25 0.001899
26 0.001888
27 0.001866
28 0.001864
29 0.001856
30 0.001874
31 0.001825
32 0.001798
33 0.001798
34 0.001779
35 0.001811
36 0.001854
37 0.001855
38 0.001878
39 0.001885
40 0.001869
41 0.001824
42 0.001770
43 0.001756
44 0.001706
45 0.001665
46 0.001615
47 0.001580
48 0.001550
49 0.001509
50 0.001445
51 0.001411
52 0.001378
53 0.001369
54 0.001388
55 0.001410
56 0.001441
57 0.001461
58 0.001488
59 0.001495
60 0.001515
61 0.001516
62 0.001508
63 0.001538
64 0.001547
65 0.001550
66 0.001542
67 0.001499
68 0.001483
69 0.001487
70 0.001476
71 0.001491
72 0.001518
73 0.001592
74 0.001635
75 0.001670
76 0.001697
77 0.001722
78 0.001735
79 0.001713
80 0.001663
81 0.001598
82 0.001567
83 0.001525
84 0.001473
85 0.001458
86 0.001424
87 0.001405
88 0.001372
89 0.001356
90 0.001365
91 0.001381
92 0.001372
93 0.001373
94 0.001377
95 0.001398
96 0.001416
97 0.001427
98 0.001463
99 0.001503
100 0.001519
101 0.001536
102 0.001545
103 0.001558
104 0.001573
105 0.001535
106 0.001520
107 0.001518
108 0.001480
109 0.001455
110 0.001414
111 0.001412
112 0.001406
113 0.001406
114 0.001408
115 0.001438
116 0.001474
117 0.001499
118 0.001480
119 0.001458
120 0.001447
121 0.001411
122 0.001347
123 0.001317
124 0.001262
125 0.001206
126 0.001147
127 0.001084
128 0.001031
129 0.001034
130 0.001075
131 0.001121
132 0.001113
133 0.001104
134 0.001082
135 0.001099
136 0.001116
137 0.001105
138 0.001124
139 0.001160
140 0.001200
141 0.001248
142 0.001278
143 0.001278
144 0.001264
145 0.001267
146 0.001263
147 0.001267
148 0.001241
149 0.001201
150 0.001181
151 0.001215
152 0.001208
153 0.001213
154 0.001231
155 0.001256
156 0.001266
157 0.001239
158 0.001214
159 0.001189
160 0.001167
161 0.001116
162 0.001086
163 0.001086
164 0.001087
165 0.001063
166 0.001027
167 0.000999
168 0.001003
169 0.000986
170 0.000964
171 0.000975
172 0.000991
173 0.001005
174 0.000995
175 0.000991
176 0.000976
177 0.001003
178 0.001036
179 0.001044
180 0.001065
181 0.001101
182 0.001114
183 0.001087
184 0.001096
185 0.001068
186 0.001069
187 0.001049
188 0.001030
189 0.001030
190 0.001059
191 0.001031
192 0.000995
193 0.000965
194 0.000960
195 0.000977
196 0.000982
197 0.000954
198 0.000933
199 0.000939
200 0.000891
201 0.000840
202 0.000819
203 0.000806
204 0.000761
205 0.000739
206 0.000709
207 0.000690
208 0.000699
209 0.000707
210 0.000722
211 0.000770
212 0.000811
213 0.000804
214 0.000821
215 0.000830
216 0.000826
217 0.000801
218 0.000802
219 0.000765
220 0.000786
221 0.000782
222 0.000754
223 0.000740
224 0.000749
225 0.000743
226 0.000756
227 0.000789
228 0.000794
229 0.000799
230 0.000788
231 0.000819
232 0.000837
233 0.000846
234 0.000855
235 0.000841
236 0.000821
237 0.000814
238 0.000823
239 0.000830
240 0.000840
241 0.000837
242 0.000832
243 0.000785
244 0.000741
245 0.000677
246 0.000633
247 0.000586
248 0.000558
249 0.000513
250 0.000487
251 0.000500
252 0.000477
253 0.000492
254 0.000523
255 0.000534
256 0.000555
257 0.000567
258 0.000574
259 0.000590
260 0.000580
261 0.000572
262 0.000573
263 0.000563
264 0.000565
265 0.000544
266 0.000568
267 0.000587
268 0.000588
269 0.000586
270 0.000605
271 0.000632
272 0.000683
273 0.000700
274 0.000708
275 0.000695
276 0.000681
277 0.000660
278 0.000629
279 0.000616
280 0.000585
281 0.000584
282 0.000535
283 0.000500
284 0.000491
285 0.000468
286 0.000463
287 0.000468
288 0.000499
289 0.000549
290 0.000571
291 0.000591
292 0.000588
293 0.000574
294 0.000572
295 0.000571
296 0.000583
297 0.000584
298 0.000609
299 0.000618
300 0.000575
301 0.000525
302 0.000502
303 0.000487
304 0.000476
305 0.000451
306 0.000423
307 0.000410
308 0.000379
309 0.000379
310 0.000376
311 0.000365
312 0.000351
313 0.000327
314 0.000323
315 0.000319
316 0.000306
317 0.000312
318 0.000294
319 0.000323
320 0.000310
321 0.000294
322 0.000270
323 0.000195
324 0.000147
325 0.000124
326 0.000099
327 0.000100
328 0.000117
329 0.000142
330 0.000171
331 0.000223
332 0.000265
333 0.000292
334 0.000306
335 0.000320
336 0.000305
337 0.000278
338 0.000252
339 0.000200
340 0.000154
341 0.000135
342 0.000115
343 0.000104
344 0.000151
345 0.000183
346 0.000173
347 0.000182
348 0.000175
349 0.000178
350 0.000177
351 0.000149
352 0.000131
353 0.000117
354 0.000121
355 0.000144
356 0.000125
357 0.000138
358 0.000156
359 0.000163
360 0.000129
361 0.000058
362 0.000016
363 0.000007
364 -0.000009
365 -0.000017
366 -0.000026
367 -0.000032
368 -0.000020
369 -0.000028
370 -0.000027
371 0.000000
372 0.000019
373 0.000030
374 0.000040
375 0.000049
376 0.000048
377 0.000035
378 0.000034
379 0.000048
380 0.000053
381 0.000036
382 0.000015
383 0.000021
384 0.000026
385 0.000043
386 0.000031
387 0.000044
388 0.000061
389 0.000065
390 0.000055
391 0.000041
392 0.000059
393 0.000123
394 0.000163
395 0.000193
396 0.000200
397 0.000195
398 0.000181
399 0.000135
400 0.000086
401 0.000040
402 0.000012
403 -0.000019
404 -0.000012
405 0.000001
406 0.000012
407 0.000035
408 0.000057
409 0.000057
410 0.000085
411 0.000114
412 0.000123
413 0.000148
414 0.000156
415 0.000158
416 0.000126
417 0.000113
418 0.000108
419 0.000133
420 0.000134
421 0.000131
422 0.000146
423 0.000201
424 0.000219
425 0.000191
426 0.000189
427 0.000182
428 0.000196
429 0.000238
430 0.000291
431 0.000305
432 0.000347
433 0.000356
434 0.000356
435 0.000368
436 0.000383
437 0.000389
438 0.000380
439 0.000360
440 0.000339
441 0.000304
442 0.000293
443 0.000300
444 0.000308
445 0.000315
446 0.000306
447 0.000303
448 0.000309
449 0.000318
450 0.000337
451 0.000372
452 0.000416
453 0.000453
454 0.000475
455 0.000447
456 0.000441
457 0.000421
458 0.000425
459 0.000431
460 0.000430
461 0.000439
462 0.000460
463 0.000462
464 0.000448
465 0.000434
466 0.000444
467 0.000470
468 0.000503
469 0.000520
470 0.000519
471 0.000515
472 0.000504
473 0.000491
474 0.000455
475 0.000446
476 0.000432
477 0.000405
478 0.000387
479 0.000361
480 0.000347
481 0.000303
482 0.000285
483 0.000267
484 0.000283
485 0.000297
486 0.000298
487 0.000287
488 0.000306
489 0.000312
490 0.000313
491 0.000303
492 0.000277
493 0.000267
494 0.000284
495 0.000296
496 0.000315
497 0.000321
498 0.000318
499 0.000328
500 0.000332
501 0.000343
502 0.000358
503 0.000375
504 0.000387
505 0.000400
506 0.000397
507 0.000372
508 0.000365
509 0.000374
510 0.000372
511 0.000361
512 0.000358
513 0.000358
514 0.000373
515 0.000380
516 0.000388
517 0.000392
518 0.000410
519 0.000418
520 0.000412
521 0.000387
522 0.000362
523 0.000343
524 0.000323
525 0.000321
526 0.000359
527 0.000398
528 0.000404
529 0.000414
530 0.000454
531 0.000494
532 0.000502
533 0.000508
534 0.000524
535 0.000538
536 0.000549
537 0.000558
538 0.000550
539 0.000554
540 0.000533
541 0.000506
542 0.000495
543 0.000513
544 0.000514
545 0.000507
546 0.000491
547 0.000493
548 0.000468
549 0.000466
550 0.000465
551 0.000437
552 0.000411
553 0.000399
554 0.000360
555 0.000328
556 0.000302
557 0.000281
558 0.000289
559 0.000292
560 0.000305
561 0.000323
562 0.000360
563 0.000391
564 0.000399
565 0.000433
566 0.000458
567 0.000472
568 0.000475
569 0.000482
570 0.000490
571 0.000500
572 0.000483
573 0.000457
574 0.000433
575 0.000451
576 0.000442
577 0.000421
578 0.000409
579 0.000397
580 0.000371
581 0.000326
582 0.000305
583 0.000330
584 0.000338
585 0.000350
586 0.000381
587 0.000409
588 0.000429
589 0.000431
590 0.000414
591 0.000411
592 0.000406
593 0.000389
594 0.000381
595 0.000373
596 0.000358
597 0.000337
598 0.000323
599 0.000298
600 0.000278
601 0.000277
602 0.000258
603 0.000265
604 0.000267
605 0.000293
606 0.000304
607 0.000340
608 0.000387
609 0.000417
610 0.000444
611 0.000455
612 0.000456
613 0.000467
614 0.000474
615 0.000482
616 0.000487
617 0.000470
618 0.000460
619 0.000461
620 0.000462
621 0.000445
622 0.000436
623 0.000420
624 0.000416
625 0.000428
626 0.000456
627 0.000472
628 0.000477
629 0.000500
630 0.000501
631 0.000497
632 0.000488
633 0.000474
634 0.000474
635 0.000480
636 0.000464
637 0.000443
638 0.000411
639 0.000391
640 0.000382
641 0.000383
642 0.000384
643 0.000391
644 0.000392
645 0.000391
646 0.000390
647 0.000387
648 0.000394
649 0.000412
650 0.000433
651 0.000437
652 0.000436
653 0.000429
654 0.000430
655 0.000411
656 0.000404
657 0.000396
658 0.000382
659 0.000375
660 0.000345
661 0.000334
662 0.000334
663 0.000341
664 0.000348
665 0.000342
666 0.000348
667 0.000349
668 0.000347
669 0.000343
670 0.000340
671 0.000321
672 0.000307
673 0.000278
674 0.000270
675 0.000248
676 0.000223
677 0.000202
678 0.000207
679 0.000208
680 0.000204
681 0.000197
682 0.000197
683 0.000202
684 0.000208
685 0.000217
686 0.000237
687 0.000257
688 0.000272
689 0.000283
690 0.000302
691 0.000322
692 0.000344
693 0.000371
694 0.000389
695 0.000390
696 0.000385
697 0.000365
698 0.000348
699 0.000323
700 0.000311
701 0.000279
702 0.000271
703 0.000274
704 0.000289
705 0.000297
706 0.000294
707 0.000311
708 0.000333
709 0.000347
710 0.000353
711 0.000366
712 0.000363
713 0.000353
714 0.000350
715 0.000347
716 0.000339
717 0.000341
718 0.000337
719 0.000328
720 0.000318
721 0.000316
722 0.000320
723 0.000332
724 0.000337
725 0.000354
726 0.000379
727 0.000421
728 0.000449
729 0.000476
730 0.000503
731 0.000521
732 0.000541
733 0.000553
734 0.000563
735 0.000553
736 0.000535
737 0.000503
738 0.000483
739 0.000463
740 0.000439
741 0.000414
742 0.000399
743 0.000391
744 0.000388
745 0.000378
746 0.000368
747 0.000355
748 0.000350
749 0.000350
750 0.000354
751 0.000369
752 0.000390
753 0.000409
754 0.000412
755 0.000404
756 0.000390
757 0.000395
758 0.000400
759 0.000398
760 0.000379
761 0.000366
762 0.000341
763 0.000320
764 0.000295
765 0.000292
766 0.000286
767 0.000286
768 0.000291
769 0.000295
770 0.000321
771 0.000342
772 0.000350
773 0.000366
774 0.000375
775 0.000375
776 0.000368
777 0.000348
778 0.000344
779 0.000319
780 0.000283
781 0.000256
782 0.000229
783 0.000195
784 0.000165
785 0.000141
786 0.000121
787 0.000108
788 0.000099
789 0.000096
790 0.000098
791 0.000081
792 0.000079
793 0.000085
794 0.000095
795 0.000100
796 0.000089
797 0.000087
798 0.000096
799 0.000101
800 0.000110
801 0.000123
802 0.000129
803 0.000139
804 0.000159
805 0.000168
806 0.000174
807 0.000188
808 0.000187
809 0.000191
