# i correlation
1 0.003741
2 0.003461
3 0.003234
4 0.003055
5 0.002878
6 0.002712
7 0.002600
8 0.002570
9 0.002506
10 0.002427
11 0.002367
12 0.002326
13 0.002261
14 0.002143
15 0.002060
16 0.002016
17 0.001982
18 0.001923
19 0.001857
20 0.001828
21 0.001831
22 0.001814
23 0.001776
24 0.001771
25 0.001780
26 0.001819
27 0.001824
28 0.001835
29 0.001838
30 0.001835
31 0.001795
32 0.001755
33 0.001698
34 0.001668
35 0.001639
36 0.001606
37 0.001569
38 0.001513
39 0.001486
40 0.001488
41 0.001465
42 0.001453
43 0.001424
44 0.001417
45 0.001417
46 0.001405
47 0.001420
48 0.001415
49 0.001397
50 0.001395
51 0.001336
52 0.001335
53 0.001323
54 0.001335
55 0.001348
56 0.001390
57 0.001398
58 0.001412
59 0.001397
60 0.001398
61 0.001385
62 0.001369
63 0.001338
64 0.001315
65 0.001309
66 0.001323
67 0.001324
68 0.001298
69 0.001274
70 0.001262
71 0.001255
72 0.001254
73 0.001258
74 0.001260
75 0.001250
76 0.001241
77 0.001222
78 0.001188
79 0.001181
80 0.001168
81 0.001166
82 0.001180
83 0.001156
84 0.001155
85 0.001131
86 0.001121
87 0.001105
88 0.001103
89 0.001085
90 0.001077
91 0.001083
92 0.001099
93 0.001146
94 0.001200
95 0.001244
96 0.001284
97 0.001320
98 0.001303
99 0.001308
100 0.001288
101 0.001274
102 0.001298
103 0.001306
104 0.001335
105 0.001368
106 0.001398
107 0.001415
108 0.001444
109 0.001455
110 0.001488
111 0.001507
112 0.001550
113 0.001557
114 0.001579
115 0.001587
116 0.001597
117 0.001612
118 0.001623
119 0.001623
120 0.001604
121 0.001610
122 0.001632
123 0.001627
124 0.001594
125 0.001571
126 0.001565
127 0.001545
128 0.001542
129 0.001544
130 0.001532
131 0.001529
132 0.001516
133 0.001518
134 0.001521
135 0.001489
136 0.001460
137 0.001433
138 0.001429
139 0.001406
140 0.001375
141 0.001344
142 0.001338
143 0.001327
144 0.001319
145 0.001284
146 0.001254
147 0.001245
148 0.001231
149 0.001235
150 0.001274
151 0.001305
152 0.001322
153 0.001304
154 0.001302
155 0.001281
156 0.001273
157 0.001258
158 0.001256
159 0.001297
160 0.001349
161 0.001389
162 0.001393
163 0.001408
164 0.001440
165 0.001433
166 0.001427
167 0.001446
168 0.001478
169 0.001478
170 0.001486
171 0.001463
172 0.001471
173 0.001473
174 0.001438
175 0.001410
176 0.001434
177 0.001434
178 0.001456
179 0.001479
180 0.001482
181 0.001461
182 0.001420
183 0.001367
184 0.001321
185 0.001274
186 0.001221
187 0.001191
188 0.001152
189 0.001121
190 0.001103
191 0.001084
192 0.001084
193 0.001076
194 0.001074
195 0.001042
196 0.001022
197 0.000991
198 0.000995
199 0.000982
200 0.000947
201 0.000920
202 0.000888
203 0.000874
204 0.000906
205 0.000929
206 0.000953
207 0.000974
208 0.001022
209 0.001079
210 0.001110
211 0.001128
212 0.001159
213 0.001147
214 0.001136
215 0.001124
216 0.001119
217 0.001134
218 0.001103
219 0.001070
220 0.001093
221 0.001113
222 0.001120
223 0.001129
224 0.001173
225 0.001240
226 0.001302
227 0.001339
228 0.001360
229 0.001353
230 0.001334
231 0.001320
232 0.001300
233 0.001301
234 0.001313
235 0.001315
236 0.001323
237 0.001325
238 0.001343
239 0.001349
240 0.001362
241 0.001373
242 0.001369
243 0.001356
244 0.001351
245 0.001341
246 0.001322
247 0.001301
248 0.001296
249 0.001275
250 0.001241
251 0.001182
252 0.001143
253 0.001151
254 0.001168
255 0.001167
256 0.001197
257 0.001225
258 0.001234
259 0.001224
260 0.001209
261 0.001213
262 0.001206
263 0.001167
264 0.001147
265 0.001138
266 0.001135
267 0.001130
268 0.001129
269 0.001130
270 0.001148
271 0.001145
272 0.001130
273 0.001138
274 0.001138
275 0.001163
276 0.001166
277 0.001176
278 0.001210
279 0.001225
280 0.001230
281 0.001252
282 0.001280
283 0.001304
284 0.001319
285 0.001322
286 0.001335
287 0.001351
288 0.001343
289 0.001360
290 0.001391
291 0.001435
292 0.001459
293 0.001455
294 0.001456
295 0.001409
296 0.001362
297 0.001303
298 0.001287
299 0.001262
300 0.001245
301 0.001242
302 0.001235
303 0.001227
304 0.001204
305 0.001171
306 0.001154
307 0.001123
308 0.001063
309 0.001003
310 0.000976
311 0.000961
312 0.000931
313 0.000893
314 0.000842
315 0.000809
316 0.000783
317 0.000756
318 0.000751
319 0.000745
320 0.000755
321 0.000758
322 0.000770
323 0.000781
324 0.000773
325 0.000741
326 0.000695
327 0.000676
328 0.000676
329 0.000663
330 0.000675
331 0.000687
332 0.000705
333 0.000718
334 0.000721
335 0.000706
336 0.000680
337 0.000679
338 0.000680
339 0.000702
340 0.000737
341 0.000766
342 0.000787
343 0.000813
344 0.000812
345 0.000780
346 0.000774
347 0.000771
348 0.000787
349 0.000814
350 0.000842
351 0.000839
352 0.000854
353 0.000867
354 0.000877
355 0.000858
356 0.000843
357 0.000826
358 0.000837
359 0.000852
360 0.000873
361 0.000886
362 0.000897
363 0.000887
364 0.000893
365 0.000911
366 0.000931
367 0.000943
368 0.000953
369 0.000970
370 0.000973
371 0.000990
372 0.001006
373 0.000976
374 0.000964
375 0.000944
376 0.000930
377 0.000909
378 0.000903
379 0.000875
380 0.000881
381 0.000861
382 0.000847
383 0.000818
384 0.000805
385 0.000805
386 0.000801
387 0.000804
388 0.000811
389 0.000813
390 0.000808
391 0.000801
392 0.000780
393 0.000779
394 0.000763
395 0.000757
396 0.000762
397 0.000793
398 0.000824
399 0.000843
400 0.000866
401 0.000870
402 0.000863
403 0.000863
404 0.000882
405 0.000876
406 0.000917
407 0.000944
408 0.000972
409 0.000965
410 0.000962
411 0.000946
412 0.000932
413 0.000890
414 0.000883
415 0.000895
416 0.000886
417 0.000849
418 0.000827
419 0.000799
420 0.000795
421 0.000806
422 0.000805
423 0.000816
424 0.000821
425 0.000833
426 0.000827
427 0.000812
428 0.000785
429 0.000742
430 0.000703
431 0.000660
432 0.000663
433 0.000646
434 0.000649
435 0.000637
436 0.000633
437 0.000636
438 0.000645
439 0.000641
440 0.000638
441 0.000627
442 0.000615
443 0.000606
444 0.000600
445 0.000588
446 0.000582
447 0.000570
448 0.000559
449 0.000555
450 0.000560
451 0.000582
452 0.000604
453 0.000639
454 0.000669
455 0.000695
456 0.000701
457 0.000705
458 0.000699
459 0.000668
460 0.000636
461 0.000621
462 0.000633
463 0.000626
464 0.000632
465 0.000648
466 0.000665
467 0.000667
468 0.000648
469 0.000605
470 0.000587
471 0.000571
472 0.000549
473 0.000547
474 0.000561
475 0.000566
476 0.000554
477 0.000542
478 0.000519
479 0.000519
480 0.000511
481 0.000490
482 0.000499
483 0.000502
484 0.000508
485 0.000493
486 0.000486
487 0.000467
488 0.000444
489 0.000401
490 0.000369
491 0.000353
492 0.000336
493 0.000324
494 0.000322
495 0.000321
496 0.000317
497 0.000326
498 0.000335
499 0.000348
500 0.000367
501 0.000374
502 0.000390
503 0.000440
504 0.000479
505 0.000500
506 0.000508
507 0.000516
508 0.000513
509 0.000524
510 0.000536
511 0.000551
512 0.000567
513 0.000567
514 0.000571
515 0.000554
516 0.000543
517 0.000521
518 0.000508
519 0.000486
520 0.000492
521 0.000491
522 0.000497
523 0.000486
524 0.000468
525 0.000456
526 0.000452
527 0.000445
528 0.000445
529 0.000447
530 0.000445
531 0.000440
532 0.000451
533 0.000489
534 0.000546
535 0.000584
536 0.000603
537 0.000621
538 0.000632
539 0.000641
540 0.000647
541 0.000638
542 0.000626
543 0.000617
544 0.000604
545 0.000589
546 0.000577
547 0.000575
548 0.000570
549 0.000555
550 0.000542
551 0.000525
552 0.000516
553 0.000474
554 0.000432
555 0.000392
556 0.000379
557 0.000365
558 0.000354
559 0.000352
560 0.000370
561 0.000381
562 0.000361
563 0.000341
564 0.000335
565 0.000321
566 0.000307
567 0.000285
568 0.000288
569 0.000289
570 0.000294
571 0.000279
572 0.000276
573 0.000271
574 0.000284
575 0.000296
576 0.000337
577 0.000355
578 0.000362
579 0.000378
580 0.000399
581 0.000413
582 0.000413
583 0.000395
584 0.000405
585 0.000425
586 0.000420
587 0.000422
588 0.000422
589 0.000405
590 0.000374
591 0.000361
592 0.000356
593 0.000350
594 0.000348
595 0.000326
596 0.000321
597 0.000330
598 0.000324
599 0.000304
600 0.000301
601 0.000290
602 0.000301
603 0.000294
604 0.000280
605 0.000264
606 0.000253
607 0.000228
608 0.000223
609 0.000228
610 0.000235
611 0.000236
612 0.000238
613 0.000233
614 0.000241
615 0.000241
616 0.000254
617 0.000256
618 0.000259
619 0.000266
620 0.000264
621 0.000262
622 0.000265
623 0.000232
624 0.000235
625 0.000233
626 0.000241
627 0.000222
628 0.000195
629 0.000173
630 0.000176
631 0.000193
632 0.000212
633 0.000233
634 0.000263
635 0.000286
636 0.000293
637 0.000288
638 0.000274
639 0.000253
640 0.000249
641 0.000234
642 0.000220
643 0.000217
644 0.000223
645 0.000222
646 0.000222
647 0.000233
648 0.000252
649 0.000247
650 0.000229
651 0.000229
652 0.000237
653 0.000241
654 0.000243
655 0.000233
656 0.000271
657 0.000277
658 0.000269
659 0.000252
660 0.000239
661 0.000248
662 0.000251
663 0.000247
664 0.000274
665 0.000299
666 0.000321
667 0.000325
668 0.000335
669 0.000342
670 0.000320
671 0.000320
672 0.000331
673 0.000332
674 0.000343
675 0.000327
676 0.000332
677 0.000327
678 0.000324
679 0.000312
680 0.000293
681 0.000287
682 0.000313
683 0.000317
684 0.000315
685 0.000302
686 0.000284
687 0.000273
688 0.000264
689 0.000247
690 0.000242
691 0.000248
692 0.000261
693 0.000287
694 0.000292
695 0.000282
696 0.000270
697 0.000254
698 0.000242
699 0.000223
700 0.000200
701 0.000196
702 0.000190
703 0.000203
704 0.000207
705 0.000197
706 0.000199
707 0.000191
708 0.000198
709 0.000197
710 0.000183
711 0.000171
712 0.000164
713 0.000175
714 0.000192
715 0.000201
716 0.000209
717 0.000193
718 0.000182
719 0.000180
720 0.000155
721 0.000148
722 0.000128
723 0.000104
724 0.000092
725 0.000070
726 0.000054
727 0.000037
728 0.000022
729 0.000005
730 -0.000003
731 -0.000023
732 -0.000026
733 -0.000038
734 -0.000043
735 -0.000046
736 -0.000049
737 -0.000048
738 -0.000031
739 -0.000030
740 -0.000025
741 -0.000034
742 -0.000068
743 -0.000087
744 -0.000102
745 -0.000115
746 -0.000137
747 -0.000158
748 -0.000155
749 -0.000153
750 -0.000148
751 -0.000161
752 -0.000186
753 -0.000198
754 -0.000228
755 -0.000239
756 -0.000251
757 -0.000275
758 -0.000287
759 -0.000289
760 -0.000284
761 -0.000275
762 -0.000278
763 -0.000286
764 -0.000278
765 -0.000278
766 -0.000278
767 -0.000293
768 -0.000288
769 -0.000272
770 -0.000254
771 -0.000261
772 -0.000260
773 -0.000249
774 -0.000239
775 -0.000236
776 -0.000235
777 -0.000231
778 -0.000221
779 -0.000235
780 -0.000246
781 -0.000248
782 -0.000242
783 -0.000248
784 -0.000248
785 -0.000238
786 -0.000214
787 -0.000206
788 -0.000211
789 -0.000224
790 -0.000218
791 -0.000210
792 -0.000211
793 -0.000217
794 -0.000217
795 -0.000201
796 -0.000181
797 -0.000171
798 -0.000160
799 -0.000147
800 -0.000134
801 -0.000121
802 -0.000123
803 -0.000118
804 -0.000104
805 -0.000085
806 -0.000074
807 -0.000062
808 -0.000052
809 -0.000040
