# i correlation
1 0.004367
2 0.004093
3 0.003869
4 0.003689
5 0.003530
6 0.003351
7 0.003236
8 0.003127
9 0.003018
10 0.002918
11 0.002816
12 0.002752
13 0.002704
14 0.002612
15 0.002551
16 0.002497
17 0.002438
18 0.002384
19 0.002335
20 0.002320
21 0.002298
22 0.002299
23 0.002294
24 0.002306
25 0.002315
26 0.002289
27 0.002246
28 0.002208
29 0.002207
30 0.002194
31 0.002154
32 0.002114
33 0.002084
34 0.002052
35 0.002042
36 0.002049
37 0.002068
38 0.002075
39 0.002061
40 0.002072
41 0.002056
42 0.002033
43 0.002016
44 0.002025
45 0.002055
46 0.002046
47 0.002044
48 0.002052
49 0.002054
50 0.001998
51 0.001941
52 0.001889
53 0.001863
54 0.001846
55 0.001819
56 0.001807
57 0.001786
58 0.001776
59 0.001738
60 0.001743
61 0.001775
62 0.001825
63 0.001860
64 0.001896
65 0.001893
66 0.001856
67 0.001847
68 0.001821
69 0.001806
70 0.001819
71 0.001846
72 0.001879
73 0.001900
74 0.001901
75 0.001900
76 0.001866
77 0.001836
78 0.001827
79 0.001805
80 0.001828
81 0.001848
82 0.001861
83 0.001844
84 0.001832
85 0.001791
86 0.001800
87 0.001781
88 0.001768
89 0.001739
90 0.001751
91 0.001770
92 0.001775
93 0.001799
94 0.001789
95 0.001811
96 0.001841
97 0.001854
98 0.001848
99 0.001814
100 0.001786
101 0.001765
102 0.001770
103 0.001743
104 0.001730
105 0.001742
106 0.001714
107 0.001677
108 0.001701
109 0.001709
110 0.001705
111 0.001685
112 0.001670
113 0.001661
114 0.001614
115 0.001574
116 0.001544
117 0.001527
118 0.001517
119 0.001484
120 0.001495
121 0.001514
122 0.001505
123 0.001487
124 0.001480
125 0.001456
126 0.001474
127 0.001508
128 0.001508
129 0.001538
130 0.001542
131 0.001545
132 0.001500
133 0.001483
134 0.001495
135 0.001499
136 0.001475
137 0.001463
138 0.001420
139 0.001393
140 0.001367
141 0.001308
142 0.001273
143 0.001222
144 0.001198
145 0.001190
146 0.001177
147 0.001183
148 0.001154
149 0.001121
150 0.001126
151 0.001148
152 0.001159
153 0.001162
154 0.001174
155 0.001153
156 0.001138
157 0.001152
158 0.001156
159 0.001156
160 0.001174
161 0.001176
162 0.001185
163 0.001193
164 0.001188
165 0.001158
166 0.001149
167 0.001104
168 0.001084
169 0.001056
170 0.001021
171 0.000965
172 0.000906
173 0.000864
174 0.000833
175 0.000827
176 0.000840
177 0.000842
178 0.000832
179 0.000813
180 0.000791
181 0.000753
182 0.000703
183 0.000658
184 0.000626
185 0.000607
186 0.000577
187 0.000517
188 0.000511
189 0.000510
190 0.000491
191 0.000457
192 0.000459
193 0.000466
194 0.000462
195 0.000468
196 0.000439
197 0.000394
198 0.000393
199 0.000410
200 0.000435
201 0.000458
202 0.000466
203 0.000459
204 0.000447
205 0.000415
206 0.000372
207 0.000345
208 0.000333
209 0.000337
210 0.000332
211 0.000331
212 0.000346
213 0.000368
214 0.000424
215 0.000463
216 0.000439
217 0.000432
218 0.000407
219 0.000398
220 0.000343
221 0.000295
222 0.000252
223 0.000239
224 0.000292
225 0.000313
226 0.000345
227 0.000344
228 0.000329
229 0.000316
230 0.000299
231 0.000297
232 0.000292
233 0.000281
234 0.000257
235 0.000235
236 0.000184
237 0.000192
238 0.000192
239 0.000195
240 0.000183
241 0.000159
242 0.000147
243 0.000132
244 0.000145
245 0.000130
246 0.000075
247 0.000052
248 0.000053
249 0.000078
250 0.000123
251 0.000147
252 0.000159
253 0.000204
254 0.000224
255 0.000236
256 0.000267
257 0.000314
258 0.000337
259 0.000348
260 0.000364
261 0.000372
262 0.000384
263 0.000386
264 0.000403
265 0.000387
266 0.000380
267 0.000371
268 0.000344
269 0.000313
270 0.000261
271 0.000217
272 0.000176
273 0.000152
274 0.000145
275 0.000149
276 0.000133
277 0.000132
278 0.000129
279 0.000134
280 0.000152
281 0.000177
282 0.000190
283 0.000171
284 0.000151
285 0.000094
286 0.000095
287 0.000093
288 0.000099
289 0.000100
290 0.000109
291 0.000122
292 0.000093
293 0.000066
294 0.000050
295 0.000046
296 0.000048
297 0.000066
298 0.000099
299 0.000101
300 0.000082
301 0.000073
302 0.000052
303 0.000018
304 0.000004
305 0.000018
306 0.000030
307 0.000033
308 0.000017
309 0.000006
310 0.000015
311 0.000020
312 0.000028
313 0.000019
314 0.000034
315 0.000052
316 0.000043
317 0.000044
318 0.000037
319 0.000041
320 0.000054
321 0.000074
322 0.000102
323 0.000142
324 0.000176
325 0.000227
326 0.000261
327 0.000254
328 0.000226
329 0.000215
330 0.000196
331 0.000180
332 0.000138
333 0.000081
334 0.000048
335 0.000061
336 0.000059
337 0.000051
338 0.000017
339 0.000021
340 -0.000015
341 -0.000071
342 -0.000104
343 -0.000145
344 -0.000146
345 -0.000149
346 -0.000149
347 -0.000144
348 -0.000130
349 -0.000123
350 -0.000120
351 -0.000129
352 -0.000123
353 -0.000109
354 -0.000082
355 -0.000050
356 -0.000042
357 -0.000044
358 -0.000036
359 -0.000037
360 -0.000044
361 -0.000028
362 0.000004
363 0.000017
364 0.000055
365 0.000077
366 0.000096
367 0.000063
368 0.000041
369 0.000030
370 0.000008
371 0.000007
372 0.000021
373 0.000017
374 0.000029
375 0.000054
376 0.000053
377 0.000078
378 0.000082
379 0.000110
380 0.000141
381 0.000138
382 0.000124
383 0.000095
384 0.000103
385 0.000100
386 0.000084
387 0.000109
388 0.000139
389 0.000163
390 0.000180
391 0.000199
392 0.000227
393 0.000248
394 0.000273
395 0.000319
396 0.000340
397 0.000355
398 0.000350
399 0.000330
400 0.000311
401 0.000306
402 0.000290
403 0.000255
404 0.000234
405 0.000194
406 0.000164
407 0.000161
408 0.000138
409 0.000109
410 0.000102
411 0.000079
412 0.000066
413 0.000045
414 0.000036
415 0.000028
416 0.000031
417 0.000066
418 0.000067
419 0.000091
420 0.000125
421 0.000149
422 0.000158
423 0.000146
424 0.000117
425 0.000091
426 0.000090
427 0.000109
428 0.000124
429 0.000140
430 0.000137
431 0.000110
432 0.000093
433 0.000101
434 0.000096
435 0.000113
436 0.000107
437 0.000100
438 0.000133
439 0.000146
440 0.000150
441 0.000158
442 0.000143
443 0.000149
444 0.000159
445 0.000198
446 0.000237
447 0.000254
448 0.000275
449 0.000266
450 0.000246
451 0.000223
452 0.000240
453 0.000240
454 0.000220
455 0.000227
456 0.000248
457 0.000275
458 0.000297
459 0.000323
460 0.000343
461 0.000360
462 0.000385
463 0.000416
464 0.000416
465 0.000409
466 0.000406
467 0.000383
468 0.000388
469 0.000372
470 0.000362
471 0.000350
472 0.000346
473 0.000344
474 0.000346
475 0.000342
476 0.000357
477 0.000367
478 0.000360
479 0.000345
480 0.000312
481 0.000286
482 0.000280
483 0.000295
484 0.000322
485 0.000350
486 0.000362
487 0.000370
488 0.000382
489 0.000392
490 0.000397
491 0.000410
492 0.000422
493 0.000467
494 0.000480
495 0.000479
496 0.000469
497 0.000457
498 0.000455
499 0.000447
500 0.000444
501 0.000441
502 0.000424
503 0.000429
504 0.000407
505 0.000403
506 0.000373
507 0.000331
508 0.000311
509 0.000286
510 0.000273
511 0.000230
512 0.000185
513 0.000134
514 0.000085
515 0.000065
516 0.000058
517 0.000041
518 0.000039
519 0.000075
520 0.000103
521 0.000139
522 0.000170
523 0.000174
524 0.000184
525 0.000217
526 0.000243
527 0.000250
528 0.000253
529 0.000263
530 0.000270
531 0.000283
532 0.000267
533 0.000249
534 0.000243
535 0.000246
536 0.000212
537 0.000186
538 0.000184
539 0.000190
540 0.000201
541 0.000205
542 0.000183
543 0.000180
544 0.000177
545 0.000155
546 0.000138
547 0.000126
548 0.000131
549 0.000145
550 0.000187
551 0.000223
552 0.000243
553 0.000244
554 0.000268
555 0.000294
556 0.000317
557 0.000315
558 0.000327
559 0.000325
560 0.000312
561 0.000295
562 0.000286
563 0.000278
564 0.000294
565 0.000300
566 0.000301
567 0.000302
568 0.000323
569 0.000347
570 0.000376
571 0.000402
572 0.000436
573 0.000462
574 0.000498
575 0.000537
576 0.000574
577 0.000594
578 0.000588
579 0.000603
580 0.000638
581 0.000661
582 0.000670
583 0.000684
584 0.000697
585 0.000693
586 0.000671
587 0.000641
588 0.000610
589 0.000611
590 0.000612
591 0.000590
592 0.000582
593 0.000579
594 0.000566
595 0.000562
596 0.000576
597 0.000574
598 0.000579
599 0.000572
600 0.000559
601 0.000553
602 0.000558
603 0.000574
604 0.000573
605 0.000559
606 0.000548
607 0.000525
608 0.000494
609 0.000480
610 0.000457
611 0.000453
612 0.000445
613 0.000449
614 0.000441
615 0.000441
616 0.000441
617 0.000445
618 0.000433
619 0.000421
620 0.000415
621 0.000417
622 0.000408
623 0.000373
624 0.000355
625 0.000361
626 0.000376
627 0.000373
628 0.000370
629 0.000380
630 0.000391
631 0.000378
632 0.000357
633 0.000374
634 0.000393
635 0.000380
636 0.000378
637 0.000364
638 0.000351
639 0.000338
640 0.000325
641 0.000306
642 0.000289
643 0.000266
644 0.000249
645 0.000245
646 0.000266
647 0.000268
648 0.000267
649 0.000258
650 0.000242
651 0.000229
652 0.000226
653 0.000218
654 0.000215
655 0.000230
656 0.000240
657 0.000252
658 0.000249
659 0.000246
660 0.000255
661 0.000265
662 0.000272
663 0.000263
664 0.000258
665 0.000257
666 0.000260
667 0.000263
668 0.000242
669 0.000229
670 0.000236
671 0.000244
672 0.000234
673 0.000239
674 0.000260
675 0.000266
676 0.000277
677 0.000287
678 0.000303
679 0.000320
680 0.000320
681 0.000309
682 0.000300
683 0.000310
684 0.000311
685 0.000323
686 0.000342
687 0.000360
688 0.000360
689 0.000369
690 0.000366
691 0.000376
692 0.000374
693 0.000370
694 0.000364
695 0.000355
696 0.000336
697 0.000332
698 0.000336
699 0.000341
700 0.000349
701 0.000354
702 0.000367
703 0.000395
704 0.000410
705 0.000419
706 0.000431
707 0.000439
708 0.000463
709 0.000480
710 0.000509
711 0.000525
712 0.000534
713 0.000544
714 0.000556
715 0.000560
716 0.000546
717 0.000532
718 0.000520
719 0.000531
720 0.000544
721 0.000542
722 0.000541
723 0.000530
724 0.000523
725 0.000502
726 0.000489
727 0.000479
728 0.000468
729 0.000456
730 0.000455
731 0.000440
732 0.000426
733 0.000411
734 0.000404
735 0.000405
736 0.000410
737 0.000401
738 0.000399
739 0.000391
740 0.000373
741 0.000366
742 0.000364
743 0.000378
744 0.000391
745 0.000396
746 0.000396
747 0.000394
748 0.000390
749 0.000388
750 0.000387
751 0.000389
752 0.000390
753 0.000399
754 0.000409
755 0.000420
756 0.000422
757 0.000412
758 0.000392
759 0.000378
760 0.000378
761 0.000362
762 0.000340
763 0.000314
764 0.000306
765 0.000295
766 0.000279
767 0.000261
768 0.000241
769 0.000227
770 0.000211
771 0.000197
772 0.000182
773 0.000179
774 0.000180
775 0.000195
776 0.000196
777 0.000195
778 0.000192
779 0.000188
780 0.000179
781 0.000173
782 0.000184
783 0.000199
784 0.000223
785 0.000237
786 0.000246
787 0.000252
788 0.000266
789 0.000271
790 0.000268
791 0.000268
792 0.000264
793 0.000251
794 0.000237
795 0.000225
796 0.000224
797 0.000216
798 0.000193
799 0.000174
800 0.000149
801 0.000134
802 0.000108
803 0.000079
804 0.000050
805 0.000027
806 -0.000002
807 -0.000034
808 -0.000064
809 -0.000086
