# i correlation
1 0.002782
2 0.002483
3 0.002207
4 0.002022
5 0.001867
6 0.001758
7 0.001659
8 0.001546
9 0.001474
10 0.001416
11 0.001370
12 0.001304
13 0.001274
14 0.001242
15 0.001210
16 0.001224
17 0.001253
18 0.001273
19 0.001290
20 0.001302
21 0.001309
22 0.001304
23 0.001266
24 0.001258
25 0.001192
26 0.001133
27 0.001066
28 0.001029
29 0.000995
30 0.000989
31 0.001008
32 0.001038
33 0.001057
34 0.001041
35 0.001053
36 0.001021
37 0.000996
38 0.000972
39 0.000943
40 0.000921
41 0.000894
42 0.000865
43 0.000824
44 0.000823
45 0.000817
46 0.000788
47 0.000769
48 0.000749
49 0.000739
50 0.000744
51 0.000752
52 0.000759
53 0.000778
54 0.000777
55 0.000774
56 0.000746
57 0.000734
58 0.000749
59 0.000773
60 0.000805
61 0.000841
62 0.000830
63 0.000841
64 0.000853
65 0.000881
66 0.000904
67 0.000896
68 0.000895
69 0.000902
70 0.000914
71 0.000909
72 0.000909
73 0.000916
74 0.000907
75 0.000863
76 0.000800
77 0.000738
78 0.000657
79 0.000634
80 0.000617
81 0.000580
82 0.000569
83 0.000562
84 0.000575
85 0.000627
86 0.000685
87 0.000698
88 0.000717
89 0.000722
90 0.000742
91 0.000753
92 0.000744
93 0.000736
94 0.000681
95 0.000627
96 0.000614
97 0.000631
98 0.000658
99 0.000672
100 0.000681
101 0.000662
102 0.000653
103 0.000663
104 0.000676
105 0.000679
106 0.000694
107 0.000717
108 0.000748
109 0.000785
110 0.000799
111 0.000776
112 0.000737
113 0.000695
114 0.000656
115 0.000650
116 0.000634
117 0.000635
118 0.000652
119 0.000647
120 0.000669
121 0.000707
122 0.000751
123 0.000774
124 0.000809
125 0.000830
126 0.000830
127 0.000805
128 0.000764
129 0.000718
130 0.000685
131 0.000667
132 0.000654
133 0.000621
134 0.000613
135 0.000621
136 0.000597
137 0.000592
138 0.000570
139 0.000540
140 0.000522
141 0.000495
142 0.000490
143 0.000499
144 0.000526
145 0.000540
146 0.000529
147 0.000521
148 0.000520
149 0.000503
150 0.000505
151 0.000493
152 0.000463
153 0.000438
154 0.000424
155 0.000405
156 0.000406
157 0.000406
158 0.000429
159 0.000427
160 0.000421
161 0.000406
162 0.000407
163 0.000398
164 0.000401
165 0.000415
166 0.000431
167 0.000399
168 0.000368
169 0.000359
170 0.000349
171 0.000328
172 0.000306
173 0.000279
174 0.000258
175 0.000254
176 0.000268
177 0.000284
178 0.000294
179 0.000330
180 0.000367
181 0.000385
182 0.000423
183 0.000452
184 0.000454
185 0.000458
186 0.000454
187 0.000466
188 0.000490
189 0.000522
190 0.000560
191 0.000599
192 0.000638
193 0.000670
194 0.000682
195 0.000696
196 0.000698
197 0.000708
198 0.000725
199 0.000733
200 0.000721
201 0.000728
202 0.000683
203 0.000670
204 0.000628
205 0.000593
206 0.000537
207 0.000494
208 0.000472
209 0.000453
210 0.000458
211 0.000451
212 0.000432
213 0.000397
214 0.000390
215 0.000387
216 0.000387
217 0.000388
218 0.000389
219 0.000396
220 0.000398
221 0.000389
222 0.000380
223 0.000386
224 0.000407
225 0.000471
226 0.000490
227 0.000522
228 0.000517
229 0.000521
230 0.000503
231 0.000507
232 0.000489
233 0.000454
234 0.000409
235 0.000383
236 0.000371
237 0.000346
238 0.000323
239 0.000297
240 0.000283
241 0.000254
242 0.000233
243 0.000231
244 0.000235
245 0.000258
246 0.000281
247 0.000310
248 0.000331
249 0.000337
250 0.000326
251 0.000331
252 0.000344
253 0.000371
254 0.000374
255 0.000354
256 0.000325
257 0.000314
258 0.000293
259 0.000280
260 0.000295
261 0.000292
262 0.000331
263 0.000364
264 0.000405
265 0.000404
266 0.000420
267 0.000441
268 0.000460
269 0.000466
270 0.000442
271 0.000414
272 0.000381
273 0.000352
274 0.000312
275 0.000270
276 0.000190
277 0.000104
278 0.000046
279 0.000015
280 0.000031
281 0.000049
282 0.000047
283 0.000053
284 0.000082
285 0.000119
286 0.000175
287 0.000197
288 0.000226
289 0.000258
290 0.000318
291 0.000372
292 0.000381
293 0.000392
294 0.000375
295 0.000362
296 0.000347
297 0.000350
298 0.000353
299 0.000352
300 0.000360
301 0.000367
302 0.000368
303 0.000365
304 0.000385
305 0.000401
306 0.000425
307 0.000444
308 0.000453
309 0.000448
310 0.000443
311 0.000451
312 0.000467
313 0.000495
314 0.000525
315 0.000549
316 0.000573
317 0.000582
318 0.000593
319 0.000591
320 0.000587
321 0.000563
322 0.000540
323 0.000504
324 0.000491
325 0.000493
326 0.000508
327 0.000520
328 0.000537
329 0.000519
330 0.000494
331 0.000467
332 0.000462
333 0.000471
334 0.000468
335 0.000488
336 0.000505
337 0.000514
338 0.000529
339 0.000539
340 0.000552
341 0.000578
342 0.000610
343 0.000605
344 0.000601
345 0.000585
346 0.000579
347 0.000537
348 0.000491
349 0.000454
350 0.000427
351 0.000432
352 0.000435
353 0.000434
354 0.000438
355 0.000424
356 0.000409
357 0.000390
358 0.000374
359 0.000387
360 0.000425
361 0.000461
362 0.000493
363 0.000518
364 0.000519
365 0.000517
366 0.000522
367 0.000505
368 0.000476
369 0.000454
370 0.000456
371 0.000454
372 0.000462
373 0.000461
374 0.000459
375 0.000454
376 0.000440
377 0.000447
378 0.000444
379 0.000467
380 0.000464
381 0.000468
382 0.000451
383 0.000443
384 0.000435
385 0.000431
386 0.000409
387 0.000365
388 0.000338
389 0.000338
390 0.000364
391 0.000402
392 0.000431
393 0.000434
394 0.000440
395 0.000442
396 0.000435
397 0.000423
398 0.000407
399 0.000411
400 0.000396
401 0.000419
402 0.000436
403 0.000424
404 0.000403
405 0.000384
406 0.000368
407 0.000361
408 0.000361
409 0.000347
410 0.000322
411 0.000320
412 0.000336
413 0.000360
414 0.000390
415 0.000418
416 0.000426
417 0.000429
418 0.000439
419 0.000411
420 0.000371
421 0.000335
422 0.000303
423 0.000286
424 0.000280
425 0.000293
426 0.000309
427 0.000282
428 0.000277
429 0.000263
430 0.000277
431 0.000282
432 0.000310
433 0.000314
434 0.000325
435 0.000346
436 0.000371
437 0.000382
438 0.000393
439 0.000416
440 0.000423
441 0.000419
442 0.000412
443 0.000393
444 0.000375
445 0.000359
446 0.000365
447 0.000363
448 0.000354
449 0.000374
450 0.000402
451 0.000427
452 0.000456
453 0.000484
454 0.000507
455 0.000500
456 0.000501
457 0.000479
458 0.000442
459 0.000404
460 0.000388
461 0.000375
462 0.000373
463 0.000416
464 0.000453
465 0.000491
466 0.000502
467 0.000504
468 0.000505
469 0.000500
470 0.000499
471 0.000486
472 0.000473
473 0.000455
474 0.000438
475 0.000405
476 0.000386
477 0.000356
478 0.000343
479 0.000333
480 0.000313
481 0.000300
482 0.000302
483 0.000311
484 0.000329
485 0.000352
486 0.000374
487 0.000388
488 0.000400
489 0.000425
490 0.000424
491 0.000428
492 0.000430
493 0.000431
494 0.000454
495 0.000461
496 0.000449
497 0.000414
498 0.000383
499 0.000392
500 0.000422
501 0.000457
502 0.000462
503 0.000455
504 0.000443
505 0.000432
506 0.000420
507 0.000401
508 0.000387
509 0.000369
510 0.000355
511 0.000346
512 0.000342
513 0.000342
514 0.000359
515 0.000372
516 0.000385
517 0.000407
518 0.000417
519 0.000395
520 0.000374
521 0.000369
522 0.000353
523 0.000351
524 0.000350
525 0.000353
526 0.000361
527 0.000394
528 0.000407
529 0.000418
530 0.000404
531 0.000390
532 0.000396
533 0.000401
534 0.000414
535 0.000425
536 0.000458
537 0.000480
538 0.000498
539 0.000516
540 0.000492
541 0.000461
542 0.000427
543 0.000405
544 0.000376
545 0.000346
546 0.000322
547 0.000297
548 0.000269
549 0.000259
550 0.000263
551 0.000259
552 0.000254
553 0.000280
554 0.000314
555 0.000346
556 0.000384
557 0.000422
558 0.000435
559 0.000469
560 0.000519
561 0.000557
562 0.000575
563 0.000567
564 0.000556
565 0.000535
566 0.000513
567 0.000505
568 0.000496
569 0.000492
570 0.000482
571 0.000475
572 0.000458
573 0.000448
574 0.000457
575 0.000461
576 0.000475
577 0.000464
578 0.000455
579 0.000440
580 0.000424
581 0.000410
582 0.000392
583 0.000368
584 0.000348
585 0.000308
586 0.000274
587 0.000269
588 0.000288
589 0.000303
590 0.000319
591 0.000332
592 0.000359
593 0.000377
594 0.000404
595 0.000428
596 0.000418
597 0.000417
598 0.000408
599 0.000422
600 0.000438
601 0.000448
602 0.000454
603 0.000437
604 0.000444
605 0.000447
606 0.000459
607 0.000456
608 0.000457
609 0.000466
610 0.000474
611 0.000480
612 0.000486
613 0.000498
614 0.000494
615 0.000487
616 0.000470
617 0.000460
618 0.000465
619 0.000468
620 0.000457
621 0.000462
622 0.000454
623 0.000464
624 0.000462
625 0.000451
626 0.000459
627 0.000459
628 0.000453
629 0.000463
630 0.000476
631 0.000469
632 0.000473
633 0.000480
634 0.000508
635 0.000512
636 0.000514
637 0.000504
638 0.000468
639 0.000459
640 0.000461
641 0.000454
642 0.000457
643 0.000466
644 0.000472
645 0.000488
646 0.000501
647 0.000505
648 0.000498
649 0.000485
650 0.000469
651 0.000444
652 0.000415
653 0.000411
654 0.000410
655 0.000408
656 0.000401
657 0.000403
658 0.000403
659 0.000405
660 0.000413
661 0.000431
662 0.000437
663 0.000440
664 0.000460
665 0.000481
666 0.000500
667 0.000500
668 0.000506
669 0.000511
670 0.000490
671 0.000478
672 0.000455
673 0.000416
674 0.000387
675 0.000363
676 0.000349
677 0.000343
678 0.000341
679 0.000354
680 0.000376
681 0.000412
682 0.000433
683 0.000449
684 0.000452
685 0.000465
686 0.000471
687 0.000483
688 0.000482
689 0.000470
690 0.000445
691 0.000410
692 0.000394
693 0.000389
694 0.000382
695 0.000368
696 0.000343
697 0.000325
698 0.000318
699 0.000323
700 0.000341
701 0.000355
702 0.000346
703 0.000338
704 0.000343
705 0.000353
706 0.000364
707 0.000359
708 0.000336
709 0.000321
710 0.000302
711 0.000293
712 0.000286
713 0.000282
714 0.000278
715 0.000273
716 0.000285
717 0.000295
718 0.000306
719 0.000317
720 0.000321
721 0.000320
722 0.000325
723 0.000320
724 0.000300
725 0.000300
726 0.000318
727 0.000333
728 0.000323
729 0.000305
730 0.000292
731 0.000285
732 0.000284
733 0.000287
734 0.000286
735 0.000278
736 0.000277
737 0.000281
738 0.000274
739 0.000274
740 0.000267
741 0.000257
742 0.000240
743 0.000227
744 0.000224
745 0.000214
746 0.000216
747 0.000213
748 0.000208
749 0.000202
750 0.000199
751 0.000197
752 0.000184
753 0.000190
754 0.000216
755 0.000246
756 0.000261
757 0.000278
758 0.000295
759 0.000295
760 0.000288
761 0.000279
762 0.000272
763 0.000262
764 0.000257
765 0.000247
766 0.000235
767 0.000233
768 0.000221
769 0.000215
770 0.000204
771 0.000198
772 0.000185
773 0.000160
774 0.000138
775 0.000127
776 0.000114
777 0.000111
778 0.000106
779 0.000110
780 0.000114
781 0.000125
782 0.000123
783 0.000118
784 0.000112
785 0.000104
786 0.000121
787 0.000135
788 0.000140
789 0.000140
790 0.000138
791 0.000146
792 0.000159
793 0.000173
794 0.000171
795 0.000164
796 0.000157
797 0.000150
798 0.000153
799 0.000151
800 0.000162
801 0.000162
802 0.000157
803 0.000156
804 0.000155
805 0.000153
806 0.000149
807 0.000158
808 0.000152
809 0.000150
