# i correlation
1 0.003698
2 0.003424
3 0.003201
4 0.003003
5 0.002825
6 0.002681
7 0.002569
8 0.002457
9 0.002355
10 0.002266
11 0.002176
12 0.002134
13 0.002106
14 0.002060
15 0.002033
16 0.001983
17 0.001929
18 0.001899
19 0.001866
20 0.001817
21 0.001779
22 0.001769
23 0.001764
24 0.001775
25 0.001787
26 0.001791
27 0.001748
28 0.001724
29 0.001679
30 0.001644
31 0.001645
32 0.001650
33 0.001643
34 0.001644
35 0.001659
36 0.001671
37 0.001684
38 0.001729
39 0.001748
40 0.001756
41 0.001769
42 0.001764
43 0.001758
44 0.001783
45 0.001799
46 0.001824
47 0.001841
48 0.001866
49 0.001883
50 0.001875
51 0.001881
52 0.001874
53 0.001847
54 0.001834
55 0.001806
56 0.001768
57 0.001774
58 0.001780
59 0.001777
60 0.001776
61 0.001759
62 0.001737
63 0.001731
64 0.001743
65 0.001712
66 0.001684
67 0.001681
68 0.001713
69 0.001737
70 0.001789
71 0.001816
72 0.001852
73 0.001879
74 0.001862
75 0.001844
76 0.001810
77 0.001815
78 0.001795
79 0.001766
80 0.001710
81 0.001619
82 0.001535
83 0.001464
84 0.001376
85 0.001279
86 0.001220
87 0.001208
88 0.001164
89 0.001130
90 0.001113
91 0.001102
92 0.001101
93 0.001118
94 0.001136
95 0.001153
96 0.001160
97 0.001161
98 0.001149
99 0.001125
100 0.001082
101 0.001031
102 0.001000
103 0.000983
104 0.000952
105 0.000963
106 0.000970
107 0.000977
108 0.000984
109 0.001002
110 0.001052
111 0.001076
112 0.001126
113 0.001164
114 0.001178
115 0.001193
116 0.001192
117 0.001207
118 0.001241
119 0.001249
120 0.001235
121 0.001219
122 0.001213
123 0.001189
124 0.001175
125 0.001180
126 0.001159
127 0.001130
128 0.001130
129 0.001128
130 0.001108
131 0.001117
132 0.001109
133 0.001090
134 0.001067
135 0.001034
136 0.001021
137 0.000981
138 0.000934
139 0.000918
140 0.000904
141 0.000922
142 0.000956
143 0.000990
144 0.000999
145 0.000974
146 0.000969
147 0.000960
148 0.000941
149 0.000911
150 0.000884
151 0.000881
152 0.000859
153 0.000831
154 0.000833
155 0.000827
156 0.000817
157 0.000822
158 0.000793
159 0.000744
160 0.000729
161 0.000730
162 0.000730
163 0.000721
164 0.000724
165 0.000729
166 0.000791
167 0.000868
168 0.000907
169 0.000946
170 0.000982
171 0.001001
172 0.000980
173 0.000989
174 0.001000
175 0.001004
176 0.000959
177 0.000933
178 0.000923
179 0.000911
180 0.000905
181 0.000887
182 0.000922
183 0.000938
184 0.000912
185 0.000890
186 0.000825
187 0.000788
188 0.000768
189 0.000770
190 0.000784
191 0.000800
192 0.000802
193 0.000807
194 0.000817
195 0.000836
196 0.000821
197 0.000772
198 0.000725
199 0.000700
200 0.000679
201 0.000669
202 0.000637
203 0.000600
204 0.000589
205 0.000605
206 0.000649
207 0.000691
208 0.000741
209 0.000784
210 0.000788
211 0.000804
212 0.000827
213 0.000822
214 0.000826
215 0.000853
216 0.000858
217 0.000851
218 0.000851
219 0.000861
220 0.000853
221 0.000856
222 0.000873
223 0.000884
224 0.000893
225 0.000927
226 0.000934
227 0.000933
228 0.000941
229 0.000962
230 0.000973
231 0.000976
232 0.000974
233 0.000953
234 0.000932
235 0.000898
236 0.000884
237 0.000882
238 0.000881
239 0.000885
240 0.000884
241 0.000846
242 0.000822
243 0.000804
244 0.000812
245 0.000777
246 0.000736
247 0.000719
248 0.000700
249 0.000695
250 0.000685
251 0.000653
252 0.000649
253 0.000674
254 0.000663
255 0.000671
256 0.000684
257 0.000687
258 0.000692
259 0.000684
260 0.000679
261 0.000681
262 0.000696
263 0.000708
264 0.000729
265 0.000751
266 0.000750
267 0.000750
268 0.000775
269 0.000773
270 0.000789
271 0.000793
272 0.000809
273 0.000828
274 0.000860
275 0.000898
276 0.000936
277 0.000962
278 0.001012
279 0.001064
280 0.001111
281 0.001112
282 0.001112
283 0.001106
284 0.001076
285 0.001062
286 0.001046
287 0.001033
288 0.001040
289 0.001036
290 0.001024
291 0.000997
292 0.000977
293 0.000954
294 0.000899
295 0.000870
296 0.000855
297 0.000840
298 0.000827
299 0.000829
300 0.000799
301 0.000786
302 0.000785
303 0.000784
304 0.000787
305 0.000768
306 0.000777
307 0.000779
308 0.000794
309 0.000790
310 0.000783
311 0.000793
312 0.000767
313 0.000704
314 0.000680
315 0.000630
316 0.000597
317 0.000572
318 0.000549
319 0.000510
320 0.000483
321 0.000457
322 0.000424
323 0.000422
324 0.000448
325 0.000469
326 0.000482
327 0.000509
328 0.000517
329 0.000500
330 0.000521
331 0.000526
332 0.000527
333 0.000517
334 0.000493
335 0.000491
336 0.000506
337 0.000549
338 0.000566
339 0.000581
340 0.000595
341 0.000584
342 0.000597
343 0.000628
344 0.000621
345 0.000639
346 0.000660
347 0.000688
348 0.000714
349 0.000735
350 0.000767
351 0.000790
352 0.000826
353 0.000859
354 0.000853
355 0.000859
356 0.000872
357 0.000876
358 0.000885
359 0.000859
360 0.000832
361 0.000807
362 0.000796
363 0.000781
364 0.000722
365 0.000677
366 0.000640
367 0.000606
368 0.000589
369 0.000563
370 0.000531
371 0.000495
372 0.000457
373 0.000424
374 0.000408
375 0.000409
376 0.000397
377 0.000395
378 0.000379
379 0.000366
380 0.000370
381 0.000395
382 0.000416
383 0.000420
384 0.000437
385 0.000455
386 0.000484
387 0.000493
388 0.000490
389 0.000504
390 0.000528
391 0.000526
392 0.000497
393 0.000469
394 0.000468
395 0.000467
396 0.000481
397 0.000478
398 0.000497
399 0.000528
400 0.000558
401 0.000591
402 0.000600
403 0.000629
404 0.000652
405 0.000701
406 0.000739
407 0.000814
408 0.000842
409 0.000839
410 0.000861
411 0.000891
412 0.000883
413 0.000865
414 0.000861
415 0.000845
416 0.000826
417 0.000805
418 0.000791
419 0.000776
420 0.000769
421 0.000757
422 0.000773
423 0.000788
424 0.000802
425 0.000801
426 0.000807
427 0.000793
428 0.000760
429 0.000731
430 0.000713
431 0.000694
432 0.000680
433 0.000661
434 0.000632
435 0.000595
436 0.000570
437 0.000558
438 0.000551
439 0.000558
440 0.000581
441 0.000594
442 0.000599
443 0.000600
444 0.000586
445 0.000605
446 0.000615
447 0.000630
448 0.000634
449 0.000663
450 0.000717
451 0.000740
452 0.000764
453 0.000796
454 0.000837
455 0.000875
456 0.000898
457 0.000913
458 0.000934
459 0.000945
460 0.000935
461 0.000913
462 0.000916
463 0.000925
464 0.000937
465 0.000962
466 0.000961
467 0.000946
468 0.000943
469 0.000948
470 0.000934
471 0.000924
472 0.000909
473 0.000883
474 0.000873
475 0.000873
476 0.000864
477 0.000872
478 0.000901
479 0.000916
480 0.000943
481 0.000982
482 0.001014
483 0.001029
484 0.001043
485 0.001039
486 0.001038
487 0.001045
488 0.001027
489 0.001028
490 0.001021
491 0.001024
492 0.001001
493 0.000992
494 0.001017
495 0.001024
496 0.001012
497 0.001026
498 0.001033
499 0.001056
500 0.001073
501 0.001078
502 0.001085
503 0.001084
504 0.001064
505 0.001051
506 0.001023
507 0.000986
508 0.000955
509 0.000926
510 0.000900
511 0.000865
512 0.000826
513 0.000797
514 0.000765
515 0.000760
516 0.000751
517 0.000777
518 0.000801
519 0.000826
520 0.000851
521 0.000859
522 0.000851
523 0.000846
524 0.000844
525 0.000858
526 0.000878
527 0.000906
528 0.000944
529 0.000980
530 0.001010
531 0.001001
532 0.001016
533 0.001042
534 0.001043
535 0.001051
536 0.001061
537 0.001076
538 0.001078
539 0.001077
540 0.001058
541 0.001048
542 0.001028
543 0.001025
544 0.001001
545 0.000969
546 0.000928
547 0.000887
548 0.000865
549 0.000835
550 0.000805
551 0.000780
552 0.000767
553 0.000740
554 0.000728
555 0.000729
556 0.000745
557 0.000752
558 0.000761
559 0.000780
560 0.000786
561 0.000785
562 0.000802
563 0.000815
564 0.000827
565 0.000831
566 0.000826
567 0.000824
568 0.000822
569 0.000837
570 0.000835
571 0.000814
572 0.000812
573 0.000822
574 0.000842
575 0.000854
576 0.000871
577 0.000882
578 0.000896
579 0.000892
580 0.000889
581 0.000899
582 0.000910
583 0.000889
584 0.000858
585 0.000825
586 0.000782
587 0.000742
588 0.000725
589 0.000719
590 0.000724
591 0.000708
592 0.000703
593 0.000690
594 0.000681
595 0.000655
596 0.000636
597 0.000618
598 0.000605
599 0.000599
600 0.000601
601 0.000592
602 0.000582
603 0.000553
604 0.000519
605 0.000493
606 0.000478
607 0.000505
608 0.000527
609 0.000526
610 0.000513
611 0.000511
612 0.000492
613 0.000487
614 0.000492
615 0.000495
616 0.000505
617 0.000508
618 0.000503
619 0.000497
620 0.000502
621 0.000485
622 0.000476
623 0.000493
624 0.000504
625 0.000512
626 0.000515
627 0.000509
628 0.000494
629 0.000477
630 0.000475
631 0.000458
632 0.000453
633 0.000464
634 0.000471
635 0.000477
636 0.000477
637 0.000473
638 0.000481
639 0.000502
640 0.000510
641 0.000510
642 0.000510
643 0.000509
644 0.000483
645 0.000469
646 0.000466
647 0.000461
648 0.000467
649 0.000486
650 0.000489
651 0.000502
652 0.000500
653 0.000490
654 0.000501
655 0.000509
656 0.000496
657 0.000486
658 0.000468
659 0.000459
660 0.000453
661 0.000442
662 0.000436
663 0.000431
664 0.000437
665 0.000446
666 0.000445
667 0.000423
668 0.000401
669 0.000391
670 0.000365
671 0.000345
672 0.000357
673 0.000362
674 0.000367
675 0.000352
676 0.000332
677 0.000320
678 0.000304
679 0.000313
680 0.000315
681 0.000319
682 0.000304
683 0.000291
684 0.000294
685 0.000285
686 0.000292
687 0.000309
688 0.000340
689 0.000345
690 0.000348
691 0.000351
692 0.000359
693 0.000360
694 0.000355
695 0.000360
696 0.000363
697 0.000349
698 0.000364
699 0.000373
700 0.000381
701 0.000375
702 0.000369
703 0.000375
704 0.000372
705 0.000373
706 0.000379
707 0.000386
708 0.000373
709 0.000356
710 0.000355
711 0.000358
712 0.000374
713 0.000388
714 0.000394
715 0.000380
716 0.000355
717 0.000344
718 0.000335
719 0.000337
720 0.000348
721 0.000363
722 0.000365
723 0.000373
724 0.000369
725 0.000380
726 0.000388
727 0.000395
728 0.000403
729 0.000398
730 0.000395
731 0.000391
732 0.000374
733 0.000369
734 0.000367
735 0.000355
736 0.000350
737 0.000349
738 0.000364
739 0.000364
740 0.000360
741 0.000341
742 0.000348
743 0.000360
744 0.000367
745 0.000381
746 0.000381
747 0.000390
748 0.000389
749 0.000386
750 0.000382
751 0.000386
752 0.000386
753 0.000390
754 0.000368
755 0.000349
756 0.000349
757 0.000361
758 0.000371
759 0.000388
760 0.000392
761 0.000402
762 0.000391
763 0.000397
764 0.000411
765 0.000430
766 0.000435
767 0.000442
768 0.000440
769 0.000432
770 0.000424
771 0.000429
772 0.000424
773 0.000431
774 0.000423
775 0.000430
776 0.000420
777 0.000419
778 0.000418
779 0.000417
780 0.000413
781 0.000412
782 0.000423
783 0.000440
784 0.000440
785 0.000446
786 0.000432
787 0.000416
788 0.000390
789 0.000369
790 0.000357
791 0.000346
792 0.000336
793 0.000323
794 0.000310
795 0.000300
796 0.000288
797 0.000287
798 0.000293
799 0.000294
800 0.000289
801 0.000302
802 0.000312
803 0.000321
804 0.000314
805 0.000314
806 0.000315
807 0.000316
808 0.000328
809 0.000336
