# i correlation
1 0.003238
2 0.002922
3 0.002645
4 0.002402
5 0.002224
6 0.002038
7 0.001921
8 0.001807
9 0.001702
10 0.001668
11 0.001625
12 0.001603
13 0.001604
14 0.001591
15 0.001608
16 0.001629
17 0.001634
18 0.001647
19 0.001657
20 0.001657
21 0.001628
22 0.001586
23 0.001547
24 0.001506
25 0.001478
26 0.001481
27 0.001456
28 0.001416
29 0.001386
30 0.001353
31 0.001355
32 0.001379
33 0.001436
34 0.001489
35 0.001526
36 0.001553
37 0.001554
38 0.001541
39 0.001542
40 0.001531
41 0.001505
42 0.001534
43 0.001549
44 0.001539
45 0.001545
46 0.001563
47 0.001608
48 0.001629
49 0.001632
50 0.001646
51 0.001618
52 0.001603
53 0.001564
54 0.001525
55 0.001450
56 0.001373
57 0.001303
58 0.001219
59 0.001126
60 0.001075
61 0.001078
62 0.001121
63 0.001157
64 0.001210
65 0.001275
66 0.001299
67 0.001307
68 0.001300
69 0.001273
70 0.001276
71 0.001261
72 0.001278
73 0.001314
74 0.001310
75 0.001297
76 0.001266
77 0.001231
78 0.001190
79 0.001190
80 0.001160
81 0.001179
82 0.001176
83 0.001191
84 0.001192
85 0.001204
86 0.001245
87 0.001260
88 0.001265
89 0.001256
90 0.001233
91 0.001229
92 0.001195
93 0.001168
94 0.001139
95 0.001102
96 0.001101
97 0.001081
98 0.001059
99 0.001048
100 0.001021
101 0.001038
102 0.001031
103 0.001027
104 0.001045
105 0.001040
106 0.001035
107 0.001053
108 0.001075
109 0.001080
110 0.001079
111 0.001053
112 0.001059
113 0.001073
114 0.001075
115 0.001074
116 0.001067
117 0.001057
118 0.001076
119 0.001095
120 0.001103
121 0.001090
122 0.001108
123 0.001089
124 0.001079
125 0.001043
126 0.001036
127 0.001026
128 0.001033
129 0.001016
130 0.001011
131 0.001015
132 0.000989
133 0.000965
134 0.000952
135 0.000931
136 0.000899
137 0.000878
138 0.000885
139 0.000870
140 0.000865
141 0.000865
142 0.000847
143 0.000862
144 0.000896
145 0.000919
146 0.000945
147 0.000959
148 0.000980
149 0.000995
150 0.000990
151 0.000993
152 0.001025
153 0.001052
154 0.001075
155 0.001063
156 0.001068
157 0.001073
158 0.001073
159 0.001103
160 0.001172
161 0.001238
162 0.001261
163 0.001248
164 0.001222
165 0.001171
166 0.001125
167 0.001089
168 0.001068
169 0.001059
170 0.001080
171 0.001095
172 0.001112
173 0.001104
174 0.001092
175 0.001111
176 0.001109
177 0.001100
178 0.001065
179 0.001027
180 0.001053
181 0.001054
182 0.001073
183 0.001074
184 0.001057
185 0.001036
186 0.001025
187 0.001034
188 0.001025
189 0.001023
190 0.000998
191 0.000955
192 0.000938
193 0.000918
194 0.000929
195 0.000959
196 0.001018
197 0.001041
198 0.001009
199 0.000983
200 0.000945
201 0.000926
202 0.000889
203 0.000836
204 0.000814
205 0.000779
206 0.000752
207 0.000761
208 0.000778
209 0.000823
210 0.000817
211 0.000818
212 0.000818
213 0.000794
214 0.000768
215 0.000716
216 0.000675
217 0.000673
218 0.000663
219 0.000713
220 0.000739
221 0.000767
222 0.000802
223 0.000834
224 0.000899
225 0.000958
226 0.001005
227 0.001032
228 0.001016
229 0.000998
230 0.000985
231 0.000952
232 0.000950
233 0.000939
234 0.000937
235 0.000933
236 0.000913
237 0.000928
238 0.000951
239 0.000983
240 0.001033
241 0.001044
242 0.001079
243 0.001122
244 0.001156
245 0.001194
246 0.001213
247 0.001230
248 0.001206
249 0.001169
250 0.001134
251 0.001075
252 0.001020
253 0.000960
254 0.000918
255 0.000818
256 0.000758
257 0.000738
258 0.000766
259 0.000785
260 0.000754
261 0.000771
262 0.000811
263 0.000824
264 0.000810
265 0.000768
266 0.000770
267 0.000764
268 0.000746
269 0.000763
270 0.000753
271 0.000762
272 0.000782
273 0.000799
274 0.000851
275 0.000867
276 0.000886
277 0.000898
278 0.000883
279 0.000870
280 0.000845
281 0.000825
282 0.000807
283 0.000790
284 0.000767
285 0.000761
286 0.000714
287 0.000671
288 0.000663
289 0.000664
290 0.000679
291 0.000681
292 0.000718
293 0.000750
294 0.000761
295 0.000763
296 0.000756
297 0.000768
298 0.000757
299 0.000746
300 0.000766
301 0.000760
302 0.000740
303 0.000715
304 0.000699
305 0.000679
306 0.000640
307 0.000602
308 0.000564
309 0.000534
310 0.000540
311 0.000555
312 0.000568
313 0.000585
314 0.000578
315 0.000590
316 0.000621
317 0.000637
318 0.000648
319 0.000648
320 0.000651
321 0.000645
322 0.000591
323 0.000556
324 0.000535
325 0.000514
326 0.000507
327 0.000500
328 0.000502
329 0.000488
330 0.000430
331 0.000435
332 0.000428
333 0.000449
334 0.000454
335 0.000472
336 0.000494
337 0.000511
338 0.000514
339 0.000526
340 0.000546
341 0.000569
342 0.000574
343 0.000577
344 0.000553
345 0.000551
346 0.000532
347 0.000520
348 0.000494
349 0.000468
350 0.000482
351 0.000471
352 0.000464
353 0.000469
354 0.000477
355 0.000510
356 0.000511
357 0.000523
358 0.000548
359 0.000527
360 0.000506
361 0.000477
362 0.000431
363 0.000366
364 0.000278
365 0.000228
366 0.000188
367 0.000163
368 0.000128
369 0.000107
370 0.000081
371 0.000080
372 0.000070
373 0.000079
374 0.000078
375 0.000068
376 0.000088
377 0.000079
378 0.000087
379 0.000068
380 0.000052
381 0.000079
382 0.000070
383 0.000071
384 0.000054
385 0.000049
386 0.000055
387 0.000058
388 0.000064
389 0.000077
390 0.000102
391 0.000127
392 0.000162
393 0.000208
394 0.000238
395 0.000239
396 0.000261
397 0.000262
398 0.000266
399 0.000251
400 0.000247
401 0.000259
402 0.000263
403 0.000267
404 0.000250
405 0.000254
406 0.000259
407 0.000274
408 0.000299
409 0.000325
410 0.000346
411 0.000322
412 0.000271
413 0.000216
414 0.000181
415 0.000165
416 0.000143
417 0.000120
418 0.000091
419 0.000087
420 0.000112
421 0.000146
422 0.000195
423 0.000265
424 0.000320
425 0.000340
426 0.000342
427 0.000346
428 0.000365
429 0.000370
430 0.000359
431 0.000314
432 0.000264
433 0.000222
434 0.000195
435 0.000172
436 0.000137
437 0.000097
438 0.000072
439 0.000060
440 0.000050
441 0.000068
442 0.000094
443 0.000148
444 0.000235
445 0.000271
446 0.000308
447 0.000298
448 0.000271
449 0.000256
450 0.000223
451 0.000182
452 0.000125
453 0.000092
454 0.000074
455 0.000049
456 0.000046
457 0.000059
458 0.000045
459 0.000070
460 0.000064
461 0.000049
462 0.000051
463 0.000086
464 0.000127
465 0.000149
466 0.000173
467 0.000159
468 0.000126
469 0.000130
470 0.000145
471 0.000169
472 0.000196
473 0.000234
474 0.000249
475 0.000262
476 0.000239
477 0.000241
478 0.000218
479 0.000195
480 0.000201
481 0.000192
482 0.000200
483 0.000218
484 0.000215
485 0.000214
486 0.000222
487 0.000213
488 0.000213
489 0.000228
490 0.000258
491 0.000263
492 0.000246
493 0.000251
494 0.000245
495 0.000250
496 0.000272
497 0.000280
498 0.000285
499 0.000282
500 0.000269
501 0.000250
502 0.000235
503 0.000224
504 0.000179
505 0.000132
506 0.000120
507 0.000118
508 0.000114
509 0.000134
510 0.000127
511 0.000134
512 0.000138
513 0.000142
514 0.000152
515 0.000164
516 0.000180
517 0.000202
518 0.000216
519 0.000230
520 0.000249
521 0.000270
522 0.000287
523 0.000293
524 0.000290
525 0.000306
526 0.000295
527 0.000283
528 0.000285
529 0.000293
530 0.000312
531 0.000304
532 0.000276
533 0.000260
534 0.000224
535 0.000198
536 0.000181
537 0.000186
538 0.000191
539 0.000187
540 0.000194
541 0.000205
542 0.000207
543 0.000215
544 0.000206
545 0.000204
546 0.000192
547 0.000190
548 0.000184
549 0.000152
550 0.000143
551 0.000129
552 0.000108
553 0.000094
554 0.000098
555 0.000093
556 0.000088
557 0.000081
558 0.000072
559 0.000072
560 0.000055
561 0.000061
562 0.000085
563 0.000128
564 0.000161
565 0.000178
566 0.000183
567 0.000183
568 0.000178
569 0.000194
570 0.000215
571 0.000226
572 0.000221
573 0.000214
574 0.000211
575 0.000205
576 0.000195
577 0.000193
578 0.000206
579 0.000229
580 0.000248
581 0.000260
582 0.000285
583 0.000304
584 0.000313
585 0.000349
586 0.000353
587 0.000368
588 0.000350
589 0.000304
590 0.000306
591 0.000289
592 0.000289
593 0.000289
594 0.000268
595 0.000268
596 0.000248
597 0.000239
598 0.000237
599 0.000223
600 0.000202
601 0.000163
602 0.000113
603 0.000087
604 0.000092
605 0.000101
606 0.000098
607 0.000109
608 0.000111
609 0.000123
610 0.000125
611 0.000120
612 0.000121
613 0.000111
614 0.000089
615 0.000055
616 0.000040
617 0.000053
618 0.000081
619 0.000102
620 0.000120
621 0.000118
622 0.000084
623 0.000034
624 0.000004
625 -0.000015
626 -0.000035
627 -0.000048
628 -0.000063
629 -0.000076
630 -0.000081
631 -0.000082
632 -0.000083
633 -0.000071
634 -0.000047
635 0.000001
636 0.000042
637 0.000067
638 0.000072
639 0.000057
640 0.000057
641 0.000043
642 0.000017
643 0.000008
644 0.000008
645 0.000018
646 0.000036
647 0.000047
648 0.000057
649 0.000047
650 0.000037
651 0.000017
652 0.000028
653 0.000039
654 0.000052
655 0.000090
656 0.000093
657 0.000101
658 0.000105
659 0.000094
660 0.000089
661 0.000078
662 0.000061
663 0.000047
664 0.000027
665 -0.000002
666 -0.000020
667 -0.000042
668 -0.000043
669 -0.000050
670 -0.000047
671 -0.000019
672 0.000003
673 0.000022
674 0.000034
675 0.000028
676 0.000018
677 -0.000018
678 -0.000040
679 -0.000062
680 -0.000104
681 -0.000119
682 -0.000108
683 -0.000088
684 -0.000071
685 -0.000060
686 -0.000030
687 -0.000018
688 -0.000009
689 -0.000011
690 -0.000017
691 -0.000013
692 -0.000011
693 0.000001
694 0.000013
695 0.000033
696 0.000035
697 0.000052
698 0.000071
699 0.000090
700 0.000109
701 0.000109
702 0.000114
703 0.000122
704 0.000124
705 0.000121
706 0.000112
707 0.000102
708 0.000102
709 0.000097
710 0.000087
711 0.000075
712 0.000061
713 0.000046
714 0.000035
715 0.000027
716 0.000027
717 0.000036
718 0.000052
719 0.000064
720 0.000067
721 0.000077
722 0.000083
723 0.000106
724 0.000114
725 0.000117
726 0.000110
727 0.000102
728 0.000098
729 0.000090
730 0.000076
731 0.000071
732 0.000059
733 0.000059
734 0.000064
735 0.000058
736 0.000060
737 0.000077
738 0.000090
739 0.000114
740 0.000141
741 0.000167
742 0.000199
743 0.000219
744 0.000236
745 0.000233
746 0.000229
747 0.000243
748 0.000253
749 0.000269
750 0.000269
751 0.000266
752 0.000259
753 0.000245
754 0.000240
755 0.000221
756 0.000214
757 0.000215
758 0.000210
759 0.000212
760 0.000207
761 0.000217
762 0.000223
763 0.000227
764 0.000218
765 0.000218
766 0.000210
767 0.000213
768 0.000218
769 0.000213
770 0.000230
771 0.000238
772 0.000236
773 0.000232
774 0.000232
775 0.000240
776 0.000228
777 0.000211
778 0.000181
779 0.000157
780 0.000147
781 0.000144
782 0.000143
783 0.000136
784 0.000129
785 0.000116
786 0.000103
787 0.000096
788 0.000072
789 0.000061
790 0.000061
791 0.000071
792 0.000074
793 0.000055
794 0.000051
795 0.000046
796 0.000049
797 0.000051
798 0.000040
799 0.000030
800 0.000033
801 0.000034
802 0.000034
803 0.000026
804 0.000025
805 0.000021
806 0.000022
807 0.000029
808 0.000035
809 0.000041
