# i correlation
1 0.003359
2 0.003040
3 0.002789
4 0.002558
5 0.002363
6 0.002208
7 0.002073
8 0.002013
9 0.001945
10 0.001902
11 0.001871
12 0.001820
13 0.001807
14 0.001804
15 0.001763
16 0.001733
17 0.001750
18 0.001731
19 0.001728
20 0.001736
21 0.001705
22 0.001683
23 0.001662
24 0.001622
25 0.001551
26 0.001485
27 0.001453
28 0.001451
29 0.001433
30 0.001444
31 0.001457
32 0.001457
33 0.001442
34 0.001416
35 0.001382
36 0.001336
37 0.001287
38 0.001235
39 0.001190
40 0.001161
41 0.001146
42 0.001141
43 0.001165
44 0.001148
45 0.001137
46 0.001131
47 0.001130
48 0.001131
49 0.001118
50 0.001108
51 0.001091
52 0.001080
53 0.001114
54 0.001141
55 0.001139
56 0.001119
57 0.001125
58 0.001139
59 0.001148
60 0.001160
61 0.001147
62 0.001122
63 0.001115
64 0.001096
65 0.001125
66 0.001137
67 0.001141
68 0.001132
69 0.001126
70 0.001137
71 0.001153
72 0.001155
73 0.001150
74 0.001137
75 0.001151
76 0.001168
77 0.001186
78 0.001216
79 0.001216
80 0.001201
81 0.001179
82 0.001124
83 0.001078
84 0.001063
85 0.001027
86 0.001002
87 0.000994
88 0.000981
89 0.000989
90 0.000988
91 0.000974
92 0.000972
93 0.000987
94 0.001004
95 0.001030
96 0.001055
97 0.001083
98 0.001118
99 0.001129
100 0.001147
101 0.001179
102 0.001178
103 0.001141
104 0.001102
105 0.001057
106 0.001020
107 0.000973
108 0.000973
109 0.000981
110 0.000963
111 0.000936
112 0.000904
113 0.000872
114 0.000867
115 0.000836
116 0.000825
117 0.000840
118 0.000867
119 0.000897
120 0.000911
121 0.000904
122 0.000911
123 0.000925
124 0.000914
125 0.000905
126 0.000928
127 0.000942
128 0.000972
129 0.001002
130 0.001049
131 0.001101
132 0.001148
133 0.001194
134 0.001218
135 0.001243
136 0.001245
137 0.001279
138 0.001304
139 0.001341
140 0.001363
141 0.001383
142 0.001380
143 0.001383
144 0.001351
145 0.001309
146 0.001272
147 0.001248
148 0.001183
149 0.001142
150 0.001138
151 0.001127
152 0.001130
153 0.001163
154 0.001209
155 0.001268
156 0.001310
157 0.001331
158 0.001349
159 0.001357
160 0.001387
161 0.001412
162 0.001428
163 0.001445
164 0.001438
165 0.001405
166 0.001388
167 0.001370
168 0.001322
169 0.001269
170 0.001215
171 0.001193
172 0.001144
173 0.001122
174 0.001115
175 0.001095
176 0.001065
177 0.001083
178 0.001110
179 0.001144
180 0.001190
181 0.001229
182 0.001253
183 0.001268
184 0.001269
185 0.001253
186 0.001226
187 0.001174
188 0.001142
189 0.001103
190 0.001060
191 0.001024
192 0.001007
193 0.001014
194 0.001001
195 0.000993
196 0.000987
197 0.000980
198 0.000982
199 0.000986
200 0.000976
201 0.000984
202 0.000986
203 0.000989
204 0.000968
205 0.000952
206 0.000954
207 0.000945
208 0.000921
209 0.000896
210 0.000877
211 0.000859
212 0.000886
213 0.000919
214 0.000975
215 0.001013
216 0.001043
217 0.001059
218 0.001081
219 0.001080
220 0.001087
221 0.001073
222 0.001035
223 0.000979
224 0.000926
225 0.000891
226 0.000893
227 0.000897
228 0.000919
229 0.000930
230 0.000923
231 0.000908
232 0.000918
233 0.000941
234 0.000978
235 0.000995
236 0.000999
237 0.001030
238 0.001060
239 0.001040
240 0.001011
241 0.000969
242 0.000917
243 0.000877
244 0.000816
245 0.000784
246 0.000776
247 0.000773
248 0.000788
249 0.000829
250 0.000852
251 0.000884
252 0.000902
253 0.000891
254 0.000883
255 0.000901
256 0.000890
257 0.000888
258 0.000913
259 0.000936
260 0.000967
261 0.001005
262 0.001021
263 0.001045
264 0.001056
265 0.001061
266 0.001052
267 0.001020
268 0.001012
269 0.001008
270 0.000966
271 0.000952
272 0.000973
273 0.001009
274 0.001036
275 0.001035
276 0.001009
277 0.000997
278 0.000992
279 0.001003
280 0.001028
281 0.001046
282 0.001064
283 0.001097
284 0.001071
285 0.001059
286 0.001052
287 0.001023
288 0.001013
289 0.000998
290 0.000985
291 0.000986
292 0.001001
293 0.001005
294 0.001017
295 0.001019
296 0.001041
297 0.001067
298 0.001077
299 0.001082
300 0.001099
301 0.001066
302 0.001014
303 0.001004
304 0.000972
305 0.000952
306 0.000940
307 0.000942
308 0.000958
309 0.000970
310 0.000959
311 0.000962
312 0.000945
313 0.000942
314 0.000958
315 0.000959
316 0.000972
317 0.000971
318 0.000970
319 0.000973
320 0.000975
321 0.000969
322 0.000965
323 0.000970
324 0.000974
325 0.000967
326 0.000971
327 0.000980
328 0.000993
329 0.001004
330 0.001005
331 0.001006
332 0.000978
333 0.000963
334 0.000942
335 0.000920
336 0.000904
337 0.000879
338 0.000868
339 0.000891
340 0.000896
341 0.000901
342 0.000899
343 0.000892
344 0.000899
345 0.000896
346 0.000889
347 0.000869
348 0.000840
349 0.000839
350 0.000818
351 0.000769
352 0.000755
353 0.000771
354 0.000762
355 0.000741
356 0.000753
357 0.000796
358 0.000823
359 0.000851
360 0.000860
361 0.000883
362 0.000875
363 0.000881
364 0.000880
365 0.000860
366 0.000838
367 0.000811
368 0.000768
369 0.000750
370 0.000754
371 0.000756
372 0.000758
373 0.000766
374 0.000792
375 0.000802
376 0.000824
377 0.000839
378 0.000853
379 0.000834
380 0.000822
381 0.000830
382 0.000814
383 0.000765
384 0.000736
385 0.000693
386 0.000653
387 0.000622
388 0.000572
389 0.000537
390 0.000509
391 0.000501
392 0.000540
393 0.000584
394 0.000626
395 0.000664
396 0.000704
397 0.000707
398 0.000698
399 0.000686
400 0.000678
401 0.000680
402 0.000661
403 0.000617
404 0.000597
405 0.000584
406 0.000605
407 0.000605
408 0.000602
409 0.000612
410 0.000625
411 0.000638
412 0.000655
413 0.000686
414 0.000718
415 0.000740
416 0.000764
417 0.000803
418 0.000838
419 0.000860
420 0.000891
421 0.000909
422 0.000903
423 0.000899
424 0.000895
425 0.000880
426 0.000856
427 0.000852
428 0.000865
429 0.000888
430 0.000907
431 0.000908
432 0.000906
433 0.000900
434 0.000895
435 0.000887
436 0.000897
437 0.000901
438 0.000894
439 0.000874
440 0.000855
441 0.000828
442 0.000820
443 0.000805
444 0.000777
445 0.000724
446 0.000689
447 0.000692
448 0.000678
449 0.000654
450 0.000638
451 0.000632
452 0.000624
453 0.000628
454 0.000657
455 0.000680
456 0.000675
457 0.000667
458 0.000659
459 0.000639
460 0.000603
461 0.000593
462 0.000567
463 0.000548
464 0.000550
465 0.000524
466 0.000507
467 0.000531
468 0.000521
469 0.000493
470 0.000459
471 0.000458
472 0.000462
473 0.000458
474 0.000465
475 0.000483
476 0.000500
477 0.000511
478 0.000526
479 0.000529
480 0.000545
481 0.000557
482 0.000556
483 0.000539
484 0.000500
485 0.000482
486 0.000463
487 0.000457
488 0.000447
489 0.000431
490 0.000420
491 0.000416
492 0.000410
493 0.000411
494 0.000407
495 0.000443
496 0.000485
497 0.000521
498 0.000531
499 0.000538
500 0.000540
501 0.000560
502 0.000573
503 0.000549
504 0.000518
505 0.000499
506 0.000489
507 0.000496
508 0.000497
509 0.000499
510 0.000510
511 0.000511
512 0.000520
513 0.000526
514 0.000520
515 0.000533
516 0.000528
517 0.000507
518 0.000473
519 0.000438
520 0.000419
521 0.000402
522 0.000390
523 0.000385
524 0.000393
525 0.000390
526 0.000397
527 0.000387
528 0.000366
529 0.000363
530 0.000360
531 0.000365
532 0.000372
533 0.000364
534 0.000360
535 0.000342
536 0.000307
537 0.000283
538 0.000254
539 0.000241
540 0.000232
541 0.000210
542 0.000181
543 0.000167
544 0.000129
545 0.000131
546 0.000127
547 0.000108
548 0.000107
549 0.000094
550 0.000094
551 0.000115
552 0.000136
553 0.000158
554 0.000161
555 0.000168
556 0.000223
557 0.000264
558 0.000302
559 0.000340
560 0.000378
561 0.000408
562 0.000410
563 0.000408
564 0.000406
565 0.000408
566 0.000405
567 0.000407
568 0.000404
569 0.000410
570 0.000383
571 0.000350
572 0.000330
573 0.000338
574 0.000345
575 0.000380
576 0.000401
577 0.000446
578 0.000480
579 0.000506
580 0.000529
581 0.000544
582 0.000554
583 0.000567
584 0.000560
585 0.000541
586 0.000527
587 0.000510
588 0.000490
589 0.000480
590 0.000468
591 0.000472
592 0.000485
593 0.000496
594 0.000523
595 0.000538
596 0.000547
597 0.000551
598 0.000559
599 0.000565
600 0.000572
601 0.000573
602 0.000570
603 0.000562
604 0.000565
605 0.000552
606 0.000529
607 0.000504
608 0.000488
609 0.000473
610 0.000475
611 0.000495
612 0.000503
613 0.000512
614 0.000536
615 0.000548
616 0.000553
617 0.000522
618 0.000501
619 0.000479
620 0.000447
621 0.000423
622 0.000410
623 0.000393
624 0.000394
625 0.000386
626 0.000380
627 0.000386
628 0.000382
629 0.000381
630 0.000391
631 0.000390
632 0.000410
633 0.000413
634 0.000416
635 0.000441
636 0.000464
637 0.000471
638 0.000491
639 0.000504
640 0.000512
641 0.000509
642 0.000517
643 0.000522
644 0.000520
645 0.000507
646 0.000500
647 0.000496
648 0.000483
649 0.000468
650 0.000454
651 0.000417
652 0.000396
653 0.000393
654 0.000396
655 0.000411
656 0.000444
657 0.000486
658 0.000514
659 0.000539
660 0.000545
661 0.000553
662 0.000570
663 0.000586
664 0.000601
665 0.000599
666 0.000587
667 0.000562
668 0.000539
669 0.000522
670 0.000517
671 0.000486
672 0.000451
673 0.000424
674 0.000397
675 0.000378
676 0.000377
677 0.000360
678 0.000340
679 0.000332
680 0.000313
681 0.000297
682 0.000283
683 0.000262
684 0.000241
685 0.000245
686 0.000260
687 0.000283
688 0.000283
689 0.000277
690 0.000275
691 0.000268
692 0.000270
693 0.000289
694 0.000300
695 0.000325
696 0.000346
697 0.000340
698 0.000322
699 0.000305
700 0.000279
701 0.000248
702 0.000222
703 0.000207
704 0.000186
705 0.000158
706 0.000142
707 0.000125
708 0.000104
709 0.000075
710 0.000063
711 0.000043
712 0.000031
713 0.000026
714 0.000031
715 0.000042
716 0.000064
717 0.000082
718 0.000085
719 0.000098
720 0.000105
721 0.000084
722 0.000071
723 0.000078
724 0.000079
725 0.000077
726 0.000064
727 0.000054
728 0.000054
729 0.000043
730 0.000046
731 0.000035
732 0.000005
733 -0.000009
734 -0.000019
735 -0.000004
736 0.000036
737 0.000073
738 0.000092
739 0.000100
740 0.000109
741 0.000120
742 0.000121
743 0.000116
744 0.000106
745 0.000114
746 0.000141
747 0.000163
748 0.000168
749 0.000163
750 0.000160
751 0.000153
752 0.000136
753 0.000115
754 0.000101
755 0.000091
756 0.000084
757 0.000088
758 0.000091
759 0.000105
760 0.000118
761 0.000123
762 0.000141
763 0.000144
764 0.000140
765 0.000157
766 0.000181
767 0.000199
768 0.000213
769 0.000208
770 0.000195
771 0.000185
772 0.000166
773 0.000156
774 0.000156
775 0.000150
776 0.000145
777 0.000146
778 0.000151
779 0.000162
780 0.000161
781 0.000159
782 0.000154
783 0.000152
784 0.000140
785 0.000141
786 0.000143
787 0.000143
788 0.000147
789 0.000147
790 0.000144
791 0.000139
792 0.000122
793 0.000112
794 0.000113
795 0.000130
796 0.000168
797 0.000205
798 0.000231
799 0.000249
800 0.000253
801 0.000246
802 0.000218
803 0.000196
804 0.000173
805 0.000158
806 0.000145
807 0.000125
808 0.000108
809 0.000092
