# i correlation
1 0.003917
2 0.003588
3 0.003336
4 0.003125
5 0.002970
6 0.002792
7 0.002612
8 0.002502
9 0.002395
10 0.002286
11 0.002194
12 0.002151
13 0.002131
14 0.002092
15 0.002037
16 0.001983
17 0.001949
18 0.001962
19 0.001964
20 0.001950
21 0.001956
22 0.001952
23 0.001911
24 0.001872
25 0.001818
26 0.001795
27 0.001778
28 0.001724
29 0.001696
30 0.001716
31 0.001717
32 0.001702
33 0.001699
34 0.001699
35 0.001683
36 0.001667
37 0.001680
38 0.001724
39 0.001786
40 0.001786
41 0.001787
42 0.001791
43 0.001821
44 0.001834
45 0.001845
46 0.001865
47 0.001895
48 0.001912
49 0.001894
50 0.001855
51 0.001818
52 0.001810
53 0.001814
54 0.001806
55 0.001763
56 0.001696
57 0.001650
58 0.001594
59 0.001541
60 0.001488
61 0.001463
62 0.001455
63 0.001433
64 0.001417
65 0.001420
66 0.001430
67 0.001422
68 0.001407
69 0.001373
70 0.001380
71 0.001383
72 0.001339
73 0.001296
74 0.001272
75 0.001271
76 0.001282
77 0.001317
78 0.001330
79 0.001337
80 0.001346
81 0.001319
82 0.001283
83 0.001230
84 0.001189
85 0.001170
86 0.001150
87 0.001122
88 0.001117
89 0.001132
90 0.001136
91 0.001128
92 0.001133
93 0.001150
94 0.001161
95 0.001170
96 0.001214
97 0.001261
98 0.001288
99 0.001281
100 0.001280
101 0.001277
102 0.001272
103 0.001266
104 0.001238
105 0.001235
106 0.001201
107 0.001199
108 0.001195
109 0.001207
110 0.001241
111 0.001267
112 0.001255
113 0.001243
114 0.001213
115 0.001193
116 0.001179
117 0.001172
118 0.001160
119 0.001157
120 0.001137
121 0.001103
122 0.001043
123 0.001031
124 0.001030
125 0.001009
126 0.000984
127 0.000973
128 0.000983
129 0.000999
130 0.000979
131 0.000955
132 0.000931
133 0.000923
134 0.000920
135 0.000893
136 0.000872
137 0.000876
138 0.000883
139 0.000899
140 0.000907
141 0.000912
142 0.000935
143 0.000948
144 0.000967
145 0.000995
146 0.000972
147 0.000968
148 0.000974
149 0.000959
150 0.000958
151 0.000979
152 0.001002
153 0.000993
154 0.000963
155 0.000939
156 0.000897
157 0.000893
158 0.000892
159 0.000890
160 0.000875
161 0.000826
162 0.000803
163 0.000833
164 0.000878
165 0.000892
166 0.000883
167 0.000894
168 0.000868
169 0.000843
170 0.000812
171 0.000805
172 0.000791
173 0.000799
174 0.000781
175 0.000745
176 0.000723
177 0.000708
178 0.000687
179 0.000647
180 0.000582
181 0.000516
182 0.000472
183 0.000443
184 0.000429
185 0.000441
186 0.000443
187 0.000432
188 0.000404
189 0.000392
190 0.000406
191 0.000403
192 0.000380
193 0.000348
194 0.000339
195 0.000300
196 0.000271
197 0.000275
198 0.000288
199 0.000312
200 0.000333
201 0.000348
202 0.000355
203 0.000360
204 0.000325
205 0.000290
206 0.000268
207 0.000266
208 0.000293
209 0.000295
210 0.000300
211 0.000307
212 0.000322
213 0.000317
214 0.000309
215 0.000284
216 0.000305
217 0.000316
218 0.000343
219 0.000366
220 0.000367
221 0.000398
222 0.000430
223 0.000451
224 0.000466
225 0.000472
226 0.000435
227 0.000388
228 0.000351
229 0.000316
230 0.000291
231 0.000269
232 0.000235
233 0.000199
234 0.000163
235 0.000124
236 0.000071
237 0.000060
238 0.000069
239 0.000064
240 0.000071
241 0.000094
242 0.000125
243 0.000146
244 0.000180
245 0.000190
246 0.000198
247 0.000212
248 0.000208
249 0.000203
250 0.000197
251 0.000172
252 0.000157
253 0.000137
254 0.000105
255 0.000102
256 0.000095
257 0.000063
258 0.000030
259 -0.000010
260 -0.000017
261 -0.000010
262 0.000007
263 0.000037
264 0.000089
265 0.000163
266 0.000209
267 0.000254
268 0.000311
269 0.000365
270 0.000408
271 0.000430
272 0.000411
273 0.000369
274 0.000355
275 0.000337
276 0.000328
277 0.000309
278 0.000304
279 0.000275
280 0.000234
281 0.000163
282 0.000121
283 0.000095
284 0.000041
285 -0.000020
286 -0.000039
287 -0.000052
288 -0.000029
289 -0.000014
290 -0.000035
291 -0.000064
292 -0.000088
293 -0.000133
294 -0.000190
295 -0.000232
296 -0.000246
297 -0.000226
298 -0.000187
299 -0.000158
300 -0.000155
301 -0.000128
302 -0.000102
303 -0.000097
304 -0.000082
305 -0.000108
306 -0.000175
307 -0.000225
308 -0.000252
309 -0.000280
310 -0.000292
311 -0.000269
312 -0.000265
313 -0.000242
314 -0.000230
315 -0.000228
316 -0.000206
317 -0.000169
318 -0.000126
319 -0.000056
320 -0.000021
321 -0.000003
322 0.000009
323 0.000013
324 0.000012
325 0.000022
326 0.000017
327 0.000009
328 -0.000006
329 -0.000023
330 -0.000049
331 -0.000033
332 -0.000011
333 -0.000005
334 -0.000016
335 0.000008
336 0.000009
337 0.000022
338 0.000022
339 0.000004
340 0.000017
341 0.000042
342 0.000090
343 0.000149
344 0.000182
345 0.000208
346 0.000247
347 0.000258
348 0.000272
349 0.000261
350 0.000259
351 0.000267
352 0.000263
353 0.000258
354 0.000254
355 0.000245
356 0.000223
357 0.000217
358 0.000206
359 0.000185
360 0.000181
361 0.000174
362 0.000153
363 0.000143
364 0.000117
365 0.000111
366 0.000150
367 0.000168
368 0.000198
369 0.000215
370 0.000217
371 0.000205
372 0.000195
373 0.000188
374 0.000193
375 0.000184
376 0.000180
377 0.000162
378 0.000150
379 0.000171
380 0.000171
381 0.000178
382 0.000171
383 0.000171
384 0.000150
385 0.000144
386 0.000145
387 0.000138
388 0.000136
389 0.000144
390 0.000164
391 0.000155
392 0.000136
393 0.000143
394 0.000146
395 0.000166
396 0.000202
397 0.000242
398 0.000287
399 0.000327
400 0.000310
401 0.000305
402 0.000301
403 0.000293
404 0.000285
405 0.000261
406 0.000227
407 0.000226
408 0.000233
409 0.000236
410 0.000212
411 0.000185
412 0.000187
413 0.000202
414 0.000204
415 0.000222
416 0.000235
417 0.000263
418 0.000270
419 0.000262
420 0.000257
421 0.000243
422 0.000256
423 0.000256
424 0.000247
425 0.000223
426 0.000193
427 0.000188
428 0.000220
429 0.000226
430 0.000214
431 0.000222
432 0.000225
433 0.000222
434 0.000223
435 0.000205
436 0.000192
437 0.000201
438 0.000196
439 0.000176
440 0.000169
441 0.000176
442 0.000218
443 0.000241
444 0.000238
445 0.000258
446 0.000280
447 0.000311
448 0.000305
449 0.000292
450 0.000283
451 0.000272
452 0.000274
453 0.000247
454 0.000219
455 0.000202
456 0.000187
457 0.000158
458 0.000136
459 0.000118
460 0.000097
461 0.000106
462 0.000129
463 0.000153
464 0.000175
465 0.000214
466 0.000230
467 0.000251
468 0.000250
469 0.000253
470 0.000256
471 0.000248
472 0.000229
473 0.000203
474 0.000185
475 0.000186
476 0.000193
477 0.000223
478 0.000240
479 0.000248
480 0.000234
481 0.000218
482 0.000207
483 0.000183
484 0.000175
485 0.000178
486 0.000183
487 0.000168
488 0.000177
489 0.000197
490 0.000232
491 0.000262
492 0.000279
493 0.000277
494 0.000270
495 0.000266
496 0.000279
497 0.000264
498 0.000239
499 0.000254
500 0.000272
501 0.000287
502 0.000290
503 0.000260
504 0.000247
505 0.000267
506 0.000272
507 0.000259
508 0.000268
509 0.000287
510 0.000312
511 0.000342
512 0.000358
513 0.000367
514 0.000376
515 0.000381
516 0.000379
517 0.000383
518 0.000386
519 0.000381
520 0.000383
521 0.000389
522 0.000402
523 0.000393
524 0.000378
525 0.000363
526 0.000359
527 0.000366
528 0.000336
529 0.000293
530 0.000273
531 0.000264
532 0.000260
533 0.000255
534 0.000224
535 0.000214
536 0.000209
537 0.000178
538 0.000167
539 0.000149
540 0.000152
541 0.000139
542 0.000128
543 0.000152
544 0.000185
545 0.000237
546 0.000262
547 0.000272
548 0.000310
549 0.000325
550 0.000302
551 0.000273
552 0.000236
553 0.000228
554 0.000238
555 0.000224
556 0.000220
557 0.000207
558 0.000187
559 0.000173
560 0.000158
561 0.000159
562 0.000175
563 0.000185
564 0.000193
565 0.000183
566 0.000194
567 0.000236
568 0.000243
569 0.000265
570 0.000305
571 0.000338
572 0.000378
573 0.000384
574 0.000363
575 0.000366
576 0.000362
577 0.000332
578 0.000288
579 0.000246
580 0.000229
581 0.000206
582 0.000199
583 0.000170
584 0.000128
585 0.000084
586 0.000058
587 0.000048
588 0.000060
589 0.000058
590 0.000066
591 0.000072
592 0.000081
593 0.000114
594 0.000153
595 0.000182
596 0.000193
597 0.000202
598 0.000204
599 0.000208
600 0.000201
601 0.000203
602 0.000220
603 0.000241
604 0.000250
605 0.000223
606 0.000204
607 0.000183
608 0.000155
609 0.000144
610 0.000139
611 0.000127
612 0.000109
613 0.000089
614 0.000066
615 0.000078
616 0.000098
617 0.000108
618 0.000138
619 0.000146
620 0.000153
621 0.000173
622 0.000176
623 0.000171
624 0.000167
625 0.000169
626 0.000162
627 0.000128
628 0.000100
629 0.000082
630 0.000084
631 0.000071
632 0.000060
633 0.000054
634 0.000066
635 0.000055
636 0.000050
637 0.000048
638 0.000028
639 0.000010
640 -0.000011
641 -0.000023
642 -0.000035
643 -0.000036
644 -0.000039
645 -0.000034
646 -0.000026
647 -0.000033
648 -0.000029
649 -0.000039
650 -0.000035
651 -0.000022
652 -0.000017
653 -0.000020
654 -0.000040
655 -0.000056
656 -0.000055
657 -0.000057
658 -0.000092
659 -0.000121
660 -0.000152
661 -0.000161
662 -0.000178
663 -0.000193
664 -0.000181
665 -0.000173
666 -0.000172
667 -0.000178
668 -0.000172
669 -0.000145
670 -0.000120
671 -0.000119
672 -0.000109
673 -0.000102
674 -0.000090
675 -0.000070
676 -0.000071
677 -0.000071
678 -0.000060
679 -0.000056
680 -0.000050
681 -0.000064
682 -0.000077
683 -0.000072
684 -0.000069
685 -0.000068
686 -0.000067
687 -0.000045
688 -0.000026
689 -0.000035
690 -0.000049
691 -0.000049
692 -0.000066
693 -0.000052
694 -0.000064
695 -0.000067
696 -0.000060
697 -0.000085
698 -0.000106
699 -0.000124
700 -0.000117
701 -0.000103
702 -0.000098
703 -0.000102
704 -0.000116
705 -0.000134
706 -0.000145
707 -0.000131
708 -0.000130
709 -0.000122
710 -0.000127
711 -0.000126
712 -0.000109
713 -0.000104
714 -0.000089
715 -0.000071
716 -0.000044
717 -0.000010
718 0.000019
719 0.000034
720 0.000047
721 0.000073
722 0.000085
723 0.000094
724 0.000078
725 0.000042
726 0.000023
727 0.000005
728 -0.000017
729 -0.000043
730 -0.000059
731 -0.000073
732 -0.000080
733 -0.000072
734 -0.000048
735 -0.000020
736 0.000000
737 0.000007
738 0.000011
739 0.000017
740 0.000019
741 0.000031
742 0.000041
743 0.000047
744 0.000043
745 0.000033
746 0.000030
747 0.000039
748 0.000059
749 0.000082
750 0.000091
751 0.000095
752 0.000094
753 0.000096
754 0.000094
755 0.000103
756 0.000127
757 0.000154
758 0.000166
759 0.000171
760 0.000180
761 0.000206
762 0.000218
763 0.000224
764 0.000229
765 0.000225
766 0.000223
767 0.000212
768 0.000203
769 0.000186
770 0.000178
771 0.000158
772 0.000135
773 0.000125
774 0.000130
775 0.000129
776 0.000113
777 0.000100
778 0.000103
779 0.000114
780 0.000129
781 0.000136
782 0.000146
783 0.000158
784 0.000157
785 0.000157
786 0.000155
787 0.000161
788 0.000178
789 0.000186
790 0.000180
791 0.000168
792 0.000155
793 0.000142
794 0.000137
795 0.000123
796 0.000119
797 0.000115
798 0.000122
799 0.000106
800 0.000099
801 0.000101
802 0.000100
803 0.000103
804 0.000107
805 0.000100
806 0.000081
807 0.000057
808 0.000033
809 0.000015
