# i correlation
1 0.003796
2 0.003482
3 0.003213
4 0.003030
5 0.002859
6 0.002691
7 0.002579
8 0.002497
9 0.002414
10 0.002344
11 0.002292
12 0.002249
13 0.002202
14 0.002186
15 0.002239
16 0.002238
17 0.002196
18 0.002105
19 0.002044
20 0.002003
21 0.001959
22 0.001923
23 0.001885
24 0.001817
25 0.001752
26 0.001717
27 0.001688
28 0.001677
29 0.001686
30 0.001735
31 0.001790
32 0.001800
33 0.001767
34 0.001747
35 0.001715
36 0.001710
37 0.001684
38 0.001718
39 0.001760
40 0.001747
41 0.001736
42 0.001733
43 0.001730
44 0.001715
45 0.001734
46 0.001765
47 0.001805
48 0.001842
49 0.001884
50 0.001900
51 0.001909
52 0.001908
53 0.001919
54 0.001908
55 0.001864
56 0.001809
57 0.001783
58 0.001772
59 0.001770
60 0.001756
61 0.001726
62 0.001683
63 0.001634
64 0.001590
65 0.001543
66 0.001497
67 0.001467
68 0.001440
69 0.001399
70 0.001411
71 0.001400
72 0.001417
73 0.001411
74 0.001409
75 0.001390
76 0.001351
77 0.001320
78 0.001316
79 0.001316
80 0.001327
81 0.001318
82 0.001322
83 0.001332
84 0.001359
85 0.001373
86 0.001350
87 0.001348
88 0.001342
89 0.001356
90 0.001394
91 0.001402
92 0.001388
93 0.001410
94 0.001435
95 0.001452
96 0.001459
97 0.001456
98 0.001472
99 0.001477
100 0.001465
101 0.001454
102 0.001462
103 0.001423
104 0.001383
105 0.001315
106 0.001295
107 0.001245
108 0.001201
109 0.001155
110 0.001133
111 0.001132
112 0.001103
113 0.001101
114 0.001104
115 0.001088
116 0.001054
117 0.001020
118 0.000988
119 0.000962
120 0.000933
121 0.000925
122 0.000904
123 0.000906
124 0.000909
125 0.000911
126 0.000893
127 0.000887
128 0.000865
129 0.000864
130 0.000883
131 0.000919
132 0.000971
133 0.001000
134 0.001051
135 0.001080
136 0.001127
137 0.001162
138 0.001199
139 0.001230
140 0.001241
141 0.001204
142 0.001201
143 0.001203
144 0.001179
145 0.001162
146 0.001155
147 0.001166
148 0.001175
149 0.001172
150 0.001160
151 0.001164
152 0.001186
153 0.001183
154 0.001202
155 0.001199
156 0.001184
157 0.001152
158 0.001095
159 0.001040
160 0.000979
161 0.000935
162 0.000876
163 0.000856
164 0.000814
165 0.000763
166 0.000745
167 0.000721
168 0.000723
169 0.000723
170 0.000725
171 0.000699
172 0.000699
173 0.000708
174 0.000705
175 0.000717
176 0.000740
177 0.000748
178 0.000786
179 0.000799
180 0.000783
181 0.000759
182 0.000732
183 0.000723
184 0.000735
185 0.000752
186 0.000771
187 0.000752
188 0.000737
189 0.000738
190 0.000725
191 0.000748
192 0.000789
193 0.000843
194 0.000858
195 0.000901
196 0.000949
197 0.000982
198 0.000991
199 0.001006
200 0.001029
201 0.001042
202 0.000998
203 0.000937
204 0.000888
205 0.000830
206 0.000801
207 0.000775
208 0.000804
209 0.000826
210 0.000827
211 0.000817
212 0.000801
213 0.000774
214 0.000740
215 0.000739
216 0.000742
217 0.000736
218 0.000725
219 0.000690
220 0.000638
221 0.000572
222 0.000528
223 0.000529
224 0.000543
225 0.000565
226 0.000574
227 0.000612
228 0.000665
229 0.000721
230 0.000756
231 0.000803
232 0.000840
233 0.000897
234 0.000948
235 0.000976
236 0.000969
237 0.000939
238 0.000930
239 0.000967
240 0.001015
241 0.001043
242 0.001083
243 0.001095
244 0.001096
245 0.001112
246 0.001114
247 0.001112
248 0.001100
249 0.001099
250 0.001106
251 0.001089
252 0.001053
253 0.001005
254 0.000973
255 0.000931
256 0.000918
257 0.000907
258 0.000899
259 0.000885
260 0.000859
261 0.000819
262 0.000781
263 0.000752
264 0.000711
265 0.000674
266 0.000635
267 0.000607
268 0.000581
269 0.000596
270 0.000605
271 0.000603
272 0.000587
273 0.000571
274 0.000571
275 0.000569
276 0.000570
277 0.000561
278 0.000556
279 0.000569
280 0.000564
281 0.000576
282 0.000580
283 0.000566
284 0.000568
285 0.000567
286 0.000602
287 0.000641
288 0.000689
289 0.000717
290 0.000757
291 0.000780
292 0.000779
293 0.000782
294 0.000787
295 0.000792
296 0.000781
297 0.000775
298 0.000743
299 0.000727
300 0.000702
301 0.000682
302 0.000689
303 0.000705
304 0.000702
305 0.000695
306 0.000682
307 0.000699
308 0.000691
309 0.000703
310 0.000703
311 0.000652
312 0.000621
313 0.000588
314 0.000569
315 0.000559
316 0.000519
317 0.000498
318 0.000473
319 0.000451
320 0.000449
321 0.000431
322 0.000428
323 0.000398
324 0.000398
325 0.000379
326 0.000359
327 0.000333
328 0.000294
329 0.000300
330 0.000330
331 0.000331
332 0.000363
333 0.000390
334 0.000391
335 0.000410
336 0.000427
337 0.000445
338 0.000476
339 0.000520
340 0.000552
341 0.000584
342 0.000580
343 0.000604
344 0.000604
345 0.000622
346 0.000637
347 0.000684
348 0.000734
349 0.000776
350 0.000783
351 0.000773
352 0.000780
353 0.000791
354 0.000800
355 0.000817
356 0.000826
357 0.000807
358 0.000785
359 0.000757
360 0.000753
361 0.000743
362 0.000727
363 0.000709
364 0.000696
365 0.000690
366 0.000678
367 0.000671
368 0.000658
369 0.000666
370 0.000681
371 0.000692
372 0.000704
373 0.000715
374 0.000712
375 0.000707
376 0.000686
377 0.000696
378 0.000717
379 0.000724
380 0.000707
381 0.000704
382 0.000722
383 0.000722
384 0.000725
385 0.000719
386 0.000730
387 0.000741
388 0.000754
389 0.000755
390 0.000739
391 0.000715
392 0.000718
393 0.000720
394 0.000739
395 0.000735
396 0.000741
397 0.000756
398 0.000755
399 0.000752
400 0.000742
401 0.000756
402 0.000761
403 0.000784
404 0.000791
405 0.000802
406 0.000818
407 0.000846
408 0.000869
409 0.000873
410 0.000862
411 0.000854
412 0.000833
413 0.000815
414 0.000783
415 0.000759
416 0.000698
417 0.000651
418 0.000622
419 0.000593
420 0.000588
421 0.000561
422 0.000552
423 0.000536
424 0.000532
425 0.000528
426 0.000550
427 0.000582
428 0.000632
429 0.000657
430 0.000678
431 0.000689
432 0.000680
433 0.000678
434 0.000658
435 0.000651
436 0.000648
437 0.000648
438 0.000654
439 0.000657
440 0.000663
441 0.000672
442 0.000710
443 0.000754
444 0.000787
445 0.000822
446 0.000836
447 0.000839
448 0.000821
449 0.000813
450 0.000808
451 0.000786
452 0.000759
453 0.000737
454 0.000738
455 0.000735
456 0.000722
457 0.000718
458 0.000734
459 0.000731
460 0.000736
461 0.000739
462 0.000741
463 0.000715
464 0.000704
465 0.000683
466 0.000655
467 0.000610
468 0.000565
469 0.000538
470 0.000508
471 0.000478
472 0.000475
473 0.000489
474 0.000502
475 0.000540
476 0.000564
477 0.000595
478 0.000606
479 0.000611
480 0.000622
481 0.000662
482 0.000666
483 0.000649
484 0.000596
485 0.000586
486 0.000593
487 0.000601
488 0.000615
489 0.000624
490 0.000652
491 0.000656
492 0.000672
493 0.000690
494 0.000711
495 0.000730
496 0.000755
497 0.000786
498 0.000807
499 0.000816
500 0.000816
501 0.000795
502 0.000773
503 0.000778
504 0.000766
505 0.000778
506 0.000780
507 0.000768
508 0.000761
509 0.000751
510 0.000731
511 0.000693
512 0.000647
513 0.000622
514 0.000591
515 0.000569
516 0.000549
517 0.000539
518 0.000535
519 0.000531
520 0.000516
521 0.000519
522 0.000511
523 0.000493
524 0.000487
525 0.000478
526 0.000470
527 0.000430
528 0.000405
529 0.000385
530 0.000377
531 0.000341
532 0.000326
533 0.000326
534 0.000324
535 0.000320
536 0.000329
537 0.000328
538 0.000346
539 0.000383
540 0.000434
541 0.000468
542 0.000472
543 0.000446
544 0.000426
545 0.000448
546 0.000467
547 0.000469
548 0.000486
549 0.000509
550 0.000519
551 0.000502
552 0.000464
553 0.000433
554 0.000417
555 0.000423
556 0.000445
557 0.000437
558 0.000417
559 0.000389
560 0.000366
561 0.000338
562 0.000291
563 0.000231
564 0.000193
565 0.000162
566 0.000150
567 0.000123
568 0.000094
569 0.000061
570 0.000050
571 0.000063
572 0.000076
573 0.000065
574 0.000038
575 0.000027
576 0.000012
577 -0.000002
578 -0.000007
579 0.000010
580 0.000013
581 0.000009
582 -0.000012
583 -0.000030
584 -0.000054
585 -0.000077
586 -0.000077
587 -0.000055
588 -0.000026
589 -0.000001
590 0.000022
591 0.000022
592 0.000036
593 0.000060
594 0.000078
595 0.000086
596 0.000100
597 0.000121
598 0.000138
599 0.000144
600 0.000146
601 0.000167
602 0.000190
603 0.000208
604 0.000206
605 0.000197
606 0.000186
607 0.000173
608 0.000169
609 0.000175
610 0.000175
611 0.000160
612 0.000150
613 0.000142
614 0.000135
615 0.000109
616 0.000072
617 0.000059
618 0.000058
619 0.000059
620 0.000082
621 0.000081
622 0.000073
623 0.000057
624 0.000071
625 0.000079
626 0.000085
627 0.000066
628 0.000060
629 0.000075
630 0.000088
631 0.000095
632 0.000110
633 0.000102
634 0.000096
635 0.000091
636 0.000107
637 0.000126
638 0.000126
639 0.000139
640 0.000162
641 0.000177
642 0.000196
643 0.000191
644 0.000194
645 0.000186
646 0.000183
647 0.000172
648 0.000168
649 0.000157
650 0.000138
651 0.000141
652 0.000153
653 0.000167
654 0.000182
655 0.000203
656 0.000238
657 0.000269
658 0.000288
659 0.000309
660 0.000326
661 0.000324
662 0.000326
663 0.000320
664 0.000302
665 0.000276
666 0.000223
667 0.000174
668 0.000135
669 0.000108
670 0.000088
671 0.000067
672 0.000053
673 0.000071
674 0.000094
675 0.000124
676 0.000134
677 0.000139
678 0.000150
679 0.000160
680 0.000160
681 0.000150
682 0.000133
683 0.000116
684 0.000091
685 0.000092
686 0.000091
687 0.000097
688 0.000109
689 0.000119
690 0.000146
691 0.000167
692 0.000183
693 0.000186
694 0.000188
695 0.000183
696 0.000189
697 0.000183
698 0.000185
699 0.000169
700 0.000154
701 0.000139
702 0.000142
703 0.000141
704 0.000148
705 0.000147
706 0.000142
707 0.000125
708 0.000113
709 0.000107
710 0.000096
711 0.000099
712 0.000103
713 0.000104
714 0.000116
715 0.000113
716 0.000116
717 0.000119
718 0.000114
719 0.000104
720 0.000085
721 0.000070
722 0.000076
723 0.000071
724 0.000076
725 0.000082
726 0.000085
727 0.000096
728 0.000090
729 0.000085
730 0.000062
731 0.000049
732 0.000042
733 0.000042
734 0.000049
735 0.000062
736 0.000069
737 0.000081
738 0.000083
739 0.000091
740 0.000102
741 0.000109
742 0.000120
743 0.000105
744 0.000083
745 0.000055
746 0.000026
747 -0.000009
748 -0.000027
749 -0.000048
750 -0.000043
751 -0.000038
752 -0.000026
753 -0.000017
754 -0.000034
755 -0.000052
756 -0.000066
757 -0.000076
758 -0.000086
759 -0.000097
760 -0.000113
761 -0.000121
762 -0.000131
763 -0.000130
764 -0.000139
765 -0.000149
766 -0.000170
767 -0.000185
768 -0.000196
769 -0.000203
770 -0.000214
771 -0.000229
772 -0.000235
773 -0.000255
774 -0.000247
775 -0.000247
776 -0.000226
777 -0.000219
778 -0.000202
779 -0.000183
780 -0.000171
781 -0.000158
782 -0.000148
783 -0.000135
784 -0.000122
785 -0.000112
786 -0.000121
787 -0.000119
788 -0.000113
789 -0.000090
790 -0.000063
791 -0.000039
792 -0.000020
793 -0.000016
794 -0.000010
795 -0.000008
796 -0.000003
797 -0.000011
798 -0.000012
799 -0.000012
800 -0.000014
801 -0.000022
802 -0.000025
803 -0.000042
804 -0.000062
805 -0.000084
806 -0.000114
807 -0.000131
808 -0.000157
809 -0.000164
