# i correlation
1 0.003407
2 0.003100
3 0.002858
4 0.002680
5 0.002506
6 0.002378
7 0.002283
8 0.002173
9 0.002071
10 0.001998
11 0.001995
12 0.001973
13 0.001972
14 0.001918
15 0.001851
16 0.001787
17 0.001734
18 0.001719
19 0.001697
20 0.001661
21 0.001623
22 0.001554
23 0.001488
24 0.001434
25 0.001419
26 0.001396
27 0.001370
28 0.001353
29 0.001354
30 0.001365
31 0.001355
32 0.001340
33 0.001294
34 0.001257
35 0.001210
36 0.001192
37 0.001174
38 0.001186
39 0.001201
40 0.001202
41 0.001184
42 0.001186
43 0.001190
44 0.001185
45 0.001152
46 0.001092
47 0.001050
48 0.001004
49 0.000977
50 0.000973
51 0.000984
52 0.000947
53 0.000917
54 0.000898
55 0.000894
56 0.000876
57 0.000869
58 0.000861
59 0.000833
60 0.000822
61 0.000794
62 0.000764
63 0.000762
64 0.000772
65 0.000768
66 0.000767
67 0.000766
68 0.000760
69 0.000728
70 0.000744
71 0.000773
72 0.000820
73 0.000867
74 0.000910
75 0.000955
76 0.001004
77 0.001038
78 0.001072
79 0.001117
80 0.001135
81 0.001150
82 0.001144
83 0.001204
84 0.001236
85 0.001275
86 0.001301
87 0.001327
88 0.001346
89 0.001358
90 0.001349
91 0.001337
92 0.001307
93 0.001268
94 0.001250
95 0.001207
96 0.001153
97 0.001121
98 0.001094
99 0.001084
100 0.001104
101 0.001143
102 0.001188
103 0.001188
104 0.001188
105 0.001192
106 0.001209
107 0.001206
108 0.001198
109 0.001178
110 0.001169
111 0.001147
112 0.001137
113 0.001137
114 0.001140
115 0.001150
116 0.001165
117 0.001175
118 0.001177
119 0.001210
120 0.001238
121 0.001273
122 0.001304
123 0.001316
124 0.001300
125 0.001289
126 0.001262
127 0.001222
128 0.001162
129 0.001133
130 0.001134
131 0.001125
132 0.001102
133 0.001106
134 0.001105
135 0.001074
136 0.001045
137 0.001018
138 0.000981
139 0.000942
140 0.000912
141 0.000900
142 0.000893
143 0.000873
144 0.000862
145 0.000838
146 0.000797
147 0.000761
148 0.000759
149 0.000766
150 0.000763
151 0.000751
152 0.000730
153 0.000697
154 0.000667
155 0.000671
156 0.000653
157 0.000616
158 0.000580
159 0.000529
160 0.000486
161 0.000473
162 0.000466
163 0.000481
164 0.000511
165 0.000514
166 0.000525
167 0.000530
168 0.000514
169 0.000495
170 0.000457
171 0.000410
172 0.000385
173 0.000387
174 0.000406
175 0.000420
176 0.000422
177 0.000446
178 0.000439
179 0.000433
180 0.000452
181 0.000443
182 0.000408
183 0.000352
184 0.000315
185 0.000318
186 0.000305
187 0.000288
188 0.000285
189 0.000292
190 0.000292
191 0.000280
192 0.000280
193 0.000305
194 0.000303
195 0.000319
196 0.000328
197 0.000329
198 0.000322
199 0.000333
200 0.000366
201 0.000367
202 0.000380
203 0.000398
204 0.000412
205 0.000415
206 0.000464
207 0.000495
208 0.000503
209 0.000533
210 0.000541
211 0.000540
212 0.000509
213 0.000487
214 0.000474
215 0.000490
216 0.000512
217 0.000518
218 0.000515
219 0.000515
220 0.000521
221 0.000523
222 0.000537
223 0.000594
224 0.000663
225 0.000711
226 0.000729
227 0.000761
228 0.000779
229 0.000771
230 0.000732
231 0.000681
232 0.000637
233 0.000606
234 0.000578
235 0.000560
236 0.000575
237 0.000576
238 0.000562
239 0.000535
240 0.000529
241 0.000546
242 0.000553
243 0.000568
244 0.000557
245 0.000540
246 0.000494
247 0.000475
248 0.000440
249 0.000423
250 0.000381
251 0.000327
252 0.000293
253 0.000291
254 0.000291
255 0.000306
256 0.000339
257 0.000369
258 0.000388
259 0.000370
260 0.000352
261 0.000328
262 0.000301
263 0.000323
264 0.000347
265 0.000363
266 0.000390
267 0.000428
268 0.000463
269 0.000474
270 0.000469
271 0.000468
272 0.000432
273 0.000365
274 0.000347
275 0.000315
276 0.000268
277 0.000208
278 0.000149
279 0.000107
280 0.000071
281 0.000063
282 0.000057
283 0.000087
284 0.000070
285 0.000070
286 0.000052
287 0.000037
288 0.000015
289 0.000004
290 -0.000039
291 -0.000092
292 -0.000120
293 -0.000156
294 -0.000172
295 -0.000186
296 -0.000147
297 -0.000087
298 -0.000050
299 -0.000029
300 -0.000006
301 0.000001
302 -0.000012
303 -0.000009
304 0.000006
305 0.000021
306 0.000016
307 0.000026
308 0.000049
309 0.000085
310 0.000138
311 0.000192
312 0.000229
313 0.000272
314 0.000299
315 0.000319
316 0.000328
317 0.000340
318 0.000352
319 0.000373
320 0.000370
321 0.000374
322 0.000356
323 0.000340
324 0.000315
325 0.000314
326 0.000330
327 0.000326
328 0.000309
329 0.000310
330 0.000335
331 0.000342
332 0.000354
333 0.000351
334 0.000319
335 0.000305
336 0.000307
337 0.000292
338 0.000277
339 0.000268
340 0.000271
341 0.000261
342 0.000258
343 0.000288
344 0.000321
345 0.000326
346 0.000306
347 0.000300
348 0.000309
349 0.000335
350 0.000367
351 0.000407
352 0.000390
353 0.000375
354 0.000367
355 0.000337
356 0.000285
357 0.000277
358 0.000267
359 0.000242
360 0.000225
361 0.000223
362 0.000222
363 0.000207
364 0.000195
365 0.000175
366 0.000161
367 0.000097
368 0.000070
369 0.000042
370 0.000039
371 0.000005
372 -0.000022
373 -0.000051
374 -0.000084
375 -0.000102
376 -0.000119
377 -0.000132
378 -0.000154
379 -0.000166
380 -0.000177
381 -0.000182
382 -0.000175
383 -0.000162
384 -0.000145
385 -0.000148
386 -0.000133
387 -0.000113
388 -0.000072
389 0.000001
390 0.000067
391 0.000129
392 0.000157
393 0.000198
394 0.000260
395 0.000294
396 0.000328
397 0.000336
398 0.000326
399 0.000332
400 0.000340
401 0.000337
402 0.000353
403 0.000344
404 0.000347
405 0.000349
406 0.000346
407 0.000334
408 0.000323
409 0.000331
410 0.000346
411 0.000348
412 0.000335
413 0.000323
414 0.000334
415 0.000364
416 0.000398
417 0.000409
418 0.000413
419 0.000405
420 0.000406
421 0.000422
422 0.000432
423 0.000449
424 0.000455
425 0.000441
426 0.000448
427 0.000459
428 0.000463
429 0.000464
430 0.000477
431 0.000494
432 0.000501
433 0.000518
434 0.000555
435 0.000571
436 0.000585
437 0.000593
438 0.000614
439 0.000632
440 0.000632
441 0.000626
442 0.000617
443 0.000614
444 0.000605
445 0.000606
446 0.000612
447 0.000643
448 0.000660
449 0.000699
450 0.000696
451 0.000697
452 0.000713
453 0.000729
454 0.000739
455 0.000728
456 0.000709
457 0.000662
458 0.000592
459 0.000529
460 0.000500
461 0.000468
462 0.000423
463 0.000391
464 0.000368
465 0.000359
466 0.000349
467 0.000369
468 0.000385
469 0.000373
470 0.000376
471 0.000362
472 0.000359
473 0.000340
474 0.000348
475 0.000364
476 0.000352
477 0.000342
478 0.000340
479 0.000331
480 0.000327
481 0.000326
482 0.000329
483 0.000337
484 0.000354
485 0.000361
486 0.000373
487 0.000362
488 0.000365
489 0.000352
490 0.000342
491 0.000358
492 0.000357
493 0.000353
494 0.000337
495 0.000293
496 0.000252
497 0.000226
498 0.000198
499 0.000206
500 0.000212
501 0.000219
502 0.000218
503 0.000219
504 0.000218
505 0.000211
506 0.000211
507 0.000210
508 0.000186
509 0.000168
510 0.000173
511 0.000196
512 0.000250
513 0.000284
514 0.000312
515 0.000326
516 0.000332
517 0.000322
518 0.000303
519 0.000293
520 0.000293
521 0.000288
522 0.000280
523 0.000270
524 0.000269
525 0.000299
526 0.000323
527 0.000344
528 0.000383
529 0.000415
530 0.000449
531 0.000481
532 0.000528
533 0.000562
534 0.000579
535 0.000587
536 0.000576
537 0.000542
538 0.000545
539 0.000557
540 0.000575
541 0.000594
542 0.000615
543 0.000623
544 0.000615
545 0.000619
546 0.000654
547 0.000661
548 0.000645
549 0.000611
550 0.000594
551 0.000592
552 0.000594
553 0.000594
554 0.000613
555 0.000635
556 0.000640
557 0.000653
558 0.000649
559 0.000653
560 0.000667
561 0.000682
562 0.000652
563 0.000629
564 0.000613
565 0.000601
566 0.000594
567 0.000597
568 0.000622
569 0.000643
570 0.000644
571 0.000647
572 0.000652
573 0.000637
574 0.000623
575 0.000611
576 0.000609
577 0.000594
578 0.000584
579 0.000583
580 0.000573
581 0.000565
582 0.000550
583 0.000511
584 0.000474
585 0.000442
586 0.000436
587 0.000423
588 0.000396
589 0.000380
590 0.000378
591 0.000380
592 0.000370
593 0.000361
594 0.000352
595 0.000346
596 0.000340
597 0.000353
598 0.000363
599 0.000356
600 0.000333
601 0.000305
602 0.000266
603 0.000228
604 0.000202
605 0.000185
606 0.000186
607 0.000183
608 0.000177
609 0.000177
610 0.000188
611 0.000202
612 0.000217
613 0.000231
614 0.000218
615 0.000202
616 0.000187
617 0.000171
618 0.000170
619 0.000186
620 0.000196
621 0.000193
622 0.000192
623 0.000191
624 0.000189
625 0.000186
626 0.000194
627 0.000201
628 0.000198
629 0.000202
630 0.000203
631 0.000195
632 0.000203
633 0.000217
634 0.000230
635 0.000237
636 0.000232
637 0.000221
638 0.000191
639 0.000171
640 0.000174
641 0.000182
642 0.000194
643 0.000198
644 0.000203
645 0.000193
646 0.000194
647 0.000220
648 0.000244
649 0.000272
650 0.000276
651 0.000274
652 0.000293
653 0.000318
654 0.000340
655 0.000374
656 0.000412
657 0.000435
658 0.000476
659 0.000501
660 0.000537
661 0.000555
662 0.000569
663 0.000590
664 0.000609
665 0.000638
666 0.000638
667 0.000651
668 0.000653
669 0.000636
670 0.000611
671 0.000604
672 0.000591
673 0.000569
674 0.000549
675 0.000524
676 0.000530
677 0.000540
678 0.000540
679 0.000549
680 0.000563
681 0.000566
682 0.000544
683 0.000533
684 0.000532
685 0.000520
686 0.000513
687 0.000493
688 0.000477
689 0.000451
690 0.000448
691 0.000449
692 0.000450
693 0.000437
694 0.000419
695 0.000394
696 0.000360
697 0.000350
698 0.000339
699 0.000337
700 0.000325
701 0.000313
702 0.000299
703 0.000280
704 0.000262
705 0.000234
706 0.000211
707 0.000194
708 0.000190
709 0.000188
710 0.000186
711 0.000194
712 0.000207
713 0.000228
714 0.000224
715 0.000242
716 0.000229
717 0.000217
718 0.000203
719 0.000194
720 0.000202
721 0.000205
722 0.000200
723 0.000179
724 0.000158
725 0.000130
726 0.000096
727 0.000066
728 0.000042
729 0.000001
730 -0.000042
731 -0.000050
732 -0.000052
733 -0.000059
734 -0.000067
735 -0.000037
736 -0.000007
737 0.000006
738 0.000005
739 0.000008
740 -0.000003
741 -0.000003
742 -0.000003
743 -0.000004
744 -0.000002
745 -0.000010
746 -0.000020
747 -0.000030
748 -0.000034
749 -0.000032
750 -0.000032
751 -0.000040
752 -0.000046
753 -0.000063
754 -0.000070
755 -0.000069
756 -0.000058
757 -0.000042
758 -0.000031
759 -0.000017
760 -0.000009
761 -0.000005
762 -0.000004
763 -0.000009
764 0.000002
765 -0.000000
766 0.000003
767 0.000007
768 0.000010
769 0.000016
770 0.000011
771 0.000009
772 0.000012
773 -0.000006
774 -0.000035
775 -0.000043
776 -0.000054
777 -0.000068
778 -0.000066
779 -0.000063
780 -0.000056
781 -0.000065
782 -0.000068
783 -0.000060
784 -0.000057
785 -0.000048
786 -0.000032
787 -0.000016
788 0.000003
789 0.000010
790 0.000018
791 0.000022
792 0.000012
793 0.000000
794 -0.000014
795 -0.000031
796 -0.000037
797 -0.000035
798 -0.000024
799 0.000003
800 0.000021
801 0.000047
802 0.000067
803 0.000074
804 0.000079
805 0.000078
806 0.000072
807 0.000054
808 0.000031
809 0.000021
