# i correlation
1 0.002487
2 0.002136
3 0.001862
4 0.001645
5 0.001461
6 0.001323
7 0.001162
8 0.001025
9 0.000915
10 0.000846
11 0.000760
12 0.000689
13 0.000620
14 0.000609
15 0.000612
16 0.000615
17 0.000589
18 0.000558
19 0.000560
20 0.000551
21 0.000556
22 0.000539
23 0.000504
24 0.000499
25 0.000513
26 0.000507
27 0.000506
28 0.000489
29 0.000469
30 0.000473
31 0.000477
32 0.000512
33 0.000572
34 0.000618
35 0.000682
36 0.000760
37 0.000835
38 0.000864
39 0.000830
40 0.000804
41 0.000810
42 0.000796
43 0.000774
44 0.000740
45 0.000667
46 0.000625
47 0.000619
48 0.000577
49 0.000541
50 0.000538
51 0.000510
52 0.000493
53 0.000486
54 0.000478
55 0.000462
56 0.000442
57 0.000432
58 0.000410
59 0.000373
60 0.000333
61 0.000330
62 0.000374
63 0.000387
64 0.000395
65 0.000388
66 0.000389
67 0.000387
68 0.000385
69 0.000427
70 0.000434
71 0.000459
72 0.000499
73 0.000543
74 0.000598
75 0.000651
76 0.000704
77 0.000749
78 0.000770
79 0.000768
80 0.000775
81 0.000787
82 0.000741
83 0.000698
84 0.000668
85 0.000623
86 0.000538
87 0.000492
88 0.000485
89 0.000427
90 0.000392
91 0.000409
92 0.000416
93 0.000422
94 0.000449
95 0.000463
96 0.000491
97 0.000507
98 0.000485
99 0.000455
100 0.000424
101 0.000396
102 0.000359
103 0.000327
104 0.000318
105 0.000335
106 0.000328
107 0.000277
108 0.000256
109 0.000270
110 0.000254
111 0.000231
112 0.000272
113 0.000324
114 0.000371
115 0.000423
116 0.000464
117 0.000487
118 0.000555
119 0.000617
120 0.000632
121 0.000638
122 0.000577
123 0.000526
124 0.000495
125 0.000487
126 0.000459
127 0.000398
128 0.000341
129 0.000311
130 0.000288
131 0.000294
132 0.000274
133 0.000259
134 0.000283
135 0.000326
136 0.000356
137 0.000359
138 0.000403
139 0.000463
140 0.000509
141 0.000525
142 0.000560
143 0.000586
144 0.000608
145 0.000658
146 0.000724
147 0.000726
148 0.000716
149 0.000693
150 0.000669
151 0.000633
152 0.000638
153 0.000657
154 0.000674
155 0.000687
156 0.000701
157 0.000682
158 0.000632
159 0.000596
160 0.000569
161 0.000560
162 0.000568
163 0.000557
164 0.000525
165 0.000514
166 0.000519
167 0.000523
168 0.000556
169 0.000565
170 0.000576
171 0.000598
172 0.000618
173 0.000628
174 0.000597
175 0.000559
176 0.000548
177 0.000556
178 0.000590
179 0.000621
180 0.000649
181 0.000688
182 0.000699
183 0.000682
184 0.000648
185 0.000635
186 0.000604
187 0.000597
188 0.000584
189 0.000567
190 0.000573
191 0.000545
192 0.000528
193 0.000527
194 0.000492
195 0.000465
196 0.000470
197 0.000489
198 0.000469
199 0.000421
200 0.000392
201 0.000360
202 0.000350
203 0.000356
204 0.000344
205 0.000348
206 0.000364
207 0.000350
208 0.000333
209 0.000345
210 0.000328
211 0.000305
212 0.000316
213 0.000327
214 0.000364
215 0.000434
216 0.000468
217 0.000480
218 0.000504
219 0.000534
220 0.000562
221 0.000580
222 0.000605
223 0.000634
224 0.000644
225 0.000640
226 0.000663
227 0.000686
228 0.000701
229 0.000677
230 0.000652
231 0.000651
232 0.000670
233 0.000700
234 0.000730
235 0.000742
236 0.000738
237 0.000730
238 0.000709
239 0.000699
240 0.000676
241 0.000643
242 0.000602
243 0.000568
244 0.000550
245 0.000516
246 0.000484
247 0.000465
248 0.000432
249 0.000407
250 0.000396
251 0.000404
252 0.000383
253 0.000361
254 0.000341
255 0.000348
256 0.000365
257 0.000381
258 0.000399
259 0.000408
260 0.000412
261 0.000444
262 0.000477
263 0.000489
264 0.000497
265 0.000537
266 0.000577
267 0.000599
268 0.000563
269 0.000535
270 0.000519
271 0.000543
272 0.000538
273 0.000522
274 0.000504
275 0.000506
276 0.000485
277 0.000476
278 0.000436
279 0.000388
280 0.000333
281 0.000330
282 0.000327
283 0.000329
284 0.000343
285 0.000372
286 0.000380
287 0.000371
288 0.000358
289 0.000309
290 0.000289
291 0.000270
292 0.000272
293 0.000285
294 0.000293
295 0.000261
296 0.000267
297 0.000277
298 0.000295
299 0.000337
300 0.000356
301 0.000367
302 0.000420
303 0.000462
304 0.000482
305 0.000471
306 0.000460
307 0.000451
308 0.000480
309 0.000533
310 0.000559
311 0.000583
312 0.000591
313 0.000589
314 0.000556
315 0.000539
316 0.000532
317 0.000508
318 0.000495
319 0.000484
320 0.000468
321 0.000446
322 0.000430
323 0.000441
324 0.000489
325 0.000504
326 0.000499
327 0.000501
328 0.000517
329 0.000539
330 0.000560
331 0.000590
332 0.000579
333 0.000544
334 0.000542
335 0.000526
336 0.000514
337 0.000487
338 0.000450
339 0.000407
340 0.000375
341 0.000358
342 0.000347
343 0.000301
344 0.000269
345 0.000259
346 0.000276
347 0.000283
348 0.000283
349 0.000290
350 0.000309
351 0.000325
352 0.000354
353 0.000368
354 0.000367
355 0.000358
356 0.000351
357 0.000350
358 0.000357
359 0.000357
360 0.000356
361 0.000357
362 0.000353
363 0.000370
364 0.000376
365 0.000372
366 0.000371
367 0.000364
368 0.000391
369 0.000413
370 0.000418
371 0.000425
372 0.000418
373 0.000360
374 0.000299
375 0.000269
376 0.000243
377 0.000219
378 0.000221
379 0.000221
380 0.000245
381 0.000304
382 0.000355
383 0.000363
384 0.000372
385 0.000372
386 0.000346
387 0.000353
388 0.000359
389 0.000368
390 0.000366
391 0.000359
392 0.000345
393 0.000361
394 0.000371
395 0.000371
396 0.000377
397 0.000388
398 0.000378
399 0.000348
400 0.000347
401 0.000368
402 0.000354
403 0.000348
404 0.000339
405 0.000360
406 0.000375
407 0.000383
408 0.000407
409 0.000432
410 0.000442
411 0.000437
412 0.000435
413 0.000406
414 0.000376
415 0.000354
416 0.000320
417 0.000319
418 0.000327
419 0.000334
420 0.000338
421 0.000345
422 0.000356
423 0.000346
424 0.000337
425 0.000343
426 0.000317
427 0.000296
428 0.000289
429 0.000299
430 0.000302
431 0.000308
432 0.000316
433 0.000319
434 0.000344
435 0.000346
436 0.000331
437 0.000324
438 0.000346
439 0.000346
440 0.000308
441 0.000239
442 0.000194
443 0.000179
444 0.000190
445 0.000201
446 0.000179
447 0.000167
448 0.000176
449 0.000184
450 0.000203
451 0.000229
452 0.000227
453 0.000228
454 0.000249
455 0.000283
456 0.000316
457 0.000331
458 0.000328
459 0.000309
460 0.000275
461 0.000222
462 0.000188
463 0.000185
464 0.000193
465 0.000212
466 0.000247
467 0.000291
468 0.000304
469 0.000326
470 0.000372
471 0.000400
472 0.000453
473 0.000502
474 0.000511
475 0.000533
476 0.000555
477 0.000567
478 0.000569
479 0.000553
480 0.000516
481 0.000483
482 0.000444
483 0.000394
484 0.000354
485 0.000314
486 0.000314
487 0.000313
488 0.000269
489 0.000252
490 0.000274
491 0.000302
492 0.000322
493 0.000326
494 0.000332
495 0.000307
496 0.000278
497 0.000272
498 0.000274
499 0.000269
500 0.000281
501 0.000281
502 0.000304
503 0.000324
504 0.000319
505 0.000328
506 0.000377
507 0.000413
508 0.000441
509 0.000455
510 0.000444
511 0.000410
512 0.000396
513 0.000394
514 0.000430
515 0.000443
516 0.000462
517 0.000470
518 0.000467
519 0.000468
520 0.000454
521 0.000406
522 0.000372
523 0.000326
524 0.000292
525 0.000252
526 0.000199
527 0.000159
528 0.000125
529 0.000092
530 0.000084
531 0.000083
532 0.000070
533 0.000066
534 0.000074
535 0.000086
536 0.000084
537 0.000083
538 0.000069
539 0.000078
540 0.000076
541 0.000081
542 0.000073
543 0.000087
544 0.000125
545 0.000128
546 0.000123
547 0.000113
548 0.000121
549 0.000138
550 0.000173
551 0.000204
552 0.000223
553 0.000230
554 0.000232
555 0.000236
556 0.000238
557 0.000242
558 0.000232
559 0.000209
560 0.000223
561 0.000242
562 0.000228
563 0.000245
564 0.000264
565 0.000264
566 0.000252
567 0.000260
568 0.000268
569 0.000277
570 0.000278
571 0.000288
572 0.000269
573 0.000246
574 0.000233
575 0.000232
576 0.000214
577 0.000201
578 0.000207
579 0.000188
580 0.000140
581 0.000100
582 0.000081
583 0.000047
584 0.000045
585 0.000051
586 0.000062
587 0.000076
588 0.000103
589 0.000103
590 0.000127
591 0.000160
592 0.000192
593 0.000218
594 0.000225
595 0.000223
596 0.000241
597 0.000263
598 0.000284
599 0.000282
600 0.000257
601 0.000232
602 0.000213
603 0.000203
604 0.000192
605 0.000182
606 0.000173
607 0.000164
608 0.000159
609 0.000132
610 0.000119
611 0.000107
612 0.000120
613 0.000126
614 0.000125
615 0.000148
616 0.000166
617 0.000173
618 0.000176
619 0.000184
620 0.000177
621 0.000172
622 0.000183
623 0.000193
624 0.000206
625 0.000229
626 0.000242
627 0.000254
628 0.000262
629 0.000269
630 0.000263
631 0.000261
632 0.000271
633 0.000288
634 0.000314
635 0.000339
636 0.000356
637 0.000354
638 0.000363
639 0.000367
640 0.000397
641 0.000433
642 0.000453
643 0.000464
644 0.000471
645 0.000469
646 0.000458
647 0.000438
648 0.000439
649 0.000433
650 0.000396
651 0.000370
652 0.000345
653 0.000335
654 0.000338
655 0.000338
656 0.000341
657 0.000328
658 0.000314
659 0.000315
660 0.000336
661 0.000345
662 0.000373
663 0.000397
664 0.000383
665 0.000371
666 0.000354
667 0.000313
668 0.000288
669 0.000270
670 0.000261
671 0.000244
672 0.000244
673 0.000251
674 0.000234
675 0.000190
676 0.000159
677 0.000136
678 0.000120
679 0.000113
680 0.000106
681 0.000093
682 0.000085
683 0.000081
684 0.000099
685 0.000101
686 0.000096
687 0.000111
688 0.000128
689 0.000144
690 0.000161
691 0.000185
692 0.000208
693 0.000223
694 0.000239
695 0.000266
696 0.000288
697 0.000282
698 0.000260
699 0.000241
700 0.000228
701 0.000197
702 0.000153
703 0.000115
704 0.000079
705 0.000065
706 0.000067
707 0.000063
708 0.000028
709 0.000015
710 0.000013
711 0.000015
712 0.000021
713 0.000038
714 0.000041
715 0.000059
716 0.000085
717 0.000112
718 0.000132
719 0.000124
720 0.000121
721 0.000121
722 0.000126
723 0.000128
724 0.000132
725 0.000139
726 0.000127
727 0.000104
728 0.000080
729 0.000059
730 0.000036
731 0.000031
732 0.000038
733 0.000051
734 0.000077
735 0.000094
736 0.000109
737 0.000126
738 0.000129
739 0.000128
740 0.000150
741 0.000171
742 0.000198
743 0.000214
744 0.000214
745 0.000201
746 0.000188
747 0.000171
748 0.000158
749 0.000127
750 0.000124
751 0.000119
752 0.000095
753 0.000083
754 0.000081
755 0.000046
756 0.000017
757 0.000002
758 -0.000001
759 -0.000002
760 -0.000011
761 -0.000012
762 -0.000032
763 -0.000052
764 -0.000069
765 -0.000073
766 -0.000085
767 -0.000092
768 -0.000096
769 -0.000072
770 -0.000065
771 -0.000068
772 -0.000057
773 -0.000048
774 -0.000045
775 -0.000047
776 -0.000052
777 -0.000055
778 -0.000047
779 -0.000029
780 -0.000007
781 0.000008
782 0.000017
783 0.000029
784 0.000039
785 0.000039
786 0.000039
787 0.000049
788 0.000067
789 0.000083
790 0.000115
791 0.000140
792 0.000147
793 0.000145
794 0.000141
795 0.000117
796 0.000095
797 0.000080
798 0.000056
799 0.000035
800 0.000015
801 0.000013
802 0.000021
803 0.000033
804 0.000048
805 0.000060
806 0.000076
807 0.000077
808 0.000077
809 0.000088
