# i correlation
1 0.003726
2 0.003399
3 0.003091
4 0.002872
5 0.002669
6 0.002524
7 0.002402
8 0.002283
9 0.002156
10 0.002054
11 0.001966
12 0.001895
13 0.001815
14 0.001728
15 0.001643
16 0.001562
17 0.001492
18 0.001441
19 0.001408
20 0.001404
21 0.001378
22 0.001350
23 0.001332
24 0.001327
25 0.001290
26 0.001261
27 0.001227
28 0.001217
29 0.001177
30 0.001158
31 0.001191
32 0.001256
33 0.001332
34 0.001392
35 0.001435
36 0.001432
37 0.001426
38 0.001411
39 0.001393
40 0.001402
41 0.001382
42 0.001396
43 0.001397
44 0.001438
45 0.001476
46 0.001484
47 0.001501
48 0.001502
49 0.001502
50 0.001467
51 0.001375
52 0.001285
53 0.001241
54 0.001226
55 0.001210
56 0.001205
57 0.001188
58 0.001177
59 0.001169
60 0.001158
61 0.001142
62 0.001146
63 0.001123
64 0.001078
65 0.001065
66 0.001072
67 0.001086
68 0.001109
69 0.001122
70 0.001108
71 0.001066
72 0.000997
73 0.000951
74 0.000896
75 0.000867
76 0.000864
77 0.000882
78 0.000909
79 0.000921
80 0.000947
81 0.000959
82 0.000973
83 0.000987
84 0.001005
85 0.001023
86 0.001008
87 0.000985
88 0.000990
89 0.001016
90 0.001057
91 0.001123
92 0.001200
93 0.001248
94 0.001267
95 0.001284
96 0.001250
97 0.001205
98 0.001174
99 0.001148
100 0.001124
101 0.001095
102 0.001093
103 0.001074
104 0.001044
105 0.001019
106 0.000981
107 0.000948
108 0.000920
109 0.000892
110 0.000888
111 0.000900
112 0.000914
113 0.000935
114 0.000945
115 0.000944
116 0.000960
117 0.000972
118 0.000983
119 0.000944
120 0.000886
121 0.000808
122 0.000754
123 0.000710
124 0.000674
125 0.000658
126 0.000641
127 0.000624
128 0.000611
129 0.000629
130 0.000644
131 0.000641
132 0.000615
133 0.000555
134 0.000538
135 0.000565
136 0.000620
137 0.000694
138 0.000754
139 0.000780
140 0.000819
141 0.000844
142 0.000850
143 0.000852
144 0.000816
145 0.000773
146 0.000731
147 0.000692
148 0.000666
149 0.000668
150 0.000656
151 0.000653
152 0.000665
153 0.000660
154 0.000683
155 0.000679
156 0.000670
157 0.000668
158 0.000682
159 0.000677
160 0.000653
161 0.000662
162 0.000665
163 0.000655
164 0.000635
165 0.000579
166 0.000527
167 0.000492
168 0.000459
169 0.000421
170 0.000374
171 0.000360
172 0.000337
173 0.000321
174 0.000335
175 0.000366
176 0.000392
177 0.000423
178 0.000434
179 0.000454
180 0.000447
181 0.000442
182 0.000414
183 0.000366
184 0.000347
185 0.000391
186 0.000450
187 0.000508
188 0.000560
189 0.000567
190 0.000571
191 0.000556
192 0.000553
193 0.000551
194 0.000544
195 0.000551
196 0.000567
197 0.000603
198 0.000638
199 0.000667
200 0.000663
201 0.000645
202 0.000664
203 0.000688
204 0.000734
205 0.000772
206 0.000810
207 0.000848
208 0.000880
209 0.000912
210 0.000937
211 0.000958
212 0.000974
213 0.000952
214 0.000913
215 0.000864
216 0.000810
217 0.000758
218 0.000717
219 0.000671
220 0.000615
221 0.000576
222 0.000558
223 0.000544
224 0.000500
225 0.000469
226 0.000408
227 0.000349
228 0.000299
229 0.000286
230 0.000283
231 0.000281
232 0.000266
233 0.000236
234 0.000223
235 0.000205
236 0.000208
237 0.000219
238 0.000234
239 0.000249
240 0.000259
241 0.000256
242 0.000268
243 0.000299
244 0.000351
245 0.000422
246 0.000481
247 0.000575
248 0.000611
249 0.000639
250 0.000663
251 0.000706
252 0.000723
253 0.000732
254 0.000790
255 0.000839
256 0.000876
257 0.000922
258 0.000954
259 0.000951
260 0.000953
261 0.000941
262 0.000929
263 0.000888
264 0.000834
265 0.000795
266 0.000785
267 0.000792
268 0.000800
269 0.000790
270 0.000769
271 0.000742
272 0.000706
273 0.000661
274 0.000625
275 0.000584
276 0.000520
277 0.000489
278 0.000498
279 0.000520
280 0.000565
281 0.000600
282 0.000627
283 0.000593
284 0.000571
285 0.000545
286 0.000550
287 0.000575
288 0.000618
289 0.000667
290 0.000709
291 0.000731
292 0.000768
293 0.000797
294 0.000833
295 0.000863
296 0.000864
297 0.000828
298 0.000813
299 0.000799
300 0.000819
301 0.000840
302 0.000871
303 0.000862
304 0.000873
305 0.000873
306 0.000843
307 0.000813
308 0.000792
309 0.000752
310 0.000716
311 0.000668
312 0.000618
313 0.000566
314 0.000530
315 0.000505
316 0.000490
317 0.000492
318 0.000465
319 0.000403
320 0.000364
321 0.000338
322 0.000326
323 0.000314
324 0.000327
325 0.000342
326 0.000357
327 0.000394
328 0.000436
329 0.000471
330 0.000480
331 0.000474
332 0.000434
333 0.000386
334 0.000333
335 0.000304
336 0.000311
337 0.000319
338 0.000324
339 0.000329
340 0.000364
341 0.000359
342 0.000369
343 0.000349
344 0.000337
345 0.000303
346 0.000291
347 0.000310
348 0.000325
349 0.000374
350 0.000420
351 0.000461
352 0.000481
353 0.000508
354 0.000513
355 0.000513
356 0.000497
357 0.000490
358 0.000485
359 0.000499
360 0.000529
361 0.000569
362 0.000588
363 0.000607
364 0.000596
365 0.000608
366 0.000616
367 0.000605
368 0.000572
369 0.000526
370 0.000464
371 0.000411
372 0.000363
373 0.000345
374 0.000333
375 0.000322
376 0.000314
377 0.000307
378 0.000257
379 0.000202
380 0.000138
381 0.000114
382 0.000077
383 0.000074
384 0.000090
385 0.000142
386 0.000209
387 0.000255
388 0.000289
389 0.000301
390 0.000290
391 0.000276
392 0.000258
393 0.000282
394 0.000297
395 0.000295
396 0.000287
397 0.000330
398 0.000378
399 0.000428
400 0.000479
401 0.000506
402 0.000512
403 0.000520
404 0.000533
405 0.000552
406 0.000571
407 0.000578
408 0.000587
409 0.000602
410 0.000623
411 0.000637
412 0.000658
413 0.000665
414 0.000621
415 0.000586
416 0.000585
417 0.000556
418 0.000554
419 0.000557
420 0.000546
421 0.000543
422 0.000544
423 0.000544
424 0.000531
425 0.000486
426 0.000441
427 0.000386
428 0.000334
429 0.000290
430 0.000259
431 0.000233
432 0.000225
433 0.000203
434 0.000170
435 0.000146
436 0.000148
437 0.000118
438 0.000090
439 0.000072
440 0.000027
441 -0.000011
442 -0.000015
443 0.000007
444 0.000042
445 0.000067
446 0.000092
447 0.000112
448 0.000096
449 0.000074
450 0.000067
451 0.000072
452 0.000065
453 0.000078
454 0.000102
455 0.000123
456 0.000142
457 0.000162
458 0.000192
459 0.000217
460 0.000232
461 0.000242
462 0.000233
463 0.000252
464 0.000229
465 0.000214
466 0.000234
467 0.000267
468 0.000297
469 0.000318
470 0.000308
471 0.000286
472 0.000245
473 0.000199
474 0.000156
475 0.000117
476 0.000118
477 0.000108
478 0.000123
479 0.000163
480 0.000176
481 0.000183
482 0.000167
483 0.000171
484 0.000167
485 0.000167
486 0.000160
487 0.000136
488 0.000089
489 0.000058
490 0.000031
491 0.000016
492 0.000025
493 0.000035
494 0.000050
495 0.000041
496 0.000021
497 0.000007
498 0.000025
499 0.000054
500 0.000083
501 0.000114
502 0.000147
503 0.000189
504 0.000259
505 0.000307
506 0.000342
507 0.000374
508 0.000402
509 0.000396
510 0.000363
511 0.000336
512 0.000305
513 0.000282
514 0.000271
515 0.000253
516 0.000253
517 0.000256
518 0.000269
519 0.000274
520 0.000261
521 0.000224
522 0.000170
523 0.000132
524 0.000085
525 0.000063
526 0.000050
527 0.000048
528 0.000042
529 0.000036
530 0.000029
531 0.000019
532 0.000009
533 -0.000019
534 -0.000041
535 -0.000050
536 -0.000039
537 -0.000037
538 -0.000037
539 -0.000020
540 0.000011
541 0.000025
542 0.000049
543 0.000064
544 0.000061
545 0.000055
546 0.000066
547 0.000102
548 0.000150
549 0.000179
550 0.000195
551 0.000203
552 0.000217
553 0.000240
554 0.000271
555 0.000278
556 0.000293
557 0.000278
558 0.000252
559 0.000211
560 0.000186
561 0.000173
562 0.000171
563 0.000166
564 0.000165
565 0.000168
566 0.000147
567 0.000134
568 0.000137
569 0.000138
570 0.000145
571 0.000153
572 0.000149
573 0.000142
574 0.000152
575 0.000150
576 0.000173
577 0.000156
578 0.000134
579 0.000116
580 0.000089
581 0.000078
582 0.000080
583 0.000085
584 0.000090
585 0.000098
586 0.000094
587 0.000103
588 0.000086
589 0.000058
590 0.000041
591 0.000036
592 0.000028
593 0.000001
594 -0.000024
595 -0.000054
596 -0.000061
597 -0.000057
598 -0.000024
599 0.000011
600 0.000033
601 0.000038
602 0.000036
603 0.000033
604 0.000045
605 0.000049
606 0.000051
607 0.000040
608 0.000018
609 0.000005
610 0.000021
611 0.000063
612 0.000079
613 0.000071
614 0.000044
615 0.000033
616 0.000044
617 0.000055
618 0.000066
619 0.000082
620 0.000105
621 0.000112
622 0.000110
623 0.000087
624 0.000078
625 0.000071
626 0.000043
627 0.000003
628 -0.000026
629 -0.000064
630 -0.000083
631 -0.000082
632 -0.000069
633 -0.000085
634 -0.000097
635 -0.000103
636 -0.000115
637 -0.000139
638 -0.000143
639 -0.000144
640 -0.000145
641 -0.000149
642 -0.000154
643 -0.000153
644 -0.000139
645 -0.000117
646 -0.000109
647 -0.000119
648 -0.000120
649 -0.000127
650 -0.000147
651 -0.000159
652 -0.000185
653 -0.000188
654 -0.000180
655 -0.000151
656 -0.000120
657 -0.000110
658 -0.000090
659 -0.000070
660 -0.000054
661 -0.000028
662 -0.000021
663 -0.000015
664 -0.000010
665 0.000012
666 0.000040
667 0.000063
668 0.000084
669 0.000089
670 0.000103
671 0.000118
672 0.000129
673 0.000124
674 0.000109
675 0.000100
676 0.000088
677 0.000063
678 0.000059
679 0.000079
680 0.000091
681 0.000095
682 0.000095
683 0.000108
684 0.000118
685 0.000112
686 0.000113
687 0.000112
688 0.000110
689 0.000108
690 0.000111
691 0.000108
692 0.000106
693 0.000112
694 0.000141
695 0.000158
696 0.000196
697 0.000223
698 0.000255
699 0.000261
700 0.000257
701 0.000265
702 0.000259
703 0.000250
704 0.000235
705 0.000225
706 0.000227
707 0.000211
708 0.000210
709 0.000207
710 0.000222
711 0.000232
712 0.000234
713 0.000254
714 0.000299
715 0.000320
716 0.000342
717 0.000349
718 0.000351
719 0.000315
720 0.000288
721 0.000258
722 0.000222
723 0.000209
724 0.000209
725 0.000221
726 0.000216
727 0.000218
728 0.000218
729 0.000223
730 0.000218
731 0.000199
732 0.000167
733 0.000148
734 0.000148
735 0.000132
736 0.000100
737 0.000078
738 0.000073
739 0.000055
740 0.000034
741 0.000029
742 0.000036
743 0.000024
744 0.000009
745 -0.000012
746 -0.000007
747 -0.000008
748 0.000004
749 0.000017
750 0.000047
751 0.000059
752 0.000059
753 0.000063
754 0.000060
755 0.000055
756 0.000062
757 0.000058
758 0.000076
759 0.000091
760 0.000123
761 0.000139
762 0.000158
763 0.000184
764 0.000197
765 0.000207
766 0.000211
767 0.000220
768 0.000223
769 0.000220
770 0.000217
771 0.000220
772 0.000222
773 0.000225
774 0.000258
775 0.000297
776 0.000338
777 0.000353
778 0.000374
779 0.000407
780 0.000419
781 0.000429
782 0.000413
783 0.000408
784 0.000397
785 0.000371
786 0.000352
787 0.000346
788 0.000346
789 0.000342
790 0.000331
791 0.000330
792 0.000312
793 0.000298
794 0.000287
795 0.000273
796 0.000280
797 0.000284
798 0.000294
799 0.000294
800 0.000309
801 0.000299
802 0.000297
803 0.000278
804 0.000273
805 0.000262
806 0.000249
807 0.000237
808 0.000248
809 0.000272
