# i correlation
1 0.003553
2 0.003246
3 0.003019
4 0.002852
5 0.002715
6 0.002587
7 0.002466
8 0.002371
9 0.002330
10 0.002303
11 0.002218
12 0.002113
13 0.002014
14 0.001952
15 0.001893
16 0.001838
17 0.001806
18 0.001759
19 0.001730
20 0.001716
21 0.001728
22 0.001716
23 0.001718
24 0.001713
25 0.001691
26 0.001655
27 0.001672
28 0.001691
29 0.001708
30 0.001689
31 0.001698
32 0.001691
33 0.001654
34 0.001627
35 0.001621
36 0.001587
37 0.001545
38 0.001531
39 0.001531
40 0.001507
41 0.001525
42 0.001544
43 0.001514
44 0.001484
45 0.001458
46 0.001444
47 0.001421
48 0.001379
49 0.001333
50 0.001332
51 0.001354
52 0.001374
53 0.001384
54 0.001357
55 0.001321
56 0.001305
57 0.001276
58 0.001275
59 0.001233
60 0.001187
61 0.001187
62 0.001215
63 0.001231
64 0.001246
65 0.001301
66 0.001363
67 0.001402
68 0.001409
69 0.001428
70 0.001430
71 0.001436
72 0.001394
73 0.001344
74 0.001319
75 0.001362
76 0.001403
77 0.001408
78 0.001374
79 0.001314
80 0.001295
81 0.001273
82 0.001224
83 0.001196
84 0.001146
85 0.001105
86 0.001066
87 0.001052
88 0.001061
89 0.001063
90 0.001057
91 0.001042
92 0.001041
93 0.001052
94 0.001058
95 0.001041
96 0.001037
97 0.001070
98 0.001119
99 0.001161
100 0.001191
101 0.001196
102 0.001164
103 0.001165
104 0.001157
105 0.001164
106 0.001156
107 0.001158
108 0.001177
109 0.001232
110 0.001272
111 0.001299
112 0.001325
113 0.001320
114 0.001318
115 0.001315
116 0.001289
117 0.001283
118 0.001272
119 0.001300
120 0.001322
121 0.001298
122 0.001291
123 0.001281
124 0.001284
125 0.001275
126 0.001263
127 0.001279
128 0.001297
129 0.001314
130 0.001325
131 0.001309
132 0.001338
133 0.001353
134 0.001391
135 0.001401
136 0.001378
137 0.001360
138 0.001351
139 0.001353
140 0.001339
141 0.001351
142 0.001384
143 0.001414
144 0.001433
145 0.001438
146 0.001457
147 0.001482
148 0.001504
149 0.001479
150 0.001419
151 0.001408
152 0.001390
153 0.001372
154 0.001338
155 0.001315
156 0.001282
157 0.001258
158 0.001251
159 0.001253
160 0.001244
161 0.001210
162 0.001163
163 0.001154
164 0.001149
165 0.001157
166 0.001155
167 0.001156
168 0.001146
169 0.001156
170 0.001168
171 0.001167
172 0.001151
173 0.001134
174 0.001117
175 0.001095
176 0.001102
177 0.001096
178 0.001060
179 0.001041
180 0.001045
181 0.001056
182 0.001052
183 0.001035
184 0.001042
185 0.001045
186 0.001063
187 0.001072
188 0.001094
189 0.001076
190 0.001087
191 0.001085
192 0.001060
193 0.001027
194 0.001015
195 0.001011
196 0.000988
197 0.000975
198 0.000969
199 0.000981
200 0.001013
201 0.001028
202 0.001033
203 0.001043
204 0.001065
205 0.001064
206 0.001045
207 0.000992
208 0.000976
209 0.000996
210 0.001016
211 0.001048
212 0.001080
213 0.001123
214 0.001153
215 0.001173
216 0.001169
217 0.001145
218 0.001106
219 0.001093
220 0.001093
221 0.001088
222 0.001109
223 0.001149
224 0.001142
225 0.001112
226 0.001113
227 0.001125
228 0.001084
229 0.001062
230 0.001041
231 0.001034
232 0.001064
233 0.001078
234 0.001073
235 0.001077
236 0.001117
237 0.001144
238 0.001128
239 0.001107
240 0.001075
241 0.001071
242 0.001075
243 0.001078
244 0.001031
245 0.000976
246 0.000949
247 0.000959
248 0.000937
249 0.000896
250 0.000865
251 0.000836
252 0.000835
253 0.000812
254 0.000772
255 0.000731
256 0.000716
257 0.000704
258 0.000740
259 0.000744
260 0.000732
261 0.000722
262 0.000749
263 0.000756
264 0.000762
265 0.000782
266 0.000796
267 0.000838
268 0.000888
269 0.000877
270 0.000866
271 0.000848
272 0.000807
273 0.000736
274 0.000668
275 0.000643
276 0.000615
277 0.000613
278 0.000631
279 0.000654
280 0.000663
281 0.000676
282 0.000687
283 0.000690
284 0.000670
285 0.000676
286 0.000693
287 0.000679
288 0.000667
289 0.000690
290 0.000704
291 0.000714
292 0.000715
293 0.000734
294 0.000758
295 0.000746
296 0.000729
297 0.000743
298 0.000753
299 0.000789
300 0.000826
301 0.000845
302 0.000868
303 0.000900
304 0.000920
305 0.000903
306 0.000884
307 0.000876
308 0.000868
309 0.000858
310 0.000854
311 0.000841
312 0.000853
313 0.000880
314 0.000925
315 0.000926
316 0.000924
317 0.000911
318 0.000921
319 0.000912
320 0.000897
321 0.000896
322 0.000888
323 0.000901
324 0.000914
325 0.000906
326 0.000889
327 0.000853
328 0.000837
329 0.000833
330 0.000838
331 0.000845
332 0.000856
333 0.000876
334 0.000918
335 0.000972
336 0.001015
337 0.001036
338 0.001036
339 0.001007
340 0.000983
341 0.000974
342 0.000967
343 0.000961
344 0.000945
345 0.000936
346 0.000947
347 0.000977
348 0.001012
349 0.000995
350 0.000993
351 0.001009
352 0.001040
353 0.001046
354 0.001028
355 0.001011
356 0.000999
357 0.000996
358 0.000979
359 0.000987
360 0.000995
361 0.001022
362 0.001066
363 0.001081
364 0.001082
365 0.001075
366 0.001057
367 0.001032
368 0.001004
369 0.000988
370 0.000986
371 0.000999
372 0.000993
373 0.000982
374 0.000990
375 0.001003
376 0.000998
377 0.000991
378 0.000967
379 0.000962
380 0.000958
381 0.000949
382 0.000930
383 0.000917
384 0.000896
385 0.000888
386 0.000857
387 0.000835
388 0.000822
389 0.000789
390 0.000775
391 0.000766
392 0.000743
393 0.000711
394 0.000694
395 0.000674
396 0.000639
397 0.000597
398 0.000579
399 0.000568
400 0.000549
401 0.000542
402 0.000546
403 0.000553
404 0.000573
405 0.000575
406 0.000604
407 0.000601
408 0.000577
409 0.000569
410 0.000566
411 0.000574
412 0.000562
413 0.000596
414 0.000618
415 0.000634
416 0.000637
417 0.000646
418 0.000645
419 0.000649
420 0.000619
421 0.000566
422 0.000501
423 0.000479
424 0.000436
425 0.000419
426 0.000425
427 0.000450
428 0.000451
429 0.000440
430 0.000423
431 0.000413
432 0.000436
433 0.000457
434 0.000464
435 0.000469
436 0.000492
437 0.000516
438 0.000549
439 0.000522
440 0.000518
441 0.000523
442 0.000521
443 0.000514
444 0.000539
445 0.000554
446 0.000584
447 0.000577
448 0.000566
449 0.000575
450 0.000597
451 0.000602
452 0.000621
453 0.000631
454 0.000650
455 0.000671
456 0.000688
457 0.000686
458 0.000687
459 0.000674
460 0.000670
461 0.000666
462 0.000673
463 0.000665
464 0.000657
465 0.000645
466 0.000613
467 0.000564
468 0.000534
469 0.000535
470 0.000517
471 0.000527
472 0.000523
473 0.000530
474 0.000530
475 0.000531
476 0.000519
477 0.000500
478 0.000479
479 0.000492
480 0.000486
481 0.000501
482 0.000509
483 0.000523
484 0.000551
485 0.000583
486 0.000610
487 0.000591
488 0.000576
489 0.000568
490 0.000571
491 0.000585
492 0.000601
493 0.000583
494 0.000595
495 0.000614
496 0.000619
497 0.000612
498 0.000588
499 0.000560
500 0.000528
501 0.000501
502 0.000497
503 0.000505
504 0.000510
505 0.000515
506 0.000520
507 0.000527
508 0.000518
509 0.000503
510 0.000485
511 0.000467
512 0.000451
513 0.000457
514 0.000467
515 0.000484
516 0.000501
517 0.000503
518 0.000513
519 0.000530
520 0.000550
521 0.000556
522 0.000551
523 0.000559
524 0.000554
525 0.000535
526 0.000536
527 0.000554
528 0.000543
529 0.000533
530 0.000544
531 0.000535
532 0.000526
533 0.000530
534 0.000526
535 0.000516
536 0.000516
537 0.000521
538 0.000536
539 0.000531
540 0.000515
541 0.000515
542 0.000509
543 0.000498
544 0.000487
545 0.000487
546 0.000500
547 0.000537
548 0.000542
549 0.000538
550 0.000552
551 0.000584
552 0.000606
553 0.000595
554 0.000562
555 0.000528
556 0.000476
557 0.000435
558 0.000392
559 0.000351
560 0.000313
561 0.000328
562 0.000355
563 0.000327
564 0.000307
565 0.000274
566 0.000252
567 0.000246
568 0.000234
569 0.000236
570 0.000236
571 0.000255
572 0.000269
573 0.000283
574 0.000318
575 0.000331
576 0.000334
577 0.000318
578 0.000295
579 0.000302
580 0.000309
581 0.000287
582 0.000266
583 0.000270
584 0.000295
585 0.000318
586 0.000334
587 0.000335
588 0.000322
589 0.000328
590 0.000344
591 0.000366
592 0.000370
593 0.000362
594 0.000358
595 0.000356
596 0.000360
597 0.000351
598 0.000347
599 0.000338
600 0.000316
601 0.000306
602 0.000280
603 0.000272
604 0.000276
605 0.000275
606 0.000268
607 0.000232
608 0.000214
609 0.000184
610 0.000124
611 0.000077
612 0.000040
613 0.000032
614 0.000023
615 0.000022
616 0.000008
617 -0.000012
618 -0.000019
619 -0.000017
620 -0.000005
621 0.000003
622 0.000026
623 0.000033
624 0.000034
625 0.000033
626 0.000040
627 0.000049
628 0.000051
629 0.000054
630 0.000057
631 0.000070
632 0.000094
633 0.000111
634 0.000113
635 0.000103
636 0.000094
637 0.000115
638 0.000146
639 0.000156
640 0.000151
641 0.000142
642 0.000155
643 0.000154
644 0.000150
645 0.000153
646 0.000145
647 0.000141
648 0.000146
649 0.000156
650 0.000182
651 0.000189
652 0.000201
653 0.000197
654 0.000209
655 0.000221
656 0.000221
657 0.000216
658 0.000206
659 0.000209
660 0.000217
661 0.000237
662 0.000264
663 0.000277
664 0.000283
665 0.000283
666 0.000302
667 0.000334
668 0.000343
669 0.000353
670 0.000348
671 0.000342
672 0.000344
673 0.000359
674 0.000366
675 0.000363
676 0.000356
677 0.000363
678 0.000372
679 0.000379
680 0.000370
681 0.000379
682 0.000365
683 0.000349
684 0.000347
685 0.000341
686 0.000328
687 0.000321
688 0.000323
689 0.000322
690 0.000322
691 0.000328
692 0.000339
693 0.000333
694 0.000330
695 0.000338
696 0.000371
697 0.000391
698 0.000416
699 0.000423
700 0.000437
701 0.000459
702 0.000464
703 0.000476
704 0.000475
705 0.000482
706 0.000489
707 0.000489
708 0.000500
709 0.000499
710 0.000478
711 0.000458
712 0.000447
713 0.000445
714 0.000444
715 0.000441
716 0.000435
717 0.000417
718 0.000402
719 0.000400
720 0.000393
721 0.000386
722 0.000379
723 0.000367
724 0.000352
725 0.000339
726 0.000320
727 0.000314
728 0.000325
729 0.000307
730 0.000292
731 0.000295
732 0.000300
733 0.000313
734 0.000307
735 0.000301
736 0.000292
737 0.000289
738 0.000300
739 0.000319
740 0.000321
741 0.000300
742 0.000295
743 0.000308
744 0.000313
745 0.000302
746 0.000294
747 0.000291
748 0.000290
749 0.000286
750 0.000290
751 0.000287
752 0.000268
753 0.000247
754 0.000236
755 0.000218
756 0.000208
757 0.000200
758 0.000185
759 0.000168
760 0.000151
761 0.000155
762 0.000148
763 0.000138
764 0.000130
765 0.000109
766 0.000093
767 0.000095
768 0.000105
769 0.000109
770 0.000106
771 0.000103
772 0.000099
773 0.000101
774 0.000107
775 0.000113
776 0.000105
777 0.000099
778 0.000109
779 0.000119
780 0.000125
781 0.000139
782 0.000153
783 0.000149
784 0.000157
785 0.000177
786 0.000190
787 0.000180
788 0.000178
789 0.000185
790 0.000196
791 0.000204
792 0.000213
793 0.000210
794 0.000212
795 0.000199
796 0.000184
797 0.000183
798 0.000178
799 0.000177
800 0.000168
801 0.000154
802 0.000147
803 0.000144
804 0.000133
805 0.000114
806 0.000097
807 0.000081
808 0.000085
809 0.000109
