# i correlation
1 0.002415
2 0.002125
3 0.001926
4 0.001776
5 0.001636
6 0.001498
7 0.001397
8 0.001352
9 0.001310
10 0.001207
11 0.001149
12 0.001098
13 0.001062
14 0.000992
15 0.000890
16 0.000829
17 0.000794
18 0.000733
19 0.000710
20 0.000671
21 0.000623
22 0.000581
23 0.000547
24 0.000492
25 0.000466
26 0.000456
27 0.000450
28 0.000465
29 0.000459
30 0.000431
31 0.000406
32 0.000368
33 0.000338
34 0.000301
35 0.000214
36 0.000160
37 0.000142
38 0.000133
39 0.000116
40 0.000115
41 0.000116
42 0.000112
43 0.000070
44 0.000040
45 0.000008
46 0.000005
47 -0.000006
48 -0.000009
49 -0.000021
50 -0.000028
51 -0.000010
52 -0.000007
53 -0.000026
54 -0.000038
55 -0.000027
56 -0.000050
57 -0.000042
58 -0.000036
59 0.000001
60 0.000047
61 0.000098
62 0.000131
63 0.000134
64 0.000127
65 0.000130
66 0.000117
67 0.000162
68 0.000209
69 0.000260
70 0.000299
71 0.000343
72 0.000403
73 0.000454
74 0.000528
75 0.000573
76 0.000612
77 0.000640
78 0.000688
79 0.000655
80 0.000630
81 0.000628
82 0.000625
83 0.000624
84 0.000624
85 0.000647
86 0.000684
87 0.000682
88 0.000656
89 0.000641
90 0.000596
91 0.000575
92 0.000568
93 0.000542
94 0.000501
95 0.000519
96 0.000555
97 0.000568
98 0.000579
99 0.000592
100 0.000623
101 0.000624
102 0.000606
103 0.000609
104 0.000631
105 0.000635
106 0.000610
107 0.000581
108 0.000591
109 0.000624
110 0.000619
111 0.000599
112 0.000610
113 0.000614
114 0.000651
115 0.000688
116 0.000716
117 0.000721
118 0.000706
119 0.000694
120 0.000687
121 0.000628
122 0.000550
123 0.000499
124 0.000464
125 0.000439
126 0.000390
127 0.000352
128 0.000335
129 0.000349
130 0.000319
131 0.000259
132 0.000208
133 0.000193
134 0.000159
135 0.000106
136 0.000061
137 0.000046
138 0.000040
139 -0.000002
140 -0.000054
141 -0.000063
142 -0.000059
143 -0.000067
144 -0.000108
145 -0.000111
146 -0.000078
147 -0.000031
148 0.000019
149 0.000053
150 0.000097
151 0.000101
152 0.000082
153 0.000039
154 0.000031
155 0.000050
156 0.000064
157 0.000079
158 0.000080
159 0.000066
160 0.000096
161 0.000122
162 0.000150
163 0.000178
164 0.000208
165 0.000202
166 0.000199
167 0.000198
168 0.000177
169 0.000162
170 0.000164
171 0.000210
172 0.000274
173 0.000320
174 0.000363
175 0.000406
176 0.000450
177 0.000468
178 0.000466
179 0.000464
180 0.000498
181 0.000510
182 0.000507
183 0.000509
184 0.000542
185 0.000554
186 0.000548
187 0.000542
188 0.000572
189 0.000635
190 0.000653
191 0.000669
192 0.000692
193 0.000699
194 0.000689
195 0.000675
196 0.000656
197 0.000664
198 0.000665
199 0.000653
200 0.000642
201 0.000632
202 0.000606
203 0.000599
204 0.000613
205 0.000644
206 0.000638
207 0.000606
208 0.000587
209 0.000569
210 0.000579
211 0.000607
212 0.000624
213 0.000596
214 0.000546
215 0.000497
216 0.000463
217 0.000428
218 0.000391
219 0.000337
220 0.000286
221 0.000252
222 0.000220
223 0.000176
224 0.000155
225 0.000167
226 0.000187
227 0.000208
228 0.000201
229 0.000200
230 0.000187
231 0.000181
232 0.000149
233 0.000163
234 0.000191
235 0.000214
236 0.000217
237 0.000217
238 0.000227
239 0.000230
240 0.000223
241 0.000220
242 0.000206
243 0.000172
244 0.000114
245 0.000076
246 0.000068
247 0.000068
248 0.000043
249 0.000043
250 0.000053
251 0.000062
252 0.000058
253 0.000031
254 -0.000009
255 -0.000037
256 -0.000080
257 -0.000133
258 -0.000138
259 -0.000129
260 -0.000128
261 -0.000139
262 -0.000155
263 -0.000163
264 -0.000161
265 -0.000173
266 -0.000156
267 -0.000115
268 -0.000087
269 -0.000090
270 -0.000092
271 -0.000077
272 -0.000048
273 -0.000035
274 -0.000019
275 -0.000001
276 0.000014
277 0.000047
278 0.000083
279 0.000113
280 0.000148
281 0.000160
282 0.000133
283 0.000100
284 0.000094
285 0.000102
286 0.000106
287 0.000112
288 0.000127
289 0.000168
290 0.000191
291 0.000190
292 0.000196
293 0.000199
294 0.000201
295 0.000189
296 0.000166
297 0.000189
298 0.000226
299 0.000270
300 0.000304
301 0.000346
302 0.000362
303 0.000362
304 0.000381
305 0.000393
306 0.000379
307 0.000365
308 0.000373
309 0.000402
310 0.000423
311 0.000440
312 0.000478
313 0.000524
314 0.000544
315 0.000511
316 0.000447
317 0.000386
318 0.000345
319 0.000319
320 0.000298
321 0.000297
322 0.000301
323 0.000274
324 0.000232
325 0.000187
326 0.000172
327 0.000169
328 0.000166
329 0.000168
330 0.000174
331 0.000181
332 0.000172
333 0.000129
334 0.000062
335 0.000010
336 -0.000036
337 -0.000083
338 -0.000122
339 -0.000143
340 -0.000149
341 -0.000147
342 -0.000115
343 -0.000111
344 -0.000114
345 -0.000099
346 -0.000086
347 -0.000067
348 -0.000052
349 -0.000029
350 -0.000016
351 -0.000004
352 0.000018
353 0.000031
354 0.000054
355 0.000094
356 0.000129
357 0.000138
358 0.000112
359 0.000103
360 0.000149
361 0.000187
362 0.000206
363 0.000227
364 0.000234
365 0.000228
366 0.000223
367 0.000222
368 0.000203
369 0.000190
370 0.000165
371 0.000133
372 0.000132
373 0.000146
374 0.000114
375 0.000103
376 0.000133
377 0.000132
378 0.000140
379 0.000123
380 0.000087
381 0.000078
382 0.000083
383 0.000090
384 0.000127
385 0.000136
386 0.000163
387 0.000194
388 0.000241
389 0.000297
390 0.000342
391 0.000391
392 0.000412
393 0.000437
394 0.000437
395 0.000434
396 0.000429
397 0.000449
398 0.000453
399 0.000440
400 0.000437
401 0.000464
402 0.000490
403 0.000499
404 0.000481
405 0.000472
406 0.000457
407 0.000454
408 0.000429
409 0.000432
410 0.000431
411 0.000416
412 0.000376
413 0.000336
414 0.000338
415 0.000350
416 0.000377
417 0.000400
418 0.000434
419 0.000449
420 0.000447
421 0.000441
422 0.000443
423 0.000437
424 0.000430
425 0.000434
426 0.000450
427 0.000457
428 0.000484
429 0.000488
430 0.000511
431 0.000518
432 0.000508
433 0.000470
434 0.000438
435 0.000427
436 0.000362
437 0.000306
438 0.000276
439 0.000275
440 0.000278
441 0.000294
442 0.000283
443 0.000263
444 0.000221
445 0.000183
446 0.000162
447 0.000153
448 0.000141
449 0.000126
450 0.000107
451 0.000091
452 0.000079
453 0.000051
454 0.000021
455 -0.000003
456 -0.000026
457 -0.000061
458 -0.000105
459 -0.000128
460 -0.000125
461 -0.000128
462 -0.000113
463 -0.000118
464 -0.000097
465 -0.000074
466 -0.000083
467 -0.000090
468 -0.000087
469 -0.000043
470 -0.000020
471 0.000002
472 0.000010
473 -0.000004
474 -0.000008
475 -0.000007
476 0.000021
477 0.000059
478 0.000123
479 0.000173
480 0.000205
481 0.000229
482 0.000211
483 0.000195
484 0.000181
485 0.000192
486 0.000200
487 0.000204
488 0.000203
489 0.000191
490 0.000199
491 0.000187
492 0.000167
493 0.000175
494 0.000177
495 0.000161
496 0.000165
497 0.000204
498 0.000230
499 0.000232
500 0.000233
501 0.000228
502 0.000251
503 0.000270
504 0.000271
505 0.000285
506 0.000310
507 0.000334
508 0.000334
509 0.000321
510 0.000312
511 0.000317
512 0.000327
513 0.000329
514 0.000310
515 0.000283
516 0.000296
517 0.000312
518 0.000336
519 0.000372
520 0.000386
521 0.000386
522 0.000373
523 0.000345
524 0.000340
525 0.000328
526 0.000326
527 0.000330
528 0.000311
529 0.000288
530 0.000266
531 0.000255
532 0.000245
533 0.000227
534 0.000187
535 0.000157
536 0.000148
537 0.000136
538 0.000135
539 0.000151
540 0.000178
541 0.000195
542 0.000194
543 0.000163
544 0.000131
545 0.000110
546 0.000114
547 0.000100
548 0.000088
549 0.000102
550 0.000128
551 0.000137
552 0.000123
553 0.000119
554 0.000127
555 0.000159
556 0.000152
557 0.000151
558 0.000165
559 0.000169
560 0.000189
561 0.000192
562 0.000190
563 0.000175
564 0.000171
565 0.000170
566 0.000174
567 0.000165
568 0.000161
569 0.000152
570 0.000114
571 0.000091
572 0.000067
573 0.000049
574 0.000034
575 0.000022
576 0.000008
577 0.000009
578 0.000022
579 0.000040
580 0.000055
581 0.000072
582 0.000077
583 0.000112
584 0.000132
585 0.000128
586 0.000121
587 0.000108
588 0.000123
589 0.000154
590 0.000180
591 0.000192
592 0.000196
593 0.000198
594 0.000224
595 0.000224
596 0.000227
597 0.000229
598 0.000244
599 0.000244
600 0.000261
601 0.000282
602 0.000320
603 0.000365
604 0.000367
605 0.000364
606 0.000378
607 0.000402
608 0.000400
609 0.000397
610 0.000399
611 0.000392
612 0.000387
613 0.000375
614 0.000366
615 0.000355
616 0.000354
617 0.000367
618 0.000340
619 0.000324
620 0.000306
621 0.000287
622 0.000273
623 0.000273
624 0.000277
625 0.000264
626 0.000252
627 0.000254
628 0.000266
629 0.000274
630 0.000275
631 0.000277
632 0.000286
633 0.000292
634 0.000283
635 0.000272
636 0.000297
637 0.000293
638 0.000281
639 0.000256
640 0.000241
641 0.000226
642 0.000212
643 0.000197
644 0.000183
645 0.000164
646 0.000137
647 0.000116
648 0.000061
649 -0.000014
650 -0.000065
651 -0.000095
652 -0.000129
653 -0.000137
654 -0.000155
655 -0.000148
656 -0.000152
657 -0.000150
658 -0.000138
659 -0.000145
660 -0.000144
661 -0.000119
662 -0.000108
663 -0.000114
664 -0.000111
665 -0.000117
666 -0.000120
667 -0.000124
668 -0.000137
669 -0.000132
670 -0.000111
671 -0.000113
672 -0.000133
673 -0.000162
674 -0.000152
675 -0.000140
676 -0.000134
677 -0.000124
678 -0.000123
679 -0.000123
680 -0.000124
681 -0.000108
682 -0.000090
683 -0.000066
684 -0.000057
685 -0.000059
686 -0.000068
687 -0.000077
688 -0.000076
689 -0.000074
690 -0.000075
691 -0.000068
692 -0.000056
693 -0.000047
694 -0.000047
695 -0.000043
696 -0.000043
697 -0.000032
698 -0.000020
699 -0.000004
700 -0.000001
701 -0.000007
702 0.000005
703 0.000018
704 0.000019
705 0.000032
706 0.000048
707 0.000056
708 0.000078
709 0.000097
710 0.000123
711 0.000135
712 0.000147
713 0.000154
714 0.000158
715 0.000161
716 0.000172
717 0.000174
718 0.000183
719 0.000194
720 0.000192
721 0.000194
722 0.000198
723 0.000206
724 0.000195
725 0.000169
726 0.000133
727 0.000123
728 0.000111
729 0.000118
730 0.000118
731 0.000119
732 0.000122
733 0.000136
734 0.000126
735 0.000114
736 0.000117
737 0.000107
738 0.000099
739 0.000099
740 0.000107
741 0.000102
742 0.000094
743 0.000086
744 0.000088
745 0.000073
746 0.000061
747 0.000042
748 0.000019
749 0.000010
750 -0.000005
751 -0.000011
752 -0.000000
753 0.000011
754 0.000017
755 0.000025
756 0.000026
757 0.000029
758 0.000020
759 0.000005
760 0.000003
761 0.000010
762 0.000007
763 0.000007
764 -0.000007
765 -0.000020
766 -0.000025
767 -0.000033
768 -0.000060
769 -0.000080
770 -0.000093
771 -0.000089
772 -0.000092
773 -0.000092
774 -0.000084
775 -0.000074
776 -0.000088
777 -0.000095
778 -0.000080
779 -0.000067
780 -0.000055
781 -0.000050
782 -0.000045
783 -0.000038
784 -0.000026
785 -0.000015
786 -0.000002
787 -0.000008
788 -0.000009
789 -0.000008
790 0.000003
791 0.000015
792 0.000032
793 0.000031
794 0.000034
795 0.000040
796 0.000029
797 0.000031
798 0.000031
799 0.000021
800 0.000010
801 0.000018
802 0.000024
803 0.000019
804 0.000011
805 0.000021
806 0.000024
807 0.000020
808 0.000022
809 0.000026
