# i correlation
1 0.004372
2 0.004019
3 0.003717
4 0.003486
5 0.003283
6 0.003140
7 0.003001
8 0.002888
9 0.002799
10 0.002743
11 0.002681
12 0.002634
13 0.002611
14 0.002597
15 0.002600
16 0.002586
17 0.002607
18 0.002635
19 0.002634
20 0.002610
21 0.002541
22 0.002469
23 0.002437
24 0.002405
25 0.002373
26 0.002309
27 0.002257
28 0.002197
29 0.002173
30 0.002167
31 0.002142
32 0.002056
33 0.001980
34 0.001937
35 0.001930
36 0.001947
37 0.001978
38 0.002016
39 0.002044
40 0.002096
41 0.002125
42 0.002131
43 0.002126
44 0.002104
45 0.002082
46 0.002050
47 0.002053
48 0.002034
49 0.002025
50 0.001989
51 0.001971
52 0.001921
53 0.001880
54 0.001869
55 0.001904
56 0.001925
57 0.001950
58 0.001972
59 0.001982
60 0.001981
61 0.001982
62 0.001987
63 0.001968
64 0.001915
65 0.001886
66 0.001903
67 0.001901
68 0.001878
69 0.001829
70 0.001758
71 0.001687
72 0.001626
73 0.001602
74 0.001588
75 0.001586
76 0.001600
77 0.001615
78 0.001625
79 0.001647
80 0.001652
81 0.001656
82 0.001659
83 0.001634
84 0.001601
85 0.001592
86 0.001638
87 0.001675
88 0.001712
89 0.001723
90 0.001708
91 0.001728
92 0.001747
93 0.001736
94 0.001706
95 0.001629
96 0.001573
97 0.001555
98 0.001531
99 0.001517
100 0.001511
101 0.001504
102 0.001485
103 0.001517
104 0.001556
105 0.001549
106 0.001571
107 0.001559
108 0.001546
109 0.001534
110 0.001536
111 0.001533
112 0.001527
113 0.001535
114 0.001537
115 0.001535
116 0.001550
117 0.001623
118 0.001712
119 0.001766
120 0.001758
121 0.001785
122 0.001773
123 0.001744
124 0.001721
125 0.001666
126 0.001598
127 0.001587
128 0.001576
129 0.001575
130 0.001567
131 0.001576
132 0.001575
133 0.001569
134 0.001576
135 0.001612
136 0.001640
137 0.001691
138 0.001697
139 0.001698
140 0.001680
141 0.001674
142 0.001712
143 0.001723
144 0.001710
145 0.001697
146 0.001716
147 0.001705
148 0.001722
149 0.001699
150 0.001642
151 0.001597
152 0.001556
153 0.001527
154 0.001485
155 0.001433
156 0.001357
157 0.001309
158 0.001282
159 0.001257
160 0.001267
161 0.001322
162 0.001367
163 0.001366
164 0.001346
165 0.001385
166 0.001432
167 0.001445
168 0.001458
169 0.001470
170 0.001480
171 0.001469
172 0.001460
173 0.001452
174 0.001413
175 0.001384
176 0.001351
177 0.001371
178 0.001379
179 0.001410
180 0.001441
181 0.001444
182 0.001439
183 0.001434
184 0.001432
185 0.001466
186 0.001501
187 0.001533
188 0.001541
189 0.001557
190 0.001520
191 0.001486
192 0.001442
193 0.001398
194 0.001348
195 0.001324
196 0.001309
197 0.001273
198 0.001241
199 0.001203
200 0.001194
201 0.001187
202 0.001186
203 0.001183
204 0.001187
205 0.001169
206 0.001140
207 0.001115
208 0.001135
209 0.001173
210 0.001231
211 0.001258
212 0.001268
213 0.001247
214 0.001258
215 0.001255
216 0.001223
217 0.001181
218 0.001156
219 0.001142
220 0.001169
221 0.001156
222 0.001138
223 0.001152
224 0.001186
225 0.001215
226 0.001205
227 0.001171
228 0.001180
229 0.001211
230 0.001187
231 0.001141
232 0.001093
233 0.001064
234 0.001028
235 0.000989
236 0.000965
237 0.000971
238 0.000964
239 0.000969
240 0.000998
241 0.001008
242 0.000995
243 0.000980
244 0.000947
245 0.000930
246 0.000909
247 0.000881
248 0.000836
249 0.000812
250 0.000783
251 0.000736
252 0.000728
253 0.000689
254 0.000675
255 0.000690
256 0.000717
257 0.000730
258 0.000742
259 0.000763
260 0.000750
261 0.000734
262 0.000688
263 0.000658
264 0.000669
265 0.000660
266 0.000648
267 0.000640
268 0.000634
269 0.000659
270 0.000681
271 0.000715
272 0.000745
273 0.000747
274 0.000738
275 0.000696
276 0.000662
277 0.000635
278 0.000643
279 0.000643
280 0.000665
281 0.000701
282 0.000702
283 0.000682
284 0.000648
285 0.000639
286 0.000636
287 0.000622
288 0.000619
289 0.000624
290 0.000615
291 0.000587
292 0.000550
293 0.000511
294 0.000486
295 0.000468
296 0.000477
297 0.000465
298 0.000439
299 0.000456
300 0.000468
301 0.000470
302 0.000460
303 0.000457
304 0.000438
305 0.000415
306 0.000383
307 0.000355
308 0.000355
309 0.000355
310 0.000354
311 0.000349
312 0.000359
313 0.000354
314 0.000384
315 0.000420
316 0.000419
317 0.000411
318 0.000391
319 0.000391
320 0.000391
321 0.000416
322 0.000411
323 0.000420
324 0.000414
325 0.000409
326 0.000400
327 0.000398
328 0.000420
329 0.000470
330 0.000509
331 0.000539
332 0.000588
333 0.000634
334 0.000682
335 0.000723
336 0.000720
337 0.000714
338 0.000714
339 0.000709
340 0.000714
341 0.000709
342 0.000722
343 0.000739
344 0.000758
345 0.000763
346 0.000773
347 0.000772
348 0.000765
349 0.000753
350 0.000756
351 0.000750
352 0.000747
353 0.000710
354 0.000689
355 0.000658
356 0.000667
357 0.000648
358 0.000643
359 0.000632
360 0.000645
361 0.000670
362 0.000725
363 0.000743
364 0.000739
365 0.000700
366 0.000680
367 0.000628
368 0.000596
369 0.000555
370 0.000512
371 0.000485
372 0.000460
373 0.000411
374 0.000407
375 0.000398
376 0.000415
377 0.000468
378 0.000488
379 0.000491
380 0.000478
381 0.000484
382 0.000504
383 0.000490
384 0.000475
385 0.000473
386 0.000451
387 0.000442
388 0.000408
389 0.000394
390 0.000399
391 0.000442
392 0.000467
393 0.000461
394 0.000459
395 0.000442
396 0.000410
397 0.000367
398 0.000334
399 0.000322
400 0.000327
401 0.000337
402 0.000345
403 0.000373
404 0.000363
405 0.000337
406 0.000318
407 0.000341
408 0.000348
409 0.000365
410 0.000373
411 0.000388
412 0.000403
413 0.000424
414 0.000422
415 0.000408
416 0.000381
417 0.000373
418 0.000378
419 0.000349
420 0.000321
421 0.000317
422 0.000311
423 0.000292
424 0.000287
425 0.000285
426 0.000272
427 0.000268
428 0.000251
429 0.000261
430 0.000243
431 0.000224
432 0.000219
433 0.000223
434 0.000213
435 0.000198
436 0.000172
437 0.000120
438 0.000099
439 0.000094
440 0.000084
441 0.000073
442 0.000088
443 0.000143
444 0.000191
445 0.000205
446 0.000207
447 0.000208
448 0.000229
449 0.000226
450 0.000228
451 0.000239
452 0.000257
453 0.000264
454 0.000253
455 0.000224
456 0.000201
457 0.000173
458 0.000187
459 0.000201
460 0.000224
461 0.000249
462 0.000269
463 0.000288
464 0.000292
465 0.000312
466 0.000347
467 0.000376
468 0.000377
469 0.000404
470 0.000439
471 0.000455
472 0.000457
473 0.000471
474 0.000476
475 0.000485
476 0.000506
477 0.000502
478 0.000472
479 0.000438
480 0.000419
481 0.000406
482 0.000407
483 0.000427
484 0.000464
485 0.000497
486 0.000497
487 0.000494
488 0.000475
489 0.000477
490 0.000474
491 0.000454
492 0.000412
493 0.000396
494 0.000376
495 0.000384
496 0.000387
497 0.000381
498 0.000366
499 0.000354
500 0.000356
501 0.000393
502 0.000431
503 0.000461
504 0.000500
505 0.000532
506 0.000565
507 0.000567
508 0.000575
509 0.000583
510 0.000582
511 0.000597
512 0.000609
513 0.000619
514 0.000650
515 0.000658
516 0.000635
517 0.000590
518 0.000533
519 0.000491
520 0.000461
521 0.000457
522 0.000463
523 0.000459
524 0.000468
525 0.000493
526 0.000508
527 0.000508
528 0.000500
529 0.000510
530 0.000524
531 0.000549
532 0.000558
533 0.000566
534 0.000576
535 0.000568
536 0.000560
537 0.000533
538 0.000483
539 0.000468
540 0.000449
541 0.000402
542 0.000368
543 0.000331
544 0.000296
545 0.000273
546 0.000266
547 0.000233
548 0.000198
549 0.000203
550 0.000215
551 0.000217
552 0.000253
553 0.000281
554 0.000327
555 0.000351
556 0.000356
557 0.000367
558 0.000365
559 0.000340
560 0.000332
561 0.000311
562 0.000283
563 0.000254
564 0.000280
565 0.000285
566 0.000292
567 0.000292
568 0.000264
569 0.000235
570 0.000270
571 0.000308
572 0.000347
573 0.000370
574 0.000388
575 0.000388
576 0.000388
577 0.000399
578 0.000388
579 0.000378
580 0.000391
581 0.000412
582 0.000428
583 0.000419
584 0.000388
585 0.000359
586 0.000319
587 0.000299
588 0.000280
589 0.000271
590 0.000282
591 0.000294
592 0.000281
593 0.000259
594 0.000270
595 0.000299
596 0.000306
597 0.000326
598 0.000317
599 0.000287
600 0.000268
601 0.000288
602 0.000318
603 0.000337
604 0.000366
605 0.000376
606 0.000385
607 0.000385
608 0.000393
609 0.000390
610 0.000372
611 0.000353
612 0.000333
613 0.000325
614 0.000316
615 0.000316
616 0.000312
617 0.000300
618 0.000301
619 0.000302
620 0.000324
621 0.000334
622 0.000334
623 0.000343
624 0.000350
625 0.000363
626 0.000377
627 0.000383
628 0.000400
629 0.000407
630 0.000394
631 0.000396
632 0.000414
633 0.000442
634 0.000434
635 0.000407
636 0.000381
637 0.000378
638 0.000382
639 0.000367
640 0.000346
641 0.000318
642 0.000290
643 0.000304
644 0.000314
645 0.000314
646 0.000340
647 0.000344
648 0.000359
649 0.000378
650 0.000408
651 0.000422
652 0.000439
653 0.000452
654 0.000443
655 0.000431
656 0.000403
657 0.000376
658 0.000376
659 0.000377
660 0.000352
661 0.000323
662 0.000286
663 0.000283
664 0.000299
665 0.000286
666 0.000257
667 0.000234
668 0.000226
669 0.000208
670 0.000208
671 0.000218
672 0.000209
673 0.000238
674 0.000260
675 0.000278
676 0.000284
677 0.000275
678 0.000252
679 0.000233
680 0.000196
681 0.000181
682 0.000162
683 0.000157
684 0.000158
685 0.000172
686 0.000168
687 0.000142
688 0.000151
689 0.000175
690 0.000201
691 0.000256
692 0.000311
693 0.000338
694 0.000362
695 0.000400
696 0.000418
697 0.000411
698 0.000405
699 0.000400
700 0.000401
701 0.000403
702 0.000402
703 0.000389
704 0.000363
705 0.000326
706 0.000291
707 0.000265
708 0.000243
709 0.000225
710 0.000219
711 0.000220
712 0.000235
713 0.000250
714 0.000249
715 0.000248
716 0.000244
717 0.000241
718 0.000235
719 0.000256
720 0.000285
721 0.000305
722 0.000332
723 0.000342
724 0.000335
725 0.000349
726 0.000389
727 0.000395
728 0.000386
729 0.000358
730 0.000334
731 0.000301
732 0.000297
733 0.000296
734 0.000292
735 0.000269
736 0.000234
737 0.000192
738 0.000158
739 0.000152
740 0.000154
741 0.000155
742 0.000165
743 0.000191
744 0.000208
745 0.000232
746 0.000263
747 0.000279
748 0.000273
749 0.000265
750 0.000264
751 0.000263
752 0.000258
753 0.000266
754 0.000239
755 0.000214
756 0.000203
757 0.000195
758 0.000181
759 0.000184
760 0.000165
761 0.000139
762 0.000125
763 0.000120
764 0.000125
765 0.000117
766 0.000110
767 0.000101
768 0.000091
769 0.000071
770 0.000062
771 0.000042
772 0.000021
773 -0.000001
774 -0.000019
775 -0.000040
776 -0.000047
777 -0.000058
778 -0.000068
779 -0.000075
780 -0.000097
781 -0.000111
782 -0.000125
783 -0.000138
784 -0.000158
785 -0.000159
786 -0.000147
787 -0.000142
788 -0.000141
789 -0.000131
790 -0.000130
791 -0.000120
792 -0.000103
793 -0.000092
794 -0.000086
795 -0.000069
796 -0.000070
797 -0.000084
798 -0.000091
799 -0.000099
800 -0.000104
801 -0.000115
802 -0.000115
803 -0.000115
804 -0.000107
805 -0.000095
806 -0.000081
807 -0.000077
808 -0.000068
809 -0.000057
