# i correlation
1 0.003221
2 0.002912
3 0.002661
4 0.002468
5 0.002274
6 0.002126
7 0.002006
8 0.001930
9 0.001851
10 0.001756
11 0.001699
12 0.001629
13 0.001547
14 0.001469
15 0.001423
16 0.001397
17 0.001384
18 0.001359
19 0.001343
20 0.001335
21 0.001323
22 0.001300
23 0.001270
24 0.001265
25 0.001260
26 0.001236
27 0.001175
28 0.001140
29 0.001147
30 0.001149
31 0.001156
32 0.001129
33 0.001115
34 0.001083
35 0.001041
36 0.001016
37 0.000982
38 0.000965
39 0.000961
40 0.000949
41 0.000949
42 0.000924
43 0.000904
44 0.000891
45 0.000872
46 0.000849
47 0.000836
48 0.000819
49 0.000802
50 0.000815
51 0.000833
52 0.000824
53 0.000833
54 0.000847
55 0.000860
56 0.000836
57 0.000780
58 0.000739
59 0.000725
60 0.000700
61 0.000664
62 0.000691
63 0.000695
64 0.000730
65 0.000738
66 0.000749
67 0.000768
68 0.000762
69 0.000749
70 0.000757
71 0.000769
72 0.000767
73 0.000789
74 0.000768
75 0.000781
76 0.000761
77 0.000744
78 0.000702
79 0.000719
80 0.000696
81 0.000717
82 0.000739
83 0.000772
84 0.000763
85 0.000739
86 0.000723
87 0.000719
88 0.000732
89 0.000689
90 0.000659
91 0.000603
92 0.000516
93 0.000441
94 0.000382
95 0.000377
96 0.000373
97 0.000380
98 0.000400
99 0.000414
100 0.000423
101 0.000433
102 0.000411
103 0.000364
104 0.000357
105 0.000367
106 0.000402
107 0.000422
108 0.000454
109 0.000480
110 0.000526
111 0.000550
112 0.000569
113 0.000582
114 0.000567
115 0.000545
116 0.000540
117 0.000561
118 0.000571
119 0.000544
120 0.000537
121 0.000554
122 0.000561
123 0.000554
124 0.000566
125 0.000569
126 0.000589
127 0.000600
128 0.000586
129 0.000562
130 0.000567
131 0.000581
132 0.000562
133 0.000522
134 0.000520
135 0.000540
136 0.000530
137 0.000536
138 0.000533
139 0.000532
140 0.000503
141 0.000494
142 0.000489
143 0.000526
144 0.000520
145 0.000492
146 0.000474
147 0.000467
148 0.000470
149 0.000448
150 0.000464
151 0.000502
152 0.000565
153 0.000584
154 0.000608
155 0.000630
156 0.000639
157 0.000647
158 0.000633
159 0.000606
160 0.000585
161 0.000608
162 0.000615
163 0.000611
164 0.000595
165 0.000592
166 0.000577
167 0.000567
168 0.000559
169 0.000559
170 0.000559
171 0.000565
172 0.000599
173 0.000654
174 0.000696
175 0.000710
176 0.000715
177 0.000732
178 0.000723
179 0.000721
180 0.000714
181 0.000717
182 0.000700
183 0.000698
184 0.000686
185 0.000668
186 0.000639
187 0.000615
188 0.000596
189 0.000556
190 0.000541
191 0.000532
192 0.000508
193 0.000467
194 0.000456
195 0.000443
196 0.000446
197 0.000429
198 0.000420
199 0.000441
200 0.000466
201 0.000486
202 0.000504
203 0.000523
204 0.000505
205 0.000479
206 0.000503
207 0.000531
208 0.000565
209 0.000557
210 0.000553
211 0.000574
212 0.000626
213 0.000641
214 0.000659
215 0.000689
216 0.000729
217 0.000748
218 0.000750
219 0.000756
220 0.000747
221 0.000742
222 0.000740
223 0.000765
224 0.000783
225 0.000813
226 0.000823
227 0.000851
228 0.000858
229 0.000823
230 0.000769
231 0.000727
232 0.000701
233 0.000687
234 0.000690
235 0.000681
236 0.000680
237 0.000652
238 0.000637
239 0.000629
240 0.000623
241 0.000641
242 0.000669
243 0.000674
244 0.000691
245 0.000702
246 0.000699
247 0.000689
248 0.000677
249 0.000677
250 0.000665
251 0.000632
252 0.000639
253 0.000666
254 0.000709
255 0.000745
256 0.000807
257 0.000809
258 0.000826
259 0.000855
260 0.000880
261 0.000898
262 0.000913
263 0.000936
264 0.000969
265 0.000996
266 0.000993
267 0.000996
268 0.000964
269 0.000916
270 0.000890
271 0.000855
272 0.000825
273 0.000800
274 0.000791
275 0.000784
276 0.000751
277 0.000704
278 0.000680
279 0.000682
280 0.000693
281 0.000699
282 0.000722
283 0.000746
284 0.000719
285 0.000712
286 0.000702
287 0.000702
288 0.000681
289 0.000674
290 0.000672
291 0.000676
292 0.000684
293 0.000667
294 0.000666
295 0.000659
296 0.000657
297 0.000652
298 0.000677
299 0.000683
300 0.000691
301 0.000696
302 0.000666
303 0.000637
304 0.000638
305 0.000633
306 0.000621
307 0.000603
308 0.000599
309 0.000608
310 0.000571
311 0.000552
312 0.000539
313 0.000537
314 0.000524
315 0.000512
316 0.000517
317 0.000504
318 0.000509
319 0.000496
320 0.000490
321 0.000463
322 0.000445
323 0.000449
324 0.000455
325 0.000466
326 0.000493
327 0.000532
328 0.000554
329 0.000610
330 0.000663
331 0.000694
332 0.000693
333 0.000713
334 0.000735
335 0.000769
336 0.000801
337 0.000861
338 0.000909
339 0.000962
340 0.000980
341 0.000992
342 0.000998
343 0.000992
344 0.000953
345 0.000893
346 0.000833
347 0.000776
348 0.000716
349 0.000705
350 0.000701
351 0.000689
352 0.000689
353 0.000711
354 0.000746
355 0.000772
356 0.000775
357 0.000750
358 0.000718
359 0.000704
360 0.000694
361 0.000674
362 0.000667
363 0.000638
364 0.000605
365 0.000573
366 0.000537
367 0.000490
368 0.000448
369 0.000400
370 0.000359
371 0.000344
372 0.000309
373 0.000303
374 0.000278
375 0.000275
376 0.000277
377 0.000278
378 0.000282
379 0.000289
380 0.000325
381 0.000355
382 0.000385
383 0.000376
384 0.000368
385 0.000359
386 0.000386
387 0.000417
388 0.000428
389 0.000444
390 0.000473
391 0.000487
392 0.000493
393 0.000488
394 0.000461
395 0.000425
396 0.000396
397 0.000370
398 0.000337
399 0.000303
400 0.000276
401 0.000241
402 0.000217
403 0.000201
404 0.000205
405 0.000173
406 0.000186
407 0.000212
408 0.000244
409 0.000267
410 0.000285
411 0.000310
412 0.000324
413 0.000324
414 0.000335
415 0.000364
416 0.000400
417 0.000430
418 0.000484
419 0.000526
420 0.000545
421 0.000570
422 0.000590
423 0.000581
424 0.000574
425 0.000582
426 0.000595
427 0.000602
428 0.000608
429 0.000611
430 0.000587
431 0.000555
432 0.000513
433 0.000464
434 0.000403
435 0.000361
436 0.000332
437 0.000353
438 0.000356
439 0.000366
440 0.000403
441 0.000446
442 0.000491
443 0.000517
444 0.000528
445 0.000511
446 0.000482
447 0.000454
448 0.000470
449 0.000474
450 0.000483
451 0.000484
452 0.000488
453 0.000464
454 0.000423
455 0.000393
456 0.000353
457 0.000349
458 0.000337
459 0.000339
460 0.000339
461 0.000369
462 0.000360
463 0.000362
464 0.000341
465 0.000313
466 0.000314
467 0.000293
468 0.000277
469 0.000248
470 0.000243
471 0.000241
472 0.000245
473 0.000258
474 0.000271
475 0.000274
476 0.000256
477 0.000259
478 0.000246
479 0.000238
480 0.000243
481 0.000261
482 0.000274
483 0.000307
484 0.000325
485 0.000316
486 0.000316
487 0.000324
488 0.000323
489 0.000336
490 0.000340
491 0.000356
492 0.000390
493 0.000415
494 0.000439
495 0.000452
496 0.000456
497 0.000469
498 0.000484
499 0.000495
500 0.000483
501 0.000455
502 0.000435
503 0.000417
504 0.000428
505 0.000424
506 0.000426
507 0.000425
508 0.000437
509 0.000431
510 0.000430
511 0.000433
512 0.000450
513 0.000445
514 0.000455
515 0.000456
516 0.000465
517 0.000466
518 0.000459
519 0.000440
520 0.000416
521 0.000389
522 0.000349
523 0.000314
524 0.000312
525 0.000323
526 0.000325
527 0.000320
528 0.000316
529 0.000302
530 0.000310
531 0.000319
532 0.000311
533 0.000303
534 0.000297
535 0.000282
536 0.000267
537 0.000243
538 0.000234
539 0.000238
540 0.000230
541 0.000216
542 0.000205
543 0.000202
544 0.000166
545 0.000157
546 0.000131
547 0.000112
548 0.000099
549 0.000092
550 0.000097
551 0.000085
552 0.000074
553 0.000091
554 0.000120
555 0.000149
556 0.000184
557 0.000207
558 0.000215
559 0.000219
560 0.000224
561 0.000238
562 0.000270
563 0.000298
564 0.000306
565 0.000331
566 0.000348
567 0.000342
568 0.000335
569 0.000352
570 0.000347
571 0.000333
572 0.000319
573 0.000310
574 0.000306
575 0.000288
576 0.000258
577 0.000243
578 0.000221
579 0.000209
580 0.000209
581 0.000217
582 0.000208
583 0.000200
584 0.000193
585 0.000187
586 0.000171
587 0.000157
588 0.000136
589 0.000116
590 0.000083
591 0.000050
592 0.000025
593 0.000036
594 0.000053
595 0.000088
596 0.000122
597 0.000136
598 0.000162
599 0.000190
600 0.000216
601 0.000232
602 0.000252
603 0.000267
604 0.000287
605 0.000309
606 0.000317
607 0.000307
608 0.000290
609 0.000305
610 0.000337
611 0.000342
612 0.000335
613 0.000323
614 0.000317
615 0.000328
616 0.000325
617 0.000323
618 0.000332
619 0.000316
620 0.000315
621 0.000339
622 0.000355
623 0.000347
624 0.000360
625 0.000371
626 0.000363
627 0.000341
628 0.000326
629 0.000329
630 0.000316
631 0.000312
632 0.000312
633 0.000299
634 0.000283
635 0.000284
636 0.000303
637 0.000321
638 0.000334
639 0.000348
640 0.000336
641 0.000328
642 0.000333
643 0.000340
644 0.000348
645 0.000358
646 0.000358
647 0.000354
648 0.000341
649 0.000319
650 0.000303
651 0.000299
652 0.000300
653 0.000293
654 0.000305
655 0.000306
656 0.000322
657 0.000318
658 0.000295
659 0.000257
660 0.000255
661 0.000258
662 0.000254
663 0.000254
664 0.000255
665 0.000255
666 0.000240
667 0.000236
668 0.000248
669 0.000266
670 0.000270
671 0.000265
672 0.000271
673 0.000281
674 0.000287
675 0.000294
676 0.000308
677 0.000322
678 0.000337
679 0.000351
680 0.000360
681 0.000350
682 0.000334
683 0.000333
684 0.000332
685 0.000336
686 0.000350
687 0.000359
688 0.000376
689 0.000376
690 0.000349
691 0.000327
692 0.000314
693 0.000309
694 0.000291
695 0.000283
696 0.000271
697 0.000258
698 0.000242
699 0.000219
700 0.000196
701 0.000178
702 0.000151
703 0.000124
704 0.000113
705 0.000109
706 0.000103
707 0.000098
708 0.000101
709 0.000098
710 0.000098
711 0.000092
712 0.000100
713 0.000083
714 0.000069
715 0.000049
716 0.000048
717 0.000031
718 0.000021
719 0.000023
720 0.000058
721 0.000067
722 0.000086
723 0.000099
724 0.000112
725 0.000118
726 0.000117
727 0.000118
728 0.000095
729 0.000062
730 0.000046
731 0.000042
732 0.000018
733 0.000013
734 0.000003
735 -0.000013
736 -0.000030
737 -0.000047
738 -0.000066
739 -0.000073
740 -0.000073
741 -0.000069
742 -0.000048
743 -0.000009
744 0.000022
745 0.000047
746 0.000073
747 0.000087
748 0.000100
749 0.000112
750 0.000117
751 0.000135
752 0.000162
753 0.000184
754 0.000199
755 0.000204
756 0.000205
757 0.000204
758 0.000189
759 0.000181
760 0.000181
761 0.000181
762 0.000188
763 0.000188
764 0.000183
765 0.000174
766 0.000173
767 0.000164
768 0.000151
769 0.000138
770 0.000131
771 0.000133
772 0.000138
773 0.000133
774 0.000148
775 0.000148
776 0.000155
777 0.000164
778 0.000180
779 0.000199
780 0.000217
781 0.000235
782 0.000253
783 0.000262
784 0.000274
785 0.000274
786 0.000270
787 0.000260
788 0.000246
789 0.000241
790 0.000239
791 0.000236
792 0.000228
793 0.000232
794 0.000221
795 0.000219
796 0.000209
797 0.000213
798 0.000219
799 0.000231
800 0.000237
801 0.000245
802 0.000259
803 0.000271
804 0.000275
805 0.000272
806 0.000269
807 0.000262
808 0.000254
809 0.000240
