# i correlation
1 0.002986
2 0.002748
3 0.002558
4 0.002422
5 0.002285
6 0.002188
7 0.002087
8 0.002014
9 0.001907
10 0.001781
11 0.001686
12 0.001617
13 0.001570
14 0.001471
15 0.001397
16 0.001313
17 0.001237
18 0.001181
19 0.001119
20 0.001094
21 0.001052
22 0.001007
23 0.000945
24 0.000937
25 0.000908
26 0.000881
27 0.000869
28 0.000879
29 0.000859
30 0.000854
31 0.000877
32 0.000893
33 0.000929
34 0.000955
35 0.000998
36 0.000987
37 0.000963
38 0.000916
39 0.000881
40 0.000886
41 0.000898
42 0.000928
43 0.000963
44 0.000977
45 0.000955
46 0.000947
47 0.000913
48 0.000916
49 0.000911
50 0.000884
51 0.000881
52 0.000836
53 0.000805
54 0.000789
55 0.000794
56 0.000768
57 0.000742
58 0.000724
59 0.000734
60 0.000725
61 0.000689
62 0.000638
63 0.000600
64 0.000596
65 0.000584
66 0.000584
67 0.000585
68 0.000588
69 0.000608
70 0.000599
71 0.000665
72 0.000744
73 0.000777
74 0.000811
75 0.000845
76 0.000858
77 0.000883
78 0.000925
79 0.000972
80 0.000983
81 0.000974
82 0.000903
83 0.000867
84 0.000851
85 0.000891
86 0.000951
87 0.000982
88 0.000992
89 0.001002
90 0.000954
91 0.000942
92 0.000938
93 0.000960
94 0.000981
95 0.001018
96 0.001022
97 0.001021
98 0.000996
99 0.001012
100 0.000987
101 0.000960
102 0.000935
103 0.000929
104 0.000923
105 0.000905
106 0.000926
107 0.000937
108 0.000960
109 0.000943
110 0.000935
111 0.000900
112 0.000851
113 0.000833
114 0.000830
115 0.000817
116 0.000809
117 0.000803
118 0.000734
119 0.000706
120 0.000684
121 0.000705
122 0.000713
123 0.000717
124 0.000674
125 0.000615
126 0.000585
127 0.000541
128 0.000523
129 0.000530
130 0.000540
131 0.000539
132 0.000548
133 0.000540
134 0.000546
135 0.000546
136 0.000500
137 0.000462
138 0.000436
139 0.000398
140 0.000359
141 0.000359
142 0.000349
143 0.000346
144 0.000319
145 0.000303
146 0.000300
147 0.000300
148 0.000280
149 0.000280
150 0.000290
151 0.000288
152 0.000338
153 0.000398
154 0.000454
155 0.000482
156 0.000498
157 0.000535
158 0.000579
159 0.000600
160 0.000584
161 0.000543
162 0.000505
163 0.000495
164 0.000489
165 0.000514
166 0.000543
167 0.000584
168 0.000588
169 0.000575
170 0.000556
171 0.000526
172 0.000498
173 0.000488
174 0.000492
175 0.000503
176 0.000471
177 0.000425
178 0.000395
179 0.000360
180 0.000328
181 0.000322
182 0.000317
183 0.000317
184 0.000331
185 0.000354
186 0.000362
187 0.000392
188 0.000424
189 0.000462
190 0.000493
191 0.000502
192 0.000522
193 0.000565
194 0.000579
195 0.000604
196 0.000592
197 0.000585
198 0.000587
199 0.000589
200 0.000617
201 0.000661
202 0.000721
203 0.000780
204 0.000796
205 0.000785
206 0.000778
207 0.000756
208 0.000721
209 0.000667
210 0.000647
211 0.000575
212 0.000527
213 0.000493
214 0.000478
215 0.000431
216 0.000416
217 0.000390
218 0.000372
219 0.000324
220 0.000296
221 0.000291
222 0.000281
223 0.000268
224 0.000243
225 0.000225
226 0.000222
227 0.000215
228 0.000207
229 0.000191
230 0.000217
231 0.000213
232 0.000217
233 0.000223
234 0.000227
235 0.000206
236 0.000213
237 0.000184
238 0.000202
239 0.000211
240 0.000206
241 0.000180
242 0.000187
243 0.000196
244 0.000216
245 0.000220
246 0.000239
247 0.000266
248 0.000287
249 0.000310
250 0.000328
251 0.000331
252 0.000362
253 0.000361
254 0.000385
255 0.000376
256 0.000369
257 0.000338
258 0.000356
259 0.000345
260 0.000316
261 0.000312
262 0.000327
263 0.000331
264 0.000359
265 0.000373
266 0.000377
267 0.000401
268 0.000404
269 0.000407
270 0.000404
271 0.000396
272 0.000383
273 0.000365
274 0.000368
275 0.000366
276 0.000390
277 0.000399
278 0.000396
279 0.000384
280 0.000380
281 0.000391
282 0.000427
283 0.000412
284 0.000360
285 0.000306
286 0.000266
287 0.000245
288 0.000226
289 0.000227
290 0.000249
291 0.000270
292 0.000287
293 0.000295
294 0.000273
295 0.000283
296 0.000287
297 0.000302
298 0.000314
299 0.000338
300 0.000383
301 0.000414
302 0.000449
303 0.000475
304 0.000459
305 0.000456
306 0.000433
307 0.000431
308 0.000424
309 0.000441
310 0.000461
311 0.000489
312 0.000516
313 0.000552
314 0.000561
315 0.000537
316 0.000521
317 0.000504
318 0.000494
319 0.000483
320 0.000464
321 0.000455
322 0.000464
323 0.000487
324 0.000510
325 0.000564
326 0.000576
327 0.000608
328 0.000624
329 0.000613
330 0.000599
331 0.000609
332 0.000596
333 0.000614
334 0.000620
335 0.000614
336 0.000621
337 0.000626
338 0.000620
339 0.000635
340 0.000637
341 0.000645
342 0.000664
343 0.000681
344 0.000677
345 0.000665
346 0.000690
347 0.000725
348 0.000732
349 0.000753
350 0.000750
351 0.000746
352 0.000731
353 0.000726
354 0.000714
355 0.000744
356 0.000751
357 0.000765
358 0.000776
359 0.000795
360 0.000805
361 0.000813
362 0.000828
363 0.000847
364 0.000827
365 0.000776
366 0.000732
367 0.000700
368 0.000695
369 0.000697
370 0.000688
371 0.000683
372 0.000653
373 0.000629
374 0.000590
375 0.000578
376 0.000565
377 0.000555
378 0.000555
379 0.000570
380 0.000556
381 0.000547
382 0.000541
383 0.000526
384 0.000518
385 0.000506
386 0.000507
387 0.000490
388 0.000516
389 0.000525
390 0.000549
391 0.000564
392 0.000578
393 0.000582
394 0.000584
395 0.000571
396 0.000548
397 0.000573
398 0.000578
399 0.000591
400 0.000570
401 0.000551
402 0.000539
403 0.000526
404 0.000487
405 0.000476
406 0.000483
407 0.000469
408 0.000483
409 0.000467
410 0.000470
411 0.000474
412 0.000460
413 0.000447
414 0.000442
415 0.000447
416 0.000408
417 0.000380
418 0.000368
419 0.000370
420 0.000341
421 0.000314
422 0.000316
423 0.000337
424 0.000358
425 0.000348
426 0.000344
427 0.000356
428 0.000391
429 0.000389
430 0.000396
431 0.000408
432 0.000430
433 0.000443
434 0.000476
435 0.000531
436 0.000571
437 0.000602
438 0.000576
439 0.000570
440 0.000575
441 0.000577
442 0.000580
443 0.000575
444 0.000578
445 0.000572
446 0.000556
447 0.000537
448 0.000528
449 0.000524
450 0.000531
451 0.000516
452 0.000506
453 0.000478
454 0.000453
455 0.000442
456 0.000439
457 0.000466
458 0.000479
459 0.000483
460 0.000483
461 0.000466
462 0.000433
463 0.000407
464 0.000395
465 0.000411
466 0.000458
467 0.000475
468 0.000505
469 0.000512
470 0.000540
471 0.000549
472 0.000559
473 0.000535
474 0.000508
475 0.000477
476 0.000454
477 0.000456
478 0.000450
479 0.000438
480 0.000421
481 0.000408
482 0.000388
483 0.000379
484 0.000381
485 0.000383
486 0.000389
487 0.000366
488 0.000338
489 0.000312
490 0.000299
491 0.000267
492 0.000259
493 0.000224
494 0.000224
495 0.000215
496 0.000236
497 0.000229
498 0.000243
499 0.000250
500 0.000280
501 0.000309
502 0.000326
503 0.000335
504 0.000368
505 0.000390
506 0.000402
507 0.000412
508 0.000420
509 0.000457
510 0.000465
511 0.000459
512 0.000456
513 0.000467
514 0.000486
515 0.000487
516 0.000514
517 0.000525
518 0.000523
519 0.000488
520 0.000466
521 0.000462
522 0.000456
523 0.000452
524 0.000424
525 0.000411
526 0.000405
527 0.000383
528 0.000357
529 0.000345
530 0.000324
531 0.000315
532 0.000290
533 0.000254
534 0.000208
535 0.000172
536 0.000148
537 0.000109
538 0.000065
539 0.000030
540 0.000012
541 -0.000013
542 -0.000046
543 -0.000069
544 -0.000069
545 -0.000049
546 -0.000044
547 -0.000031
548 -0.000024
549 -0.000005
550 0.000015
551 0.000054
552 0.000061
553 0.000089
554 0.000098
555 0.000101
556 0.000110
557 0.000151
558 0.000182
559 0.000198
560 0.000201
561 0.000207
562 0.000200
563 0.000209
564 0.000241
565 0.000246
566 0.000241
567 0.000219
568 0.000195
569 0.000187
570 0.000170
571 0.000148
572 0.000136
573 0.000129
574 0.000091
575 0.000089
576 0.000078
577 0.000079
578 0.000079
579 0.000061
580 0.000025
581 0.000015
582 0.000015
583 0.000023
584 0.000020
585 0.000036
586 0.000041
587 0.000040
588 0.000035
589 0.000033
590 0.000050
591 0.000059
592 0.000062
593 0.000075
594 0.000093
595 0.000117
596 0.000134
597 0.000142
598 0.000155
599 0.000164
600 0.000192
601 0.000223
602 0.000249
603 0.000285
604 0.000313
605 0.000337
606 0.000349
607 0.000359
608 0.000360
609 0.000360
610 0.000349
611 0.000346
612 0.000336
613 0.000336
614 0.000296
615 0.000283
616 0.000260
617 0.000226
618 0.000216
619 0.000193
620 0.000164
621 0.000118
622 0.000074
623 0.000017
624 -0.000015
625 -0.000031
626 -0.000028
627 -0.000058
628 -0.000073
629 -0.000106
630 -0.000108
631 -0.000107
632 -0.000109
633 -0.000120
634 -0.000135
635 -0.000138
636 -0.000124
637 -0.000117
638 -0.000107
639 -0.000080
640 -0.000064
641 -0.000067
642 -0.000068
643 -0.000077
644 -0.000066
645 -0.000066
646 -0.000060
647 -0.000049
648 -0.000046
649 -0.000045
650 -0.000030
651 -0.000026
652 -0.000021
653 -0.000001
654 -0.000007
655 -0.000008
656 -0.000023
657 -0.000025
658 -0.000021
659 -0.000021
660 -0.000025
661 -0.000017
662 -0.000017
663 -0.000005
664 0.000010
665 0.000024
666 0.000035
667 0.000044
668 0.000034
669 0.000023
670 0.000014
671 0.000036
672 0.000054
673 0.000072
674 0.000097
675 0.000109
676 0.000111
677 0.000102
678 0.000084
679 0.000086
680 0.000096
681 0.000105
682 0.000114
683 0.000116
684 0.000119
685 0.000117
686 0.000127
687 0.000133
688 0.000128
689 0.000131
690 0.000129
691 0.000139
692 0.000155
693 0.000158
694 0.000165
695 0.000160
696 0.000138
697 0.000122
698 0.000116
699 0.000123
700 0.000118
701 0.000125
702 0.000126
703 0.000115
704 0.000126
705 0.000126
706 0.000144
707 0.000166
708 0.000183
709 0.000188
710 0.000207
711 0.000237
712 0.000254
713 0.000260
714 0.000269
715 0.000276
716 0.000287
717 0.000304
718 0.000305
719 0.000323
720 0.000327
721 0.000318
722 0.000320
723 0.000303
724 0.000297
725 0.000293
726 0.000285
727 0.000280
728 0.000275
729 0.000249
730 0.000231
731 0.000200
732 0.000195
733 0.000166
734 0.000137
735 0.000121
736 0.000100
737 0.000074
738 0.000062
739 0.000049
740 0.000039
741 0.000016
742 -0.000004
743 -0.000033
744 -0.000051
745 -0.000074
746 -0.000077
747 -0.000075
748 -0.000078
749 -0.000092
750 -0.000090
751 -0.000104
752 -0.000090
753 -0.000067
754 -0.000039
755 -0.000037
756 -0.000040
757 -0.000038
758 -0.000037
759 -0.000032
760 -0.000011
761 0.000009
762 0.000018
763 0.000035
764 0.000039
765 0.000047
766 0.000048
767 0.000055
768 0.000072
769 0.000074
770 0.000099
771 0.000122
772 0.000138
773 0.000152
774 0.000161
775 0.000163
776 0.000150
777 0.000133
778 0.000135
779 0.000144
780 0.000152
781 0.000167
782 0.000171
783 0.000176
784 0.000168
785 0.000155
786 0.000144
787 0.000149
788 0.000162
789 0.000166
790 0.000154
791 0.000142
792 0.000130
793 0.000120
794 0.000115
795 0.000109
796 0.000103
797 0.000105
798 0.000103
799 0.000101
800 0.000104
801 0.000101
802 0.000089
803 0.000086
804 0.000077
805 0.000091
806 0.000098
807 0.000109
808 0.000119
809 0.000128
