# i correlation
1 0.003002
2 0.002680
3 0.002383
4 0.002162
5 0.001999
6 0.001836
7 0.001715
8 0.001608
9 0.001519
10 0.001421
11 0.001369
12 0.001290
13 0.001250
14 0.001187
15 0.001110
16 0.001071
17 0.001075
18 0.001047
19 0.001018
20 0.000991
21 0.000935
22 0.000916
23 0.000836
24 0.000812
25 0.000806
26 0.000779
27 0.000780
28 0.000763
29 0.000790
30 0.000784
31 0.000790
32 0.000821
33 0.000864
34 0.000896
35 0.000919
36 0.000925
37 0.000935
38 0.000948
39 0.000937
40 0.000925
41 0.000895
42 0.000868
43 0.000822
44 0.000814
45 0.000814
46 0.000856
47 0.000875
48 0.000871
49 0.000901
50 0.000938
51 0.000987
52 0.001006
53 0.000991
54 0.000992
55 0.000930
56 0.000892
57 0.000858
58 0.000853
59 0.000839
60 0.000832
61 0.000852
62 0.000884
63 0.000912
64 0.000923
65 0.000896
66 0.000891
67 0.000836
68 0.000784
69 0.000753
70 0.000762
71 0.000797
72 0.000826
73 0.000822
74 0.000779
75 0.000755
76 0.000751
77 0.000755
78 0.000746
79 0.000779
80 0.000824
81 0.000852
82 0.000881
83 0.000894
84 0.000886
85 0.000876
86 0.000841
87 0.000786
88 0.000774
89 0.000737
90 0.000741
91 0.000773
92 0.000783
93 0.000780
94 0.000764
95 0.000744
96 0.000742
97 0.000759
98 0.000798
99 0.000869
100 0.000904
101 0.000923
102 0.000919
103 0.000900
104 0.000882
105 0.000839
106 0.000807
107 0.000793
108 0.000777
109 0.000739
110 0.000730
111 0.000718
112 0.000732
113 0.000731
114 0.000734
115 0.000710
116 0.000677
117 0.000620
118 0.000585
119 0.000564
120 0.000550
121 0.000569
122 0.000538
123 0.000522
124 0.000487
125 0.000437
126 0.000426
127 0.000401
128 0.000414
129 0.000397
130 0.000377
131 0.000355
132 0.000351
133 0.000322
134 0.000314
135 0.000300
136 0.000269
137 0.000203
138 0.000157
139 0.000136
140 0.000121
141 0.000119
142 0.000154
143 0.000196
144 0.000223
145 0.000289
146 0.000318
147 0.000327
148 0.000351
149 0.000372
150 0.000378
151 0.000368
152 0.000383
153 0.000407
154 0.000447
155 0.000452
156 0.000441
157 0.000446
158 0.000447
159 0.000449
160 0.000440
161 0.000446
162 0.000437
163 0.000459
164 0.000500
165 0.000576
166 0.000627
167 0.000673
168 0.000697
169 0.000685
170 0.000699
171 0.000687
172 0.000698
173 0.000696
174 0.000712
175 0.000729
176 0.000758
177 0.000772
178 0.000789
179 0.000811
180 0.000814
181 0.000785
182 0.000779
183 0.000779
184 0.000750
185 0.000710
186 0.000682
187 0.000675
188 0.000619
189 0.000549
190 0.000473
191 0.000389
192 0.000341
193 0.000297
194 0.000255
195 0.000221
196 0.000214
197 0.000210
198 0.000216
199 0.000237
200 0.000267
201 0.000276
202 0.000262
203 0.000236
204 0.000230
205 0.000244
206 0.000271
207 0.000314
208 0.000352
209 0.000352
210 0.000324
211 0.000326
212 0.000337
213 0.000345
214 0.000330
215 0.000303
216 0.000274
217 0.000253
218 0.000241
219 0.000201
220 0.000174
221 0.000177
222 0.000187
223 0.000150
224 0.000131
225 0.000139
226 0.000142
227 0.000165
228 0.000167
229 0.000169
230 0.000171
231 0.000180
232 0.000182
233 0.000194
234 0.000221
235 0.000241
236 0.000288
237 0.000332
238 0.000366
239 0.000371
240 0.000385
241 0.000383
242 0.000416
243 0.000412
244 0.000396
245 0.000400
246 0.000408
247 0.000421
248 0.000417
249 0.000443
250 0.000437
251 0.000423
252 0.000361
253 0.000333
254 0.000305
255 0.000318
256 0.000367
257 0.000357
258 0.000351
259 0.000351
260 0.000352
261 0.000315
262 0.000301
263 0.000279
264 0.000265
265 0.000230
266 0.000205
267 0.000188
268 0.000177
269 0.000171
270 0.000137
271 0.000136
272 0.000157
273 0.000204
274 0.000235
275 0.000269
276 0.000286
277 0.000297
278 0.000371
279 0.000441
280 0.000474
281 0.000464
282 0.000422
283 0.000386
284 0.000370
285 0.000358
286 0.000347
287 0.000353
288 0.000375
289 0.000414
290 0.000410
291 0.000411
292 0.000414
293 0.000420
294 0.000412
295 0.000386
296 0.000384
297 0.000391
298 0.000409
299 0.000409
300 0.000393
301 0.000376
302 0.000335
303 0.000295
304 0.000242
305 0.000190
306 0.000150
307 0.000115
308 0.000081
309 0.000048
310 0.000033
311 0.000015
312 0.000021
313 0.000039
314 0.000069
315 0.000083
316 0.000063
317 0.000042
318 0.000048
319 0.000035
320 0.000039
321 0.000059
322 0.000087
323 0.000100
324 0.000061
325 0.000023
326 -0.000004
327 -0.000049
328 -0.000047
329 -0.000020
330 0.000044
331 0.000097
332 0.000167
333 0.000213
334 0.000225
335 0.000246
336 0.000266
337 0.000285
338 0.000287
339 0.000304
340 0.000345
341 0.000384
342 0.000397
343 0.000404
344 0.000410
345 0.000429
346 0.000424
347 0.000412
348 0.000405
349 0.000399
350 0.000401
351 0.000389
352 0.000370
353 0.000367
354 0.000342
355 0.000324
356 0.000315
357 0.000318
358 0.000314
359 0.000293
360 0.000285
361 0.000273
362 0.000248
363 0.000215
364 0.000175
365 0.000128
366 0.000117
367 0.000111
368 0.000110
369 0.000097
370 0.000113
371 0.000108
372 0.000119
373 0.000100
374 0.000055
375 0.000005
376 -0.000036
377 -0.000046
378 -0.000070
379 -0.000069
380 -0.000094
381 -0.000100
382 -0.000122
383 -0.000134
384 -0.000110
385 -0.000091
386 -0.000052
387 -0.000016
388 0.000010
389 0.000007
390 0.000007
391 -0.000000
392 0.000022
393 0.000021
394 0.000044
395 0.000067
396 0.000059
397 0.000052
398 0.000033
399 0.000013
400 -0.000024
401 -0.000031
402 -0.000043
403 -0.000037
404 -0.000023
405 -0.000000
406 0.000010
407 -0.000018
408 -0.000020
409 -0.000051
410 -0.000067
411 -0.000095
412 -0.000141
413 -0.000174
414 -0.000187
415 -0.000196
416 -0.000212
417 -0.000214
418 -0.000264
419 -0.000297
420 -0.000331
421 -0.000311
422 -0.000291
423 -0.000261
424 -0.000238
425 -0.000215
426 -0.000206
427 -0.000199
428 -0.000203
429 -0.000225
430 -0.000235
431 -0.000251
432 -0.000243
433 -0.000222
434 -0.000205
435 -0.000207
436 -0.000191
437 -0.000203
438 -0.000192
439 -0.000171
440 -0.000180
441 -0.000195
442 -0.000202
443 -0.000186
444 -0.000157
445 -0.000118
446 -0.000095
447 -0.000083
448 -0.000080
449 -0.000059
450 -0.000039
451 -0.000011
452 0.000007
453 0.000007
454 0.000003
455 -0.000008
456 0.000020
457 0.000030
458 0.000038
459 0.000028
460 0.000001
461 0.000009
462 0.000002
463 -0.000007
464 -0.000017
465 -0.000025
466 -0.000042
467 -0.000046
468 -0.000034
469 -0.000030
470 -0.000047
471 -0.000050
472 -0.000056
473 -0.000091
474 -0.000126
475 -0.000153
476 -0.000167
477 -0.000176
478 -0.000186
479 -0.000210
480 -0.000230
481 -0.000248
482 -0.000287
483 -0.000327
484 -0.000361
485 -0.000348
486 -0.000326
487 -0.000298
488 -0.000277
489 -0.000256
490 -0.000233
491 -0.000198
492 -0.000190
493 -0.000193
494 -0.000215
495 -0.000244
496 -0.000255
497 -0.000257
498 -0.000252
499 -0.000261
500 -0.000246
501 -0.000262
502 -0.000250
503 -0.000263
504 -0.000280
505 -0.000257
506 -0.000243
507 -0.000203
508 -0.000171
509 -0.000134
510 -0.000104
511 -0.000101
512 -0.000105
513 -0.000107
514 -0.000134
515 -0.000132
516 -0.000130
517 -0.000120
518 -0.000092
519 -0.000087
520 -0.000062
521 -0.000031
522 0.000011
523 0.000017
524 0.000040
525 0.000044
526 0.000040
527 0.000050
528 0.000031
529 0.000049
530 0.000036
531 0.000022
532 -0.000003
533 -0.000069
534 -0.000129
535 -0.000149
536 -0.000157
537 -0.000163
538 -0.000155
539 -0.000165
540 -0.000169
541 -0.000180
542 -0.000177
543 -0.000172
544 -0.000164
545 -0.000171
546 -0.000184
547 -0.000180
548 -0.000189
549 -0.000167
550 -0.000179
551 -0.000193
552 -0.000209
553 -0.000193
554 -0.000167
555 -0.000162
556 -0.000160
557 -0.000147
558 -0.000137
559 -0.000112
560 -0.000107
561 -0.000113
562 -0.000135
563 -0.000158
564 -0.000205
565 -0.000256
566 -0.000303
567 -0.000327
568 -0.000320
569 -0.000299
570 -0.000252
571 -0.000195
572 -0.000145
573 -0.000117
574 -0.000101
575 -0.000084
576 -0.000067
577 -0.000064
578 -0.000051
579 -0.000052
580 -0.000068
581 -0.000067
582 -0.000070
583 -0.000077
584 -0.000099
585 -0.000122
586 -0.000161
587 -0.000194
588 -0.000212
589 -0.000225
590 -0.000210
591 -0.000207
592 -0.000194
593 -0.000184
594 -0.000173
595 -0.000152
596 -0.000156
597 -0.000162
598 -0.000187
599 -0.000209
600 -0.000231
601 -0.000230
602 -0.000242
603 -0.000225
604 -0.000213
605 -0.000207
606 -0.000206
607 -0.000207
608 -0.000183
609 -0.000134
610 -0.000098
611 -0.000073
612 -0.000051
613 -0.000044
614 -0.000049
615 -0.000059
616 -0.000087
617 -0.000083
618 -0.000114
619 -0.000115
620 -0.000112
621 -0.000074
622 -0.000034
623 0.000009
624 0.000039
625 0.000024
626 0.000038
627 0.000013
628 0.000008
629 0.000018
630 0.000039
631 0.000042
632 0.000043
633 0.000030
634 0.000035
635 0.000041
636 0.000055
637 0.000067
638 0.000062
639 0.000054
640 0.000042
641 0.000039
642 0.000022
643 0.000020
644 0.000020
645 0.000015
646 0.000008
647 0.000012
648 0.000031
649 0.000030
650 0.000017
651 0.000003
652 -0.000021
653 -0.000029
654 -0.000020
655 -0.000012
656 -0.000023
657 -0.000028
658 -0.000046
659 -0.000043
660 -0.000053
661 -0.000046
662 -0.000061
663 -0.000070
664 -0.000096
665 -0.000127
666 -0.000151
667 -0.000167
668 -0.000182
669 -0.000199
670 -0.000197
671 -0.000189
672 -0.000176
673 -0.000167
674 -0.000149
675 -0.000123
676 -0.000095
677 -0.000075
678 -0.000070
679 -0.000084
680 -0.000095
681 -0.000102
682 -0.000116
683 -0.000118
684 -0.000124
685 -0.000121
686 -0.000118
687 -0.000113
688 -0.000110
689 -0.000092
690 -0.000077
691 -0.000092
692 -0.000094
693 -0.000091
694 -0.000059
695 -0.000048
696 -0.000037
697 -0.000041
698 -0.000045
699 -0.000042
700 -0.000043
701 -0.000035
702 -0.000023
703 -0.000001
704 0.000003
705 0.000006
706 0.000006
707 0.000020
708 0.000032
709 0.000040
710 0.000036
711 0.000036
712 0.000039
713 0.000026
714 0.000008
715 -0.000032
716 -0.000083
717 -0.000118
718 -0.000135
719 -0.000158
720 -0.000170
721 -0.000179
722 -0.000198
723 -0.000202
724 -0.000187
725 -0.000154
726 -0.000130
727 -0.000114
728 -0.000103
729 -0.000088
730 -0.000081
731 -0.000076
732 -0.000083
733 -0.000100
734 -0.000124
735 -0.000127
736 -0.000122
737 -0.000109
738 -0.000106
739 -0.000103
740 -0.000093
741 -0.000091
742 -0.000102
743 -0.000109
744 -0.000127
745 -0.000139
746 -0.000155
747 -0.000165
748 -0.000165
749 -0.000171
750 -0.000160
751 -0.000151
752 -0.000145
753 -0.000142
754 -0.000128
755 -0.000113
756 -0.000104
757 -0.000089
758 -0.000071
759 -0.000068
760 -0.000056
761 -0.000065
762 -0.000070
763 -0.000080
764 -0.000094
765 -0.000100
766 -0.000093
767 -0.000105
768 -0.000126
769 -0.000145
770 -0.000166
771 -0.000165
772 -0.000167
773 -0.000176
774 -0.000185
775 -0.000194
776 -0.000201
777 -0.000188
778 -0.000175
779 -0.000165
780 -0.000156
781 -0.000164
782 -0.000167
783 -0.000151
784 -0.000144
785 -0.000133
786 -0.000137
787 -0.000135
788 -0.000136
789 -0.000112
790 -0.000097
791 -0.000068
792 -0.000059
793 -0.000061
794 -0.000063
795 -0.000075
796 -0.000076
797 -0.000076
798 -0.000080
799 -0.000086
800 -0.000077
801 -0.000073
802 -0.000053
803 -0.000034
804 -0.000017
805 -0.000003
806 0.000008
807 0.000008
808 0.000011
809 0.000018
