# i correlation
1 0.003668
2 0.003356
3 0.003106
4 0.002917
5 0.002741
6 0.002585
7 0.002456
8 0.002364
9 0.002247
10 0.002167
11 0.002154
12 0.002138
13 0.002131
14 0.002060
15 0.002016
16 0.001958
17 0.001922
18 0.001916
19 0.001891
20 0.001885
21 0.001846
22 0.001790
23 0.001711
24 0.001678
25 0.001639
26 0.001604
27 0.001543
28 0.001500
29 0.001465
30 0.001461
31 0.001449
32 0.001421
33 0.001407
34 0.001410
35 0.001431
36 0.001420
37 0.001437
38 0.001464
39 0.001472
40 0.001469
41 0.001456
42 0.001470
43 0.001485
44 0.001488
45 0.001487
46 0.001487
47 0.001448
48 0.001452
49 0.001455
50 0.001450
51 0.001486
52 0.001530
53 0.001555
54 0.001560
55 0.001573
56 0.001612
57 0.001640
58 0.001629
59 0.001629
60 0.001655
61 0.001675
62 0.001678
63 0.001666
64 0.001667
65 0.001626
66 0.001571
67 0.001504
68 0.001429
69 0.001400
70 0.001408
71 0.001435
72 0.001455
73 0.001436
74 0.001408
75 0.001354
76 0.001311
77 0.001326
78 0.001320
79 0.001355
80 0.001401
81 0.001412
82 0.001404
83 0.001439
84 0.001475
85 0.001517
86 0.001506
87 0.001477
88 0.001437
89 0.001373
90 0.001324
91 0.001308
92 0.001289
93 0.001256
94 0.001232
95 0.001245
96 0.001262
97 0.001271
98 0.001279
99 0.001266
100 0.001245
101 0.001205
102 0.001166
103 0.001169
104 0.001165
105 0.001199
106 0.001177
107 0.001177
108 0.001194
109 0.001194
110 0.001194
111 0.001165
112 0.001121
113 0.001063
114 0.001015
115 0.000952
116 0.000884
117 0.000836
118 0.000794
119 0.000743
120 0.000709
121 0.000678
122 0.000669
123 0.000668
124 0.000635
125 0.000608
126 0.000586
127 0.000549
128 0.000522
129 0.000524
130 0.000568
131 0.000579
132 0.000589
133 0.000626
134 0.000693
135 0.000740
136 0.000777
137 0.000805
138 0.000825
139 0.000818
140 0.000771
141 0.000758
142 0.000745
143 0.000751
144 0.000734
145 0.000698
146 0.000658
147 0.000632
148 0.000595
149 0.000602
150 0.000620
151 0.000650
152 0.000708
153 0.000730
154 0.000748
155 0.000737
156 0.000737
157 0.000769
158 0.000777
159 0.000781
160 0.000809
161 0.000812
162 0.000791
163 0.000752
164 0.000740
165 0.000770
166 0.000767
167 0.000749
168 0.000746
169 0.000771
170 0.000785
171 0.000839
172 0.000910
173 0.000927
174 0.000941
175 0.000998
176 0.001046
177 0.001075
178 0.001083
179 0.001077
180 0.001019
181 0.000976
182 0.000957
183 0.000961
184 0.000931
185 0.000897
186 0.000846
187 0.000813
188 0.000740
189 0.000692
190 0.000652
191 0.000657
192 0.000669
193 0.000675
194 0.000679
195 0.000701
196 0.000737
197 0.000755
198 0.000754
199 0.000747
200 0.000754
201 0.000720
202 0.000673
203 0.000659
204 0.000627
205 0.000625
206 0.000619
207 0.000618
208 0.000629
209 0.000628
210 0.000617
211 0.000577
212 0.000529
213 0.000563
214 0.000599
215 0.000619
216 0.000641
217 0.000700
218 0.000741
219 0.000715
220 0.000717
221 0.000754
222 0.000775
223 0.000754
224 0.000711
225 0.000653
226 0.000613
227 0.000568
228 0.000551
229 0.000585
230 0.000595
231 0.000626
232 0.000682
233 0.000718
234 0.000775
235 0.000838
236 0.000877
237 0.000909
238 0.000956
239 0.000972
240 0.000983
241 0.000969
242 0.000959
243 0.000940
244 0.000891
245 0.000857
246 0.000837
247 0.000814
248 0.000807
249 0.000774
250 0.000752
251 0.000732
252 0.000725
253 0.000715
254 0.000667
255 0.000650
256 0.000671
257 0.000675
258 0.000697
259 0.000712
260 0.000728
261 0.000719
262 0.000709
263 0.000719
264 0.000717
265 0.000691
266 0.000676
267 0.000669
268 0.000653
269 0.000622
270 0.000606
271 0.000584
272 0.000559
273 0.000521
274 0.000513
275 0.000496
276 0.000468
277 0.000444
278 0.000445
279 0.000411
280 0.000424
281 0.000415
282 0.000418
283 0.000410
284 0.000389
285 0.000371
286 0.000381
287 0.000384
288 0.000391
289 0.000418
290 0.000430
291 0.000453
292 0.000443
293 0.000462
294 0.000476
295 0.000484
296 0.000507
297 0.000496
298 0.000478
299 0.000465
300 0.000423
301 0.000395
302 0.000410
303 0.000413
304 0.000411
305 0.000369
306 0.000367
307 0.000346
308 0.000331
309 0.000344
310 0.000351
311 0.000359
312 0.000352
313 0.000359
314 0.000392
315 0.000433
316 0.000443
317 0.000459
318 0.000452
319 0.000457
320 0.000437
321 0.000402
322 0.000366
323 0.000331
324 0.000285
325 0.000219
326 0.000176
327 0.000171
328 0.000174
329 0.000175
330 0.000192
331 0.000178
332 0.000188
333 0.000173
334 0.000149
335 0.000122
336 0.000098
337 0.000085
338 0.000050
339 0.000039
340 0.000035
341 0.000060
342 0.000069
343 0.000112
344 0.000133
345 0.000143
346 0.000156
347 0.000211
348 0.000283
349 0.000322
350 0.000354
351 0.000406
352 0.000481
353 0.000519
354 0.000563
355 0.000574
356 0.000555
357 0.000523
358 0.000485
359 0.000475
360 0.000459
361 0.000433
362 0.000394
363 0.000361
364 0.000301
365 0.000251
366 0.000229
367 0.000230
368 0.000257
369 0.000263
370 0.000281
371 0.000282
372 0.000278
373 0.000286
374 0.000300
375 0.000316
376 0.000326
377 0.000298
378 0.000301
379 0.000297
380 0.000272
381 0.000265
382 0.000255
383 0.000253
384 0.000197
385 0.000143
386 0.000113
387 0.000080
388 0.000025
389 0.000019
390 0.000026
391 0.000036
392 0.000056
393 0.000074
394 0.000131
395 0.000168
396 0.000188
397 0.000210
398 0.000248
399 0.000280
400 0.000318
401 0.000346
402 0.000348
403 0.000351
404 0.000347
405 0.000336
406 0.000323
407 0.000327
408 0.000313
409 0.000288
410 0.000268
411 0.000258
412 0.000275
413 0.000332
414 0.000390
415 0.000437
416 0.000486
417 0.000507
418 0.000506
419 0.000485
420 0.000459
421 0.000475
422 0.000469
423 0.000441
424 0.000423
425 0.000420
426 0.000400
427 0.000403
428 0.000385
429 0.000369
430 0.000324
431 0.000278
432 0.000254
433 0.000230
434 0.000246
435 0.000289
436 0.000299
437 0.000312
438 0.000342
439 0.000364
440 0.000377
441 0.000368
442 0.000350
443 0.000331
444 0.000293
445 0.000242
446 0.000212
447 0.000204
448 0.000184
449 0.000174
450 0.000173
451 0.000195
452 0.000205
453 0.000246
454 0.000278
455 0.000328
456 0.000373
457 0.000397
458 0.000413
459 0.000429
460 0.000423
461 0.000416
462 0.000403
463 0.000389
464 0.000402
465 0.000395
466 0.000402
467 0.000382
468 0.000344
469 0.000323
470 0.000293
471 0.000272
472 0.000230
473 0.000227
474 0.000236
475 0.000246
476 0.000245
477 0.000251
478 0.000263
479 0.000255
480 0.000248
481 0.000252
482 0.000253
483 0.000241
484 0.000221
485 0.000208
486 0.000224
487 0.000234
488 0.000239
489 0.000234
490 0.000228
491 0.000234
492 0.000221
493 0.000234
494 0.000243
495 0.000248
496 0.000246
497 0.000222
498 0.000207
499 0.000213
500 0.000202
501 0.000196
502 0.000177
503 0.000157
504 0.000145
505 0.000107
506 0.000114
507 0.000116
508 0.000117
509 0.000127
510 0.000116
511 0.000121
512 0.000156
513 0.000191
514 0.000185
515 0.000175
516 0.000143
517 0.000102
518 0.000064
519 0.000045
520 0.000066
521 0.000081
522 0.000072
523 0.000067
524 0.000076
525 0.000077
526 0.000106
527 0.000115
528 0.000139
529 0.000142
530 0.000136
531 0.000129
532 0.000127
533 0.000131
534 0.000123
535 0.000121
536 0.000120
537 0.000130
538 0.000151
539 0.000173
540 0.000165
541 0.000146
542 0.000107
543 0.000068
544 0.000056
545 0.000045
546 0.000042
547 0.000050
548 0.000041
549 0.000039
550 0.000057
551 0.000084
552 0.000128
553 0.000138
554 0.000149
555 0.000157
556 0.000156
557 0.000152
558 0.000157
559 0.000156
560 0.000152
561 0.000139
562 0.000136
563 0.000136
564 0.000159
565 0.000169
566 0.000178
567 0.000186
568 0.000191
569 0.000201
570 0.000193
571 0.000170
572 0.000159
573 0.000164
574 0.000189
575 0.000196
576 0.000206
577 0.000225
578 0.000252
579 0.000263
580 0.000238
581 0.000213
582 0.000205
583 0.000210
584 0.000210
585 0.000209
586 0.000216
587 0.000230
588 0.000231
589 0.000251
590 0.000291
591 0.000331
592 0.000369
593 0.000392
594 0.000404
595 0.000408
596 0.000403
597 0.000380
598 0.000365
599 0.000364
600 0.000405
601 0.000413
602 0.000398
603 0.000398
604 0.000414
605 0.000404
606 0.000371
607 0.000350
608 0.000345
609 0.000332
610 0.000319
611 0.000320
612 0.000332
613 0.000344
614 0.000336
615 0.000329
616 0.000350
617 0.000367
618 0.000394
619 0.000404
620 0.000404
621 0.000432
622 0.000430
623 0.000427
624 0.000412
625 0.000387
626 0.000378
627 0.000350
628 0.000326
629 0.000331
630 0.000340
631 0.000352
632 0.000358
633 0.000359
634 0.000380
635 0.000409
636 0.000442
637 0.000460
638 0.000469
639 0.000481
640 0.000468
641 0.000449
642 0.000423
643 0.000410
644 0.000386
645 0.000370
646 0.000353
647 0.000367
648 0.000395
649 0.000434
650 0.000467
651 0.000495
652 0.000516
653 0.000517
654 0.000507
655 0.000493
656 0.000492
657 0.000486
658 0.000480
659 0.000475
660 0.000472
661 0.000481
662 0.000507
663 0.000527
664 0.000543
665 0.000579
666 0.000594
667 0.000613
668 0.000608
669 0.000627
670 0.000633
671 0.000628
672 0.000632
673 0.000656
674 0.000681
675 0.000690
676 0.000675
677 0.000651
678 0.000633
679 0.000612
680 0.000590
681 0.000581
682 0.000579
683 0.000571
684 0.000563
685 0.000559
686 0.000549
687 0.000562
688 0.000563
689 0.000564
690 0.000553
691 0.000551
692 0.000549
693 0.000549
694 0.000532
695 0.000515
696 0.000499
697 0.000490
698 0.000488
699 0.000494
700 0.000497
701 0.000500
702 0.000503
703 0.000517
704 0.000524
705 0.000529
706 0.000523
707 0.000517
708 0.000494
709 0.000488
710 0.000472
711 0.000475
712 0.000470
713 0.000468
714 0.000464
715 0.000451
716 0.000447
717 0.000451
718 0.000444
719 0.000420
720 0.000399
721 0.000396
722 0.000402
723 0.000400
724 0.000393
725 0.000377
726 0.000366
727 0.000346
728 0.000328
729 0.000336
730 0.000329
731 0.000330
732 0.000312
733 0.000310
734 0.000329
735 0.000347
736 0.000348
737 0.000343
738 0.000321
739 0.000297
740 0.000265
741 0.000247
742 0.000227
743 0.000202
744 0.000191
745 0.000181
746 0.000202
747 0.000218
748 0.000210
749 0.000201
750 0.000183
751 0.000170
752 0.000161
753 0.000156
754 0.000165
755 0.000182
756 0.000175
757 0.000176
758 0.000169
759 0.000178
760 0.000174
761 0.000170
762 0.000166
763 0.000149
764 0.000133
765 0.000126
766 0.000122
767 0.000114
768 0.000105
769 0.000100
770 0.000117
771 0.000116
772 0.000115
773 0.000119
774 0.000126
775 0.000133
776 0.000139
777 0.000140
778 0.000138
779 0.000128
780 0.000107
781 0.000088
782 0.000062
783 0.000042
784 0.000025
785 0.000009
786 0.000001
787 0.000002
788 0.000002
789 0.000008
790 0.000014
791 0.000015
792 0.000027
793 0.000023
794 0.000017
795 0.000007
796 0.000000
797 -0.000005
798 -0.000011
799 -0.000029
800 -0.000028
801 -0.000031
802 -0.000041
803 -0.000043
804 -0.000050
805 -0.000035
806 -0.000019
807 -0.000001
808 0.000021
809 0.000034
