# i correlation
1 0.003133
2 0.002837
3 0.002584
4 0.002335
5 0.002153
6 0.001962
7 0.001783
8 0.001633
9 0.001498
10 0.001386
11 0.001292
12 0.001214
13 0.001135
14 0.001040
15 0.000966
16 0.000904
17 0.000836
18 0.000751
19 0.000701
20 0.000683
21 0.000653
22 0.000630
23 0.000648
24 0.000671
25 0.000658
26 0.000643
27 0.000612
28 0.000596
29 0.000563
30 0.000527
31 0.000498
32 0.000494
33 0.000497
34 0.000506
35 0.000487
36 0.000472
37 0.000468
38 0.000474
39 0.000509
40 0.000551
41 0.000554
42 0.000519
43 0.000493
44 0.000452
45 0.000435
46 0.000431
47 0.000426
48 0.000435
49 0.000439
50 0.000433
51 0.000432
52 0.000413
53 0.000408
54 0.000410
55 0.000369
56 0.000341
57 0.000320
58 0.000268
59 0.000216
60 0.000205
61 0.000172
62 0.000164
63 0.000170
64 0.000179
65 0.000178
66 0.000151
67 0.000120
68 0.000083
69 0.000058
70 0.000027
71 -0.000006
72 -0.000058
73 -0.000045
74 -0.000038
75 -0.000052
76 -0.000068
77 -0.000071
78 -0.000067
79 -0.000073
80 -0.000058
81 -0.000029
82 -0.000025
83 -0.000021
84 -0.000041
85 -0.000062
86 -0.000034
87 0.000013
88 0.000094
89 0.000167
90 0.000253
91 0.000345
92 0.000395
93 0.000444
94 0.000481
95 0.000488
96 0.000481
97 0.000453
98 0.000409
99 0.000381
100 0.000332
101 0.000286
102 0.000239
103 0.000238
104 0.000240
105 0.000228
106 0.000219
107 0.000237
108 0.000239
109 0.000269
110 0.000306
111 0.000362
112 0.000413
113 0.000478
114 0.000538
115 0.000572
116 0.000634
117 0.000652
118 0.000614
119 0.000597
120 0.000545
121 0.000506
122 0.000501
123 0.000516
124 0.000502
125 0.000503
126 0.000505
127 0.000548
128 0.000595
129 0.000603
130 0.000585
131 0.000578
132 0.000540
133 0.000526
134 0.000523
135 0.000516
136 0.000530
137 0.000553
138 0.000596
139 0.000643
140 0.000651
141 0.000635
142 0.000625
143 0.000636
144 0.000681
145 0.000697
146 0.000682
147 0.000657
148 0.000639
149 0.000611
150 0.000596
151 0.000583
152 0.000587
153 0.000615
154 0.000625
155 0.000609
156 0.000631
157 0.000622
158 0.000621
159 0.000612
160 0.000597
161 0.000614
162 0.000611
163 0.000598
164 0.000602
165 0.000634
166 0.000633
167 0.000652
168 0.000646
169 0.000657
170 0.000677
171 0.000691
172 0.000705
173 0.000671
174 0.000609
175 0.000528
176 0.000439
177 0.000432
178 0.000439
179 0.000435
180 0.000430
181 0.000396
182 0.000376
183 0.000334
184 0.000337
185 0.000326
186 0.000308
187 0.000281
188 0.000242
189 0.000208
190 0.000185
191 0.000156
192 0.000151
193 0.000162
194 0.000187
195 0.000202
196 0.000223
197 0.000247
198 0.000274
199 0.000280
200 0.000285
201 0.000281
202 0.000300
203 0.000337
204 0.000358
205 0.000348
206 0.000336
207 0.000346
208 0.000349
209 0.000363
210 0.000376
211 0.000361
212 0.000358
213 0.000359
214 0.000330
215 0.000286
216 0.000265
217 0.000255
218 0.000306
219 0.000328
220 0.000338
221 0.000347
222 0.000345
223 0.000345
224 0.000328
225 0.000289
226 0.000253
227 0.000238
228 0.000206
229 0.000161
230 0.000139
231 0.000105
232 0.000112
233 0.000103
234 0.000106
235 0.000135
236 0.000148
237 0.000139
238 0.000138
239 0.000118
240 0.000059
241 0.000001
242 -0.000033
243 -0.000041
244 -0.000011
245 -0.000024
246 -0.000001
247 0.000001
248 -0.000002
249 -0.000011
250 0.000002
251 0.000011
252 0.000009
253 0.000021
254 0.000018
255 0.000038
256 0.000067
257 0.000092
258 0.000113
259 0.000151
260 0.000198
261 0.000256
262 0.000303
263 0.000331
264 0.000356
265 0.000344
266 0.000354
267 0.000385
268 0.000387
269 0.000390
270 0.000409
271 0.000404
272 0.000423
273 0.000415
274 0.000413
275 0.000423
276 0.000424
277 0.000460
278 0.000487
279 0.000491
280 0.000499
281 0.000493
282 0.000462
283 0.000442
284 0.000435
285 0.000428
286 0.000400
287 0.000377
288 0.000340
289 0.000303
290 0.000285
291 0.000259
292 0.000238
293 0.000195
294 0.000157
295 0.000118
296 0.000098
297 0.000072
298 0.000065
299 0.000036
300 0.000023
301 0.000031
302 0.000006
303 -0.000022
304 -0.000054
305 -0.000060
306 -0.000050
307 -0.000027
308 -0.000018
309 0.000021
310 0.000083
311 0.000182
312 0.000248
313 0.000329
314 0.000380
315 0.000441
316 0.000476
317 0.000497
318 0.000495
319 0.000471
320 0.000451
321 0.000462
322 0.000445
323 0.000441
324 0.000435
325 0.000430
326 0.000470
327 0.000487
328 0.000491
329 0.000455
330 0.000441
331 0.000439
332 0.000431
333 0.000407
334 0.000385
335 0.000379
336 0.000354
337 0.000340
338 0.000353
339 0.000349
340 0.000332
341 0.000334
342 0.000301
343 0.000247
344 0.000197
345 0.000139
346 0.000117
347 0.000108
348 0.000106
349 0.000101
350 0.000110
351 0.000143
352 0.000133
353 0.000102
354 0.000081
355 0.000069
356 0.000042
357 0.000016
358 -0.000003
359 -0.000014
360 0.000004
361 0.000009
362 0.000022
363 0.000064
364 0.000081
365 0.000111
366 0.000146
367 0.000182
368 0.000196
369 0.000198
370 0.000190
371 0.000187
372 0.000214
373 0.000239
374 0.000297
375 0.000392
376 0.000451
377 0.000495
378 0.000532
379 0.000557
380 0.000592
381 0.000588
382 0.000569
383 0.000560
384 0.000525
385 0.000464
386 0.000406
387 0.000352
388 0.000336
389 0.000314
390 0.000267
391 0.000230
392 0.000175
393 0.000136
394 0.000121
395 0.000114
396 0.000100
397 0.000101
398 0.000068
399 0.000038
400 0.000012
401 -0.000003
402 0.000003
403 0.000038
404 0.000083
405 0.000156
406 0.000223
407 0.000295
408 0.000373
409 0.000413
410 0.000419
411 0.000395
412 0.000361
413 0.000310
414 0.000300
415 0.000310
416 0.000318
417 0.000309
418 0.000292
419 0.000262
420 0.000258
421 0.000263
422 0.000250
423 0.000245
424 0.000226
425 0.000213
426 0.000208
427 0.000184
428 0.000190
429 0.000186
430 0.000172
431 0.000170
432 0.000168
433 0.000165
434 0.000173
435 0.000174
436 0.000171
437 0.000167
438 0.000171
439 0.000164
440 0.000168
441 0.000167
442 0.000173
443 0.000175
444 0.000173
445 0.000201
446 0.000198
447 0.000171
448 0.000176
449 0.000164
450 0.000157
451 0.000156
452 0.000126
453 0.000080
454 0.000043
455 0.000050
456 0.000058
457 0.000074
458 0.000083
459 0.000071
460 0.000058
461 0.000057
462 0.000064
463 0.000056
464 0.000045
465 0.000029
466 -0.000003
467 -0.000024
468 -0.000043
469 -0.000043
470 -0.000034
471 -0.000007
472 0.000010
473 0.000030
474 0.000065
475 0.000092
476 0.000110
477 0.000141
478 0.000163
479 0.000191
480 0.000222
481 0.000209
482 0.000192
483 0.000182
484 0.000167
485 0.000189
486 0.000219
487 0.000216
488 0.000249
489 0.000273
490 0.000293
491 0.000323
492 0.000339
493 0.000356
494 0.000385
495 0.000400
496 0.000405
497 0.000401
498 0.000394
499 0.000388
500 0.000378
501 0.000358
502 0.000353
503 0.000338
504 0.000323
505 0.000329
506 0.000318
507 0.000301
508 0.000260
509 0.000218
510 0.000187
511 0.000169
512 0.000170
513 0.000175
514 0.000191
515 0.000189
516 0.000195
517 0.000196
518 0.000207
519 0.000226
520 0.000241
521 0.000263
522 0.000277
523 0.000259
524 0.000261
525 0.000274
526 0.000285
527 0.000273
528 0.000275
529 0.000261
530 0.000229
531 0.000234
532 0.000240
533 0.000249
534 0.000272
535 0.000289
536 0.000290
537 0.000310
538 0.000330
539 0.000356
540 0.000368
541 0.000372
542 0.000361
543 0.000343
544 0.000327
545 0.000317
546 0.000297
547 0.000275
548 0.000273
549 0.000276
550 0.000277
551 0.000279
552 0.000272
553 0.000243
554 0.000228
555 0.000224
556 0.000194
557 0.000146
558 0.000093
559 0.000057
560 0.000038
561 0.000021
562 0.000011
563 -0.000023
564 -0.000055
565 -0.000096
566 -0.000132
567 -0.000143
568 -0.000145
569 -0.000166
570 -0.000177
571 -0.000193
572 -0.000195
573 -0.000200
574 -0.000178
575 -0.000163
576 -0.000159
577 -0.000148
578 -0.000134
579 -0.000114
580 -0.000112
581 -0.000116
582 -0.000121
583 -0.000128
584 -0.000131
585 -0.000111
586 -0.000081
587 -0.000040
588 0.000005
589 0.000030
590 0.000069
591 0.000082
592 0.000083
593 0.000081
594 0.000085
595 0.000092
596 0.000084
597 0.000067
598 0.000050
599 0.000020
600 -0.000011
601 -0.000012
602 -0.000009
603 0.000005
604 -0.000028
605 -0.000047
606 -0.000041
607 -0.000028
608 0.000001
609 0.000013
610 0.000017
611 0.000026
612 0.000036
613 0.000069
614 0.000086
615 0.000101
616 0.000097
617 0.000069
618 0.000071
619 0.000078
620 0.000061
621 0.000043
622 0.000025
623 0.000013
624 0.000003
625 -0.000007
626 -0.000016
627 -0.000005
628 0.000006
629 0.000029
630 0.000050
631 0.000051
632 0.000064
633 0.000072
634 0.000067
635 0.000078
636 0.000071
637 0.000050
638 0.000034
639 0.000025
640 0.000013
641 0.000024
642 0.000046
643 0.000065
644 0.000095
645 0.000118
646 0.000114
647 0.000127
648 0.000138
649 0.000146
650 0.000140
651 0.000138
652 0.000161
653 0.000175
654 0.000185
655 0.000207
656 0.000196
657 0.000191
658 0.000193
659 0.000184
660 0.000186
661 0.000201
662 0.000188
663 0.000188
664 0.000180
665 0.000187
666 0.000213
667 0.000227
668 0.000228
669 0.000213
670 0.000198
671 0.000188
672 0.000180
673 0.000162
674 0.000144
675 0.000116
676 0.000103
677 0.000092
678 0.000094
679 0.000099
680 0.000086
681 0.000085
682 0.000075
683 0.000063
684 0.000068
685 0.000055
686 0.000057
687 0.000060
688 0.000052
689 0.000068
690 0.000067
691 0.000073
692 0.000071
693 0.000060
694 0.000055
695 0.000049
696 0.000038
697 0.000006
698 -0.000016
699 -0.000027
700 -0.000042
701 -0.000047
702 -0.000048
703 -0.000062
704 -0.000049
705 -0.000038
706 0.000004
707 0.000040
708 0.000062
709 0.000075
710 0.000089
711 0.000077
712 0.000079
713 0.000080
714 0.000068
715 0.000072
716 0.000059
717 0.000048
718 0.000047
719 0.000037
720 0.000020
721 0.000017
722 0.000025
723 0.000032
724 0.000035
725 0.000042
726 0.000053
727 0.000043
728 0.000027
729 0.000012
730 0.000003
731 -0.000012
732 -0.000029
733 -0.000048
734 -0.000068
735 -0.000065
736 -0.000060
737 -0.000073
738 -0.000086
739 -0.000089
740 -0.000100
741 -0.000091
742 -0.000086
743 -0.000089
744 -0.000083
745 -0.000081
746 -0.000058
747 -0.000041
748 -0.000028
749 -0.000013
750 -0.000019
751 -0.000023
752 -0.000018
753 -0.000028
754 -0.000046
755 -0.000060
756 -0.000060
757 -0.000055
758 -0.000044
759 -0.000026
760 -0.000017
761 -0.000027
762 -0.000048
763 -0.000056
764 -0.000073
765 -0.000104
766 -0.000131
767 -0.000157
768 -0.000189
769 -0.000213
770 -0.000237
771 -0.000258
772 -0.000255
773 -0.000267
774 -0.000281
775 -0.000283
776 -0.000289
777 -0.000298
778 -0.000308
779 -0.000331
780 -0.000323
781 -0.000323
782 -0.000329
783 -0.000319
784 -0.000317
785 -0.000305
786 -0.000280
787 -0.000249
788 -0.000211
789 -0.000198
790 -0.000188
791 -0.000175
792 -0.000157
793 -0.000139
794 -0.000130
795 -0.000111
796 -0.000087
797 -0.000072
798 -0.000059
799 -0.000044
800 -0.000023
801 -0.000004
802 0.000010
803 0.000039
804 0.000058
805 0.000073
806 0.000098
807 0.000116
808 0.000125
809 0.000129
