# i correlation
1 0.002940
2 0.002597
3 0.002293
4 0.002084
5 0.001918
6 0.001751
7 0.001565
8 0.001410
9 0.001325
10 0.001250
11 0.001217
12 0.001199
13 0.001186
14 0.001170
15 0.001139
16 0.001112
17 0.001108
18 0.001102
19 0.001110
20 0.001121
21 0.001109
22 0.001117
23 0.001118
24 0.001091
25 0.001062
26 0.001021
27 0.000996
28 0.000947
29 0.000875
30 0.000795
31 0.000720
32 0.000695
33 0.000707
34 0.000723
35 0.000733
36 0.000751
37 0.000740
38 0.000756
39 0.000792
40 0.000833
41 0.000837
42 0.000825
43 0.000782
44 0.000785
45 0.000794
46 0.000833
47 0.000833
48 0.000822
49 0.000841
50 0.000845
51 0.000824
52 0.000811
53 0.000811
54 0.000796
55 0.000773
56 0.000748
57 0.000711
58 0.000696
59 0.000712
60 0.000748
61 0.000793
62 0.000831
63 0.000862
64 0.000844
65 0.000861
66 0.000857
67 0.000839
68 0.000832
69 0.000854
70 0.000844
71 0.000858
72 0.000864
73 0.000856
74 0.000861
75 0.000889
76 0.000911
77 0.000922
78 0.000920
79 0.000935
80 0.000938
81 0.000896
82 0.000868
83 0.000788
84 0.000710
85 0.000662
86 0.000677
87 0.000701
88 0.000739
89 0.000758
90 0.000786
91 0.000820
92 0.000840
93 0.000843
94 0.000834
95 0.000843
96 0.000832
97 0.000776
98 0.000702
99 0.000680
100 0.000649
101 0.000648
102 0.000665
103 0.000667
104 0.000657
105 0.000661
106 0.000629
107 0.000617
108 0.000591
109 0.000610
110 0.000626
111 0.000629
112 0.000612
113 0.000593
114 0.000568
115 0.000595
116 0.000616
117 0.000580
118 0.000539
119 0.000524
120 0.000478
121 0.000444
122 0.000397
123 0.000351
124 0.000312
125 0.000302
126 0.000269
127 0.000277
128 0.000281
129 0.000311
130 0.000344
131 0.000375
132 0.000407
133 0.000427
134 0.000455
135 0.000478
136 0.000526
137 0.000582
138 0.000607
139 0.000621
140 0.000619
141 0.000620
142 0.000619
143 0.000633
144 0.000643
145 0.000661
146 0.000655
147 0.000641
148 0.000642
149 0.000670
150 0.000677
151 0.000689
152 0.000677
153 0.000688
154 0.000732
155 0.000781
156 0.000806
157 0.000852
158 0.000871
159 0.000904
160 0.000886
161 0.000869
162 0.000831
163 0.000792
164 0.000782
165 0.000804
166 0.000799
167 0.000805
168 0.000798
169 0.000795
170 0.000777
171 0.000776
172 0.000779
173 0.000752
174 0.000727
175 0.000677
176 0.000654
177 0.000607
178 0.000568
179 0.000537
180 0.000513
181 0.000546
182 0.000571
183 0.000579
184 0.000573
185 0.000573
186 0.000561
187 0.000540
188 0.000516
189 0.000505
190 0.000526
191 0.000545
192 0.000544
193 0.000512
194 0.000477
195 0.000483
196 0.000515
197 0.000527
198 0.000526
199 0.000530
200 0.000531
201 0.000529
202 0.000498
203 0.000464
204 0.000437
205 0.000415
206 0.000396
207 0.000373
208 0.000357
209 0.000335
210 0.000325
211 0.000313
212 0.000295
213 0.000275
214 0.000255
215 0.000233
216 0.000253
217 0.000264
218 0.000273
219 0.000256
220 0.000249
221 0.000226
222 0.000225
223 0.000252
224 0.000272
225 0.000295
226 0.000322
227 0.000328
228 0.000349
229 0.000341
230 0.000372
231 0.000427
232 0.000483
233 0.000474
234 0.000463
235 0.000469
236 0.000504
237 0.000527
238 0.000519
239 0.000499
240 0.000499
241 0.000517
242 0.000517
243 0.000514
244 0.000529
245 0.000548
246 0.000538
247 0.000508
248 0.000481
249 0.000461
250 0.000476
251 0.000485
252 0.000486
253 0.000480
254 0.000457
255 0.000416
256 0.000417
257 0.000437
258 0.000455
259 0.000438
260 0.000419
261 0.000419
262 0.000412
263 0.000396
264 0.000395
265 0.000398
266 0.000421
267 0.000453
268 0.000450
269 0.000455
270 0.000452
271 0.000458
272 0.000439
273 0.000410
274 0.000347
275 0.000284
276 0.000268
277 0.000291
278 0.000339
279 0.000357
280 0.000363
281 0.000359
282 0.000353
283 0.000330
284 0.000304
285 0.000298
286 0.000293
287 0.000299
288 0.000275
289 0.000259
290 0.000255
291 0.000281
292 0.000294
293 0.000292
294 0.000325
295 0.000320
296 0.000323
297 0.000323
298 0.000317
299 0.000295
300 0.000299
301 0.000300
302 0.000313
303 0.000352
304 0.000380
305 0.000437
306 0.000484
307 0.000530
308 0.000559
309 0.000547
310 0.000521
311 0.000529
312 0.000546
313 0.000552
314 0.000550
315 0.000510
316 0.000469
317 0.000429
318 0.000426
319 0.000446
320 0.000467
321 0.000461
322 0.000476
323 0.000489
324 0.000481
325 0.000445
326 0.000411
327 0.000400
328 0.000366
329 0.000371
330 0.000355
331 0.000337
332 0.000356
333 0.000403
334 0.000427
335 0.000468
336 0.000473
337 0.000458
338 0.000447
339 0.000458
340 0.000481
341 0.000484
342 0.000457
343 0.000426
344 0.000419
345 0.000381
346 0.000331
347 0.000318
348 0.000267
349 0.000199
350 0.000152
351 0.000100
352 0.000093
353 0.000097
354 0.000087
355 0.000088
356 0.000095
357 0.000130
358 0.000173
359 0.000231
360 0.000275
361 0.000306
362 0.000312
363 0.000294
364 0.000272
365 0.000220
366 0.000173
367 0.000123
368 0.000091
369 0.000081
370 0.000073
371 0.000052
372 0.000053
373 0.000082
374 0.000114
375 0.000128
376 0.000127
377 0.000132
378 0.000112
379 0.000085
380 0.000090
381 0.000135
382 0.000217
383 0.000286
384 0.000328
385 0.000341
386 0.000337
387 0.000326
388 0.000284
389 0.000244
390 0.000215
391 0.000175
392 0.000125
393 0.000079
394 0.000073
395 0.000089
396 0.000123
397 0.000153
398 0.000198
399 0.000255
400 0.000295
401 0.000334
402 0.000358
403 0.000379
404 0.000403
405 0.000389
406 0.000378
407 0.000363
408 0.000357
409 0.000344
410 0.000346
411 0.000315
412 0.000282
413 0.000258
414 0.000219
415 0.000197
416 0.000169
417 0.000151
418 0.000158
419 0.000160
420 0.000127
421 0.000112
422 0.000125
423 0.000153
424 0.000195
425 0.000186
426 0.000207
427 0.000217
428 0.000220
429 0.000187
430 0.000177
431 0.000170
432 0.000176
433 0.000194
434 0.000228
435 0.000254
436 0.000295
437 0.000304
438 0.000298
439 0.000308
440 0.000328
441 0.000332
442 0.000339
443 0.000353
444 0.000352
445 0.000361
446 0.000367
447 0.000356
448 0.000347
449 0.000362
450 0.000383
451 0.000388
452 0.000402
453 0.000386
454 0.000392
455 0.000372
456 0.000348
457 0.000309
458 0.000271
459 0.000256
460 0.000244
461 0.000227
462 0.000228
463 0.000251
464 0.000289
465 0.000295
466 0.000292
467 0.000289
468 0.000273
469 0.000263
470 0.000264
471 0.000260
472 0.000284
473 0.000318
474 0.000328
475 0.000320
476 0.000311
477 0.000340
478 0.000373
479 0.000414
480 0.000412
481 0.000366
482 0.000320
483 0.000299
484 0.000291
485 0.000274
486 0.000272
487 0.000270
488 0.000260
489 0.000293
490 0.000335
491 0.000359
492 0.000368
493 0.000393
494 0.000427
495 0.000474
496 0.000495
497 0.000504
498 0.000504
499 0.000497
500 0.000481
501 0.000450
502 0.000407
503 0.000371
504 0.000333
505 0.000295
506 0.000293
507 0.000264
508 0.000239
509 0.000228
510 0.000209
511 0.000210
512 0.000238
513 0.000262
514 0.000291
515 0.000315
516 0.000303
517 0.000302
518 0.000295
519 0.000306
520 0.000305
521 0.000286
522 0.000263
523 0.000260
524 0.000237
525 0.000225
526 0.000211
527 0.000188
528 0.000160
529 0.000157
530 0.000128
531 0.000114
532 0.000096
533 0.000068
534 0.000039
535 0.000023
536 0.000025
537 0.000021
538 0.000032
539 0.000052
540 0.000062
541 0.000061
542 0.000078
543 0.000108
544 0.000133
545 0.000153
546 0.000173
547 0.000167
548 0.000162
549 0.000160
550 0.000161
551 0.000174
552 0.000188
553 0.000202
554 0.000180
555 0.000191
556 0.000207
557 0.000215
558 0.000239
559 0.000268
560 0.000256
561 0.000266
562 0.000257
563 0.000259
564 0.000252
565 0.000270
566 0.000255
567 0.000253
568 0.000228
569 0.000231
570 0.000234
571 0.000253
572 0.000257
573 0.000251
574 0.000248
575 0.000277
576 0.000308
577 0.000336
578 0.000352
579 0.000358
580 0.000370
581 0.000378
582 0.000382
583 0.000384
584 0.000356
585 0.000340
586 0.000308
587 0.000250
588 0.000195
589 0.000170
590 0.000159
591 0.000154
592 0.000164
593 0.000169
594 0.000185
595 0.000211
596 0.000230
597 0.000233
598 0.000233
599 0.000230
600 0.000255
601 0.000300
602 0.000335
603 0.000364
604 0.000386
605 0.000424
606 0.000435
607 0.000417
608 0.000389
609 0.000374
610 0.000351
611 0.000340
612 0.000299
613 0.000262
614 0.000241
615 0.000222
616 0.000216
617 0.000204
618 0.000203
619 0.000190
620 0.000169
621 0.000148
622 0.000129
623 0.000132
624 0.000135
625 0.000128
626 0.000133
627 0.000150
628 0.000165
629 0.000159
630 0.000167
631 0.000201
632 0.000227
633 0.000229
634 0.000234
635 0.000222
636 0.000234
637 0.000216
638 0.000211
639 0.000188
640 0.000182
641 0.000187
642 0.000179
643 0.000183
644 0.000196
645 0.000213
646 0.000224
647 0.000216
648 0.000198
649 0.000190
650 0.000190
651 0.000196
652 0.000202
653 0.000202
654 0.000211
655 0.000233
656 0.000250
657 0.000228
658 0.000206
659 0.000187
660 0.000168
661 0.000165
662 0.000155
663 0.000145
664 0.000144
665 0.000142
666 0.000123
667 0.000118
668 0.000120
669 0.000119
670 0.000126
671 0.000117
672 0.000131
673 0.000144
674 0.000176
675 0.000191
676 0.000229
677 0.000266
678 0.000287
679 0.000287
680 0.000306
681 0.000314
682 0.000330
683 0.000323
684 0.000326
685 0.000318
686 0.000317
687 0.000316
688 0.000319
689 0.000307
690 0.000293
691 0.000291
692 0.000290
693 0.000281
694 0.000261
695 0.000254
696 0.000277
697 0.000295
698 0.000284
699 0.000276
700 0.000253
701 0.000225
702 0.000204
703 0.000198
704 0.000191
705 0.000193
706 0.000179
707 0.000155
708 0.000143
709 0.000131
710 0.000134
711 0.000132
712 0.000120
713 0.000108
714 0.000101
715 0.000096
716 0.000110
717 0.000118
718 0.000145
719 0.000164
720 0.000193
721 0.000213
722 0.000242
723 0.000256
724 0.000270
725 0.000270
726 0.000270
727 0.000261
728 0.000252
729 0.000215
730 0.000198
731 0.000175
732 0.000148
733 0.000132
734 0.000135
735 0.000140
736 0.000150
737 0.000165
738 0.000169
739 0.000186
740 0.000186
741 0.000199
742 0.000217
743 0.000253
744 0.000277
745 0.000300
746 0.000313
747 0.000340
748 0.000366
749 0.000385
750 0.000398
751 0.000406
752 0.000404
753 0.000388
754 0.000375
755 0.000370
756 0.000377
757 0.000387
758 0.000392
759 0.000392
760 0.000396
761 0.000401
762 0.000399
763 0.000395
764 0.000385
765 0.000376
766 0.000378
767 0.000373
768 0.000369
769 0.000366
770 0.000372
771 0.000372
772 0.000380
773 0.000376
774 0.000371
775 0.000375
776 0.000367
777 0.000368
778 0.000366
779 0.000355
780 0.000343
781 0.000333
782 0.000326
783 0.000348
784 0.000359
785 0.000373
786 0.000370
787 0.000372
788 0.000374
789 0.000383
790 0.000379
791 0.000372
792 0.000369
793 0.000368
794 0.000356
795 0.000350
796 0.000343
797 0.000345
798 0.000341
799 0.000336
800 0.000326
801 0.000311
802 0.000299
803 0.000285
804 0.000259
805 0.000227
806 0.000214
807 0.000191
808 0.000174
809 0.000173
