# i correlation
1 0.002308
2 0.002050
3 0.001838
4 0.001660
5 0.001549
6 0.001453
7 0.001351
8 0.001281
9 0.001228
10 0.001164
11 0.001127
12 0.001072
13 0.001026
14 0.000959
15 0.000913
16 0.000871
17 0.000849
18 0.000812
19 0.000807
20 0.000778
21 0.000764
22 0.000765
23 0.000767
24 0.000764
25 0.000783
26 0.000814
27 0.000849
28 0.000886
29 0.000887
30 0.000891
31 0.000852
32 0.000808
33 0.000748
34 0.000683
35 0.000674
36 0.000638
37 0.000601
38 0.000564
39 0.000545
40 0.000530
41 0.000512
42 0.000498
43 0.000491
44 0.000491
45 0.000511
46 0.000521
47 0.000532
48 0.000522
49 0.000493
50 0.000480
51 0.000460
52 0.000453
53 0.000445
54 0.000454
55 0.000463
56 0.000445
57 0.000463
58 0.000482
59 0.000489
60 0.000507
61 0.000530
62 0.000559
63 0.000581
64 0.000563
65 0.000527
66 0.000474
67 0.000437
68 0.000394
69 0.000383
70 0.000393
71 0.000413
72 0.000424
73 0.000432
74 0.000415
75 0.000415
76 0.000441
77 0.000444
78 0.000457
79 0.000428
80 0.000416
81 0.000408
82 0.000406
83 0.000407
84 0.000366
85 0.000337
86 0.000329
87 0.000345
88 0.000374
89 0.000394
90 0.000406
91 0.000423
92 0.000439
93 0.000453
94 0.000465
95 0.000499
96 0.000489
97 0.000512
98 0.000526
99 0.000504
100 0.000476
101 0.000480
102 0.000455
103 0.000406
104 0.000371
105 0.000367
106 0.000383
107 0.000376
108 0.000381
109 0.000351
110 0.000303
111 0.000263
112 0.000220
113 0.000162
114 0.000140
115 0.000147
116 0.000150
117 0.000140
118 0.000147
119 0.000142
120 0.000131
121 0.000104
122 0.000068
123 0.000071
124 0.000072
125 0.000083
126 0.000087
127 0.000131
128 0.000189
129 0.000231
130 0.000282
131 0.000269
132 0.000240
133 0.000238
134 0.000232
135 0.000215
136 0.000235
137 0.000210
138 0.000208
139 0.000180
140 0.000146
141 0.000120
142 0.000101
143 0.000071
144 0.000035
145 0.000005
146 -0.000000
147 -0.000012
148 -0.000041
149 -0.000076
150 -0.000090
151 -0.000087
152 -0.000084
153 -0.000054
154 -0.000032
155 0.000016
156 0.000055
157 0.000090
158 0.000156
159 0.000207
160 0.000246
161 0.000286
162 0.000282
163 0.000280
164 0.000266
165 0.000259
166 0.000269
167 0.000254
168 0.000242
169 0.000227
170 0.000193
171 0.000157
172 0.000122
173 0.000122
174 0.000113
175 0.000125
176 0.000115
177 0.000111
178 0.000136
179 0.000133
180 0.000133
181 0.000160
182 0.000184
183 0.000199
184 0.000203
185 0.000195
186 0.000219
187 0.000249
188 0.000294
189 0.000326
190 0.000354
191 0.000394
192 0.000406
193 0.000428
194 0.000437
195 0.000435
196 0.000426
197 0.000388
198 0.000316
199 0.000252
200 0.000196
201 0.000148
202 0.000114
203 0.000097
204 0.000104
205 0.000109
206 0.000135
207 0.000126
208 0.000125
209 0.000089
210 0.000095
211 0.000098
212 0.000097
213 0.000122
214 0.000127
215 0.000138
216 0.000160
217 0.000186
218 0.000204
219 0.000232
220 0.000250
221 0.000283
222 0.000308
223 0.000334
224 0.000362
225 0.000406
226 0.000419
227 0.000406
228 0.000374
229 0.000360
230 0.000315
231 0.000296
232 0.000277
233 0.000263
234 0.000277
235 0.000303
236 0.000343
237 0.000361
238 0.000386
239 0.000396
240 0.000380
241 0.000378
242 0.000372
243 0.000360
244 0.000382
245 0.000386
246 0.000369
247 0.000345
248 0.000356
249 0.000354
250 0.000350
251 0.000339
252 0.000344
253 0.000354
254 0.000377
255 0.000386
256 0.000385
257 0.000370
258 0.000351
259 0.000330
260 0.000311
261 0.000291
262 0.000265
263 0.000249
264 0.000248
265 0.000272
266 0.000313
267 0.000337
268 0.000342
269 0.000347
270 0.000328
271 0.000317
272 0.000305
273 0.000273
274 0.000255
275 0.000260
276 0.000266
277 0.000265
278 0.000235
279 0.000208
280 0.000202
281 0.000217
282 0.000220
283 0.000203
284 0.000231
285 0.000230
286 0.000247
287 0.000271
288 0.000291
289 0.000340
290 0.000364
291 0.000351
292 0.000342
293 0.000338
294 0.000335
295 0.000315
296 0.000307
297 0.000311
298 0.000339
299 0.000353
300 0.000322
301 0.000333
302 0.000348
303 0.000357
304 0.000354
305 0.000328
306 0.000280
307 0.000229
308 0.000178
309 0.000135
310 0.000096
311 0.000108
312 0.000132
313 0.000134
314 0.000147
315 0.000150
316 0.000170
317 0.000202
318 0.000213
319 0.000210
320 0.000211
321 0.000205
322 0.000200
323 0.000206
324 0.000217
325 0.000216
326 0.000232
327 0.000249
328 0.000230
329 0.000214
330 0.000184
331 0.000174
332 0.000164
333 0.000143
334 0.000128
335 0.000097
336 0.000080
337 0.000077
338 0.000054
339 0.000045
340 0.000032
341 0.000029
342 0.000055
343 0.000077
344 0.000071
345 0.000044
346 0.000032
347 0.000033
348 0.000036
349 0.000029
350 0.000024
351 0.000034
352 0.000060
353 0.000098
354 0.000112
355 0.000096
356 0.000099
357 0.000089
358 0.000066
359 0.000056
360 0.000013
361 -0.000019
362 -0.000054
363 -0.000069
364 -0.000065
365 -0.000082
366 -0.000102
367 -0.000090
368 -0.000102
369 -0.000126
370 -0.000143
371 -0.000164
372 -0.000153
373 -0.000138
374 -0.000111
375 -0.000093
376 -0.000100
377 -0.000103
378 -0.000097
379 -0.000100
380 -0.000113
381 -0.000116
382 -0.000080
383 -0.000056
384 -0.000044
385 -0.000053
386 -0.000076
387 -0.000094
388 -0.000098
389 -0.000104
390 -0.000118
391 -0.000160
392 -0.000206
393 -0.000259
394 -0.000286
395 -0.000290
396 -0.000279
397 -0.000285
398 -0.000305
399 -0.000274
400 -0.000247
401 -0.000222
402 -0.000212
403 -0.000204
404 -0.000204
405 -0.000161
406 -0.000164
407 -0.000163
408 -0.000170
409 -0.000183
410 -0.000180
411 -0.000178
412 -0.000174
413 -0.000172
414 -0.000143
415 -0.000135
416 -0.000136
417 -0.000139
418 -0.000128
419 -0.000126
420 -0.000149
421 -0.000168
422 -0.000184
423 -0.000199
424 -0.000224
425 -0.000238
426 -0.000235
427 -0.000231
428 -0.000221
429 -0.000213
430 -0.000188
431 -0.000169
432 -0.000150
433 -0.000129
434 -0.000113
435 -0.000085
436 -0.000082
437 -0.000085
438 -0.000136
439 -0.000158
440 -0.000160
441 -0.000145
442 -0.000113
443 -0.000107
444 -0.000090
445 -0.000072
446 -0.000066
447 -0.000042
448 -0.000024
449 -0.000020
450 -0.000008
451 -0.000007
452 -0.000017
453 -0.000016
454 -0.000015
455 -0.000035
456 -0.000048
457 -0.000075
458 -0.000078
459 -0.000067
460 -0.000060
461 -0.000052
462 -0.000027
463 -0.000023
464 -0.000031
465 -0.000019
466 -0.000029
467 -0.000043
468 -0.000063
469 -0.000081
470 -0.000062
471 -0.000042
472 -0.000017
473 0.000011
474 0.000008
475 -0.000010
476 -0.000017
477 -0.000014
478 -0.000020
479 -0.000014
480 -0.000012
481 0.000005
482 0.000011
483 0.000022
484 0.000014
485 -0.000010
486 -0.000034
487 -0.000042
488 -0.000066
489 -0.000085
490 -0.000094
491 -0.000112
492 -0.000105
493 -0.000109
494 -0.000091
495 -0.000084
496 -0.000089
497 -0.000083
498 -0.000070
499 -0.000084
500 -0.000072
501 -0.000076
502 -0.000069
503 -0.000061
504 -0.000043
505 -0.000026
506 0.000009
507 0.000043
508 0.000066
509 0.000099
510 0.000119
511 0.000143
512 0.000159
513 0.000191
514 0.000215
515 0.000236
516 0.000248
517 0.000254
518 0.000236
519 0.000225
520 0.000206
521 0.000168
522 0.000139
523 0.000110
524 0.000108
525 0.000114
526 0.000104
527 0.000076
528 0.000047
529 0.000016
530 0.000006
531 -0.000012
532 -0.000026
533 -0.000030
534 -0.000018
535 -0.000003
536 0.000027
537 0.000070
538 0.000090
539 0.000104
540 0.000102
541 0.000100
542 0.000122
543 0.000152
544 0.000167
545 0.000177
546 0.000183
547 0.000185
548 0.000179
549 0.000178
550 0.000163
551 0.000147
552 0.000136
553 0.000118
554 0.000100
555 0.000086
556 0.000087
557 0.000075
558 0.000071
559 0.000071
560 0.000056
561 0.000033
562 0.000005
563 -0.000005
564 0.000001
565 0.000006
566 0.000017
567 0.000011
568 0.000001
569 -0.000012
570 -0.000005
571 0.000016
572 0.000021
573 0.000016
574 -0.000002
575 -0.000012
576 -0.000038
577 -0.000050
578 -0.000028
579 -0.000009
580 0.000009
581 0.000007
582 0.000011
583 0.000031
584 0.000038
585 0.000021
586 0.000004
587 -0.000012
588 -0.000006
589 -0.000000
590 -0.000011
591 -0.000020
592 -0.000014
593 -0.000020
594 -0.000033
595 -0.000031
596 -0.000029
597 -0.000027
598 -0.000042
599 -0.000057
600 -0.000081
601 -0.000079
602 -0.000079
603 -0.000062
604 -0.000069
605 -0.000073
606 -0.000074
607 -0.000074
608 -0.000064
609 -0.000060
610 -0.000060
611 -0.000081
612 -0.000097
613 -0.000103
614 -0.000105
615 -0.000128
616 -0.000143
617 -0.000160
618 -0.000179
619 -0.000192
620 -0.000190
621 -0.000186
622 -0.000194
623 -0.000209
624 -0.000245
625 -0.000251
626 -0.000269
627 -0.000291
628 -0.000299
629 -0.000291
630 -0.000287
631 -0.000284
632 -0.000280
633 -0.000283
634 -0.000271
635 -0.000272
636 -0.000270
637 -0.000273
638 -0.000269
639 -0.000277
640 -0.000271
641 -0.000259
642 -0.000249
643 -0.000236
644 -0.000209
645 -0.000181
646 -0.000174
647 -0.000185
648 -0.000200
649 -0.000218
650 -0.000243
651 -0.000250
652 -0.000272
653 -0.000280
654 -0.000299
655 -0.000301
656 -0.000305
657 -0.000309
658 -0.000309
659 -0.000323
660 -0.000314
661 -0.000296
662 -0.000293
663 -0.000314
664 -0.000318
665 -0.000319
666 -0.000308
667 -0.000297
668 -0.000293
669 -0.000295
670 -0.000300
671 -0.000289
672 -0.000259
673 -0.000244
674 -0.000233
675 -0.000207
676 -0.000192
677 -0.000161
678 -0.000130
679 -0.000102
680 -0.000083
681 -0.000074
682 -0.000091
683 -0.000098
684 -0.000098
685 -0.000084
686 -0.000068
687 -0.000066
688 -0.000074
689 -0.000080
690 -0.000079
691 -0.000079
692 -0.000080
693 -0.000094
694 -0.000098
695 -0.000094
696 -0.000096
697 -0.000099
698 -0.000084
699 -0.000068
700 -0.000029
701 -0.000003
702 0.000012
703 0.000020
704 0.000031
705 0.000040
706 0.000040
707 0.000052
708 0.000054
709 0.000041
710 0.000022
711 -0.000001
712 -0.000011
713 -0.000031
714 -0.000057
715 -0.000075
716 -0.000090
717 -0.000091
718 -0.000101
719 -0.000118
720 -0.000138
721 -0.000154
722 -0.000161
723 -0.000182
724 -0.000183
725 -0.000178
726 -0.000168
727 -0.000170
728 -0.000173
729 -0.000172
730 -0.000180
731 -0.000178
732 -0.000173
733 -0.000162
734 -0.000148
735 -0.000134
736 -0.000125
737 -0.000117
738 -0.000103
739 -0.000078
740 -0.000059
741 -0.000044
742 -0.000021
743 -0.000012
744 -0.000014
745 -0.000017
746 -0.000027
747 -0.000036
748 -0.000028
749 -0.000016
750 -0.000001
751 -0.000005
752 -0.000003
753 0.000005
754 0.000009
755 0.000018
756 0.000024
757 0.000024
758 0.000018
759 0.000018
760 0.000009
761 0.000018
762 0.000032
763 0.000049
764 0.000063
765 0.000051
766 0.000038
767 0.000033
768 0.000033
769 0.000038
770 0.000034
771 0.000030
772 0.000041
773 0.000051
774 0.000070
775 0.000083
776 0.000102
777 0.000099
778 0.000098
779 0.000104
780 0.000099
781 0.000098
782 0.000098
783 0.000102
784 0.000104
785 0.000107
786 0.000099
787 0.000094
788 0.000086
789 0.000079
790 0.000063
791 0.000038
792 0.000007
793 -0.000018
794 -0.000035
795 -0.000044
796 -0.000042
797 -0.000033
798 -0.000032
799 -0.000028
800 -0.000014
801 -0.000006
802 0.000009
803 0.000021
804 0.000038
805 0.000047
806 0.000043
807 0.000049
808 0.000054
809 0.000058
