# i correlation
1 0.002952
2 0.002671
3 0.002438
4 0.002235
5 0.002071
6 0.001937
7 0.001793
8 0.001692
9 0.001573
10 0.001468
11 0.001431
12 0.001361
13 0.001304
14 0.001262
15 0.001213
16 0.001166
17 0.001150
18 0.001169
19 0.001172
20 0.001163
21 0.001138
22 0.001103
23 0.001123
24 0.001111
25 0.001076
26 0.001081
27 0.001042
28 0.001001
29 0.001007
30 0.001015
31 0.001054
32 0.001075
33 0.001056
34 0.001069
35 0.001079
36 0.001056
37 0.001087
38 0.001106
39 0.001094
40 0.001088
41 0.001076
42 0.001080
43 0.001075
44 0.001045
45 0.001006
46 0.000975
47 0.000932
48 0.000902
49 0.000870
50 0.000875
51 0.000862
52 0.000881
53 0.000876
54 0.000854
55 0.000833
56 0.000820
57 0.000851
58 0.000915
59 0.000951
60 0.000991
61 0.000998
62 0.000984
63 0.000973
64 0.000987
65 0.000999
66 0.001037
67 0.001075
68 0.001110
69 0.001121
70 0.001122
71 0.001158
72 0.001180
73 0.001175
74 0.001134
75 0.001105
76 0.001048
77 0.000974
78 0.000895
79 0.000833
80 0.000785
81 0.000736
82 0.000702
83 0.000682
84 0.000666
85 0.000664
86 0.000673
87 0.000675
88 0.000688
89 0.000719
90 0.000755
91 0.000822
92 0.000901
93 0.000962
94 0.001010
95 0.001051
96 0.001086
97 0.001087
98 0.001072
99 0.001054
100 0.001046
101 0.001020
102 0.001002
103 0.000976
104 0.000918
105 0.000874
106 0.000827
107 0.000786
108 0.000754
109 0.000692
110 0.000704
111 0.000736
112 0.000754
113 0.000753
114 0.000748
115 0.000715
116 0.000692
117 0.000685
118 0.000685
119 0.000717
120 0.000715
121 0.000701
122 0.000641
123 0.000612
124 0.000574
125 0.000592
126 0.000629
127 0.000640
128 0.000681
129 0.000721
130 0.000736
131 0.000743
132 0.000756
133 0.000768
134 0.000807
135 0.000827
136 0.000802
137 0.000791
138 0.000797
139 0.000800
140 0.000792
141 0.000740
142 0.000697
143 0.000685
144 0.000664
145 0.000641
146 0.000604
147 0.000569
148 0.000572
149 0.000575
150 0.000566
151 0.000546
152 0.000540
153 0.000547
154 0.000587
155 0.000602
156 0.000629
157 0.000645
158 0.000662
159 0.000672
160 0.000693
161 0.000686
162 0.000659
163 0.000694
164 0.000698
165 0.000703
166 0.000694
167 0.000671
168 0.000665
169 0.000668
170 0.000640
171 0.000631
172 0.000639
173 0.000629
174 0.000628
175 0.000621
176 0.000614
177 0.000603
178 0.000619
179 0.000584
180 0.000561
181 0.000526
182 0.000494
183 0.000459
184 0.000427
185 0.000425
186 0.000428
187 0.000446
188 0.000463
189 0.000480
190 0.000498
191 0.000539
192 0.000600
193 0.000650
194 0.000645
195 0.000621
196 0.000616
197 0.000610
198 0.000631
199 0.000652
200 0.000672
201 0.000698
202 0.000712
203 0.000729
204 0.000728
205 0.000699
206 0.000693
207 0.000651
208 0.000612
209 0.000573
210 0.000531
211 0.000502
212 0.000476
213 0.000465
214 0.000462
215 0.000440
216 0.000400
217 0.000343
218 0.000319
219 0.000284
220 0.000282
221 0.000327
222 0.000394
223 0.000460
224 0.000501
225 0.000524
226 0.000560
227 0.000580
228 0.000600
229 0.000635
230 0.000669
231 0.000685
232 0.000707
233 0.000711
234 0.000709
235 0.000679
236 0.000665
237 0.000631
238 0.000583
239 0.000526
240 0.000479
241 0.000463
242 0.000423
243 0.000377
244 0.000359
245 0.000359
246 0.000358
247 0.000359
248 0.000339
249 0.000335
250 0.000328
251 0.000327
252 0.000348
253 0.000364
254 0.000379
255 0.000400
256 0.000402
257 0.000359
258 0.000321
259 0.000312
260 0.000340
261 0.000370
262 0.000365
263 0.000367
264 0.000391
265 0.000398
266 0.000406
267 0.000424
268 0.000437
269 0.000467
270 0.000478
271 0.000502
272 0.000496
273 0.000533
274 0.000545
275 0.000549
276 0.000551
277 0.000535
278 0.000509
279 0.000493
280 0.000444
281 0.000395
282 0.000350
283 0.000302
284 0.000275
285 0.000273
286 0.000288
287 0.000290
288 0.000298
289 0.000318
290 0.000330
291 0.000365
292 0.000387
293 0.000426
294 0.000482
295 0.000548
296 0.000574
297 0.000633
298 0.000707
299 0.000764
300 0.000764
301 0.000756
302 0.000762
303 0.000753
304 0.000758
305 0.000729
306 0.000695
307 0.000644
308 0.000580
309 0.000532
310 0.000484
311 0.000431
312 0.000414
313 0.000412
314 0.000408
315 0.000392
316 0.000377
317 0.000377
318 0.000370
319 0.000362
320 0.000361
321 0.000399
322 0.000425
323 0.000463
324 0.000479
325 0.000511
326 0.000528
327 0.000541
328 0.000575
329 0.000589
330 0.000587
331 0.000587
332 0.000571
333 0.000554
334 0.000527
335 0.000509
336 0.000495
337 0.000485
338 0.000454
339 0.000431
340 0.000407
341 0.000438
342 0.000444
343 0.000427
344 0.000429
345 0.000414
346 0.000377
347 0.000330
348 0.000325
349 0.000296
350 0.000265
351 0.000216
352 0.000200
353 0.000151
354 0.000100
355 0.000053
356 0.000035
357 0.000034
358 0.000014
359 -0.000005
360 -0.000014
361 -0.000037
362 -0.000018
363 -0.000024
364 -0.000033
365 -0.000045
366 -0.000008
367 0.000025
368 0.000049
369 0.000047
370 0.000035
371 0.000065
372 0.000054
373 0.000048
374 0.000051
375 0.000062
376 0.000031
377 -0.000011
378 -0.000037
379 -0.000030
380 -0.000026
381 0.000008
382 0.000021
383 0.000036
384 0.000055
385 0.000049
386 0.000056
387 0.000059
388 0.000053
389 0.000090
390 0.000143
391 0.000190
392 0.000235
393 0.000251
394 0.000277
395 0.000304
396 0.000308
397 0.000315
398 0.000320
399 0.000305
400 0.000305
401 0.000303
402 0.000299
403 0.000293
404 0.000280
405 0.000266
406 0.000260
407 0.000229
408 0.000182
409 0.000170
410 0.000166
411 0.000109
412 0.000065
413 0.000015
414 0.000003
415 0.000017
416 0.000034
417 0.000046
418 0.000054
419 0.000022
420 0.000021
421 0.000029
422 0.000009
423 0.000007
424 0.000023
425 0.000039
426 0.000071
427 0.000123
428 0.000152
429 0.000189
430 0.000194
431 0.000171
432 0.000138
433 0.000122
434 0.000121
435 0.000132
436 0.000122
437 0.000105
438 0.000100
439 0.000092
440 0.000084
441 0.000104
442 0.000140
443 0.000142
444 0.000125
445 0.000100
446 0.000072
447 0.000066
448 0.000065
449 0.000061
450 0.000037
451 0.000003
452 -0.000015
453 -0.000037
454 -0.000054
455 -0.000056
456 -0.000049
457 -0.000049
458 -0.000026
459 -0.000024
460 -0.000001
461 0.000029
462 0.000079
463 0.000103
464 0.000122
465 0.000119
466 0.000131
467 0.000153
468 0.000147
469 0.000144
470 0.000150
471 0.000138
472 0.000110
473 0.000087
474 0.000071
475 0.000051
476 0.000038
477 0.000050
478 0.000073
479 0.000103
480 0.000129
481 0.000150
482 0.000161
483 0.000164
484 0.000167
485 0.000177
486 0.000164
487 0.000170
488 0.000159
489 0.000162
490 0.000166
491 0.000179
492 0.000202
493 0.000214
494 0.000235
495 0.000251
496 0.000265
497 0.000289
498 0.000297
499 0.000288
500 0.000305
501 0.000343
502 0.000379
503 0.000400
504 0.000381
505 0.000358
506 0.000330
507 0.000282
508 0.000249
509 0.000238
510 0.000207
511 0.000162
512 0.000093
513 0.000042
514 -0.000004
515 -0.000040
516 -0.000058
517 -0.000064
518 -0.000081
519 -0.000118
520 -0.000105
521 -0.000079
522 -0.000056
523 -0.000041
524 -0.000030
525 -0.000036
526 -0.000029
527 -0.000010
528 0.000009
529 0.000032
530 0.000046
531 0.000058
532 0.000080
533 0.000076
534 0.000081
535 0.000108
536 0.000116
537 0.000119
538 0.000137
539 0.000148
540 0.000176
541 0.000202
542 0.000189
543 0.000174
544 0.000173
545 0.000158
546 0.000141
547 0.000119
548 0.000082
549 0.000074
550 0.000068
551 0.000036
552 0.000004
553 -0.000017
554 -0.000032
555 -0.000020
556 -0.000021
557 -0.000033
558 -0.000038
559 -0.000036
560 -0.000007
561 0.000020
562 0.000035
563 0.000040
564 0.000058
565 0.000043
566 0.000025
567 0.000012
568 0.000004
569 -0.000009
570 -0.000014
571 -0.000027
572 -0.000036
573 -0.000011
574 0.000007
575 0.000045
576 0.000077
577 0.000086
578 0.000104
579 0.000101
580 0.000094
581 0.000110
582 0.000133
583 0.000125
584 0.000134
585 0.000137
586 0.000136
587 0.000116
588 0.000092
589 0.000068
590 0.000052
591 0.000042
592 0.000054
593 0.000075
594 0.000084
595 0.000108
596 0.000138
597 0.000170
598 0.000189
599 0.000209
600 0.000205
601 0.000205
602 0.000214
603 0.000205
604 0.000193
605 0.000206
606 0.000188
607 0.000160
608 0.000161
609 0.000137
610 0.000126
611 0.000107
612 0.000098
613 0.000093
614 0.000087
615 0.000065
616 0.000068
617 0.000067
618 0.000063
619 0.000065
620 0.000073
621 0.000087
622 0.000089
623 0.000109
624 0.000107
625 0.000079
626 0.000047
627 0.000026
628 0.000006
629 0.000008
630 0.000010
631 0.000021
632 0.000012
633 0.000000
634 0.000008
635 0.000032
636 0.000045
637 0.000051
638 0.000020
639 0.000014
640 0.000010
641 -0.000009
642 -0.000019
643 -0.000024
644 -0.000034
645 -0.000044
646 -0.000054
647 -0.000054
648 -0.000047
649 -0.000050
650 -0.000045
651 -0.000045
652 -0.000042
653 -0.000029
654 -0.000013
655 0.000019
656 0.000052
657 0.000079
658 0.000092
659 0.000087
660 0.000086
661 0.000093
662 0.000083
663 0.000075
664 0.000051
665 0.000042
666 0.000049
667 0.000044
668 0.000042
669 0.000038
670 0.000041
671 0.000053
672 0.000067
673 0.000074
674 0.000088
675 0.000078
676 0.000072
677 0.000054
678 0.000033
679 0.000017
680 0.000014
681 0.000018
682 0.000001
683 -0.000011
684 -0.000028
685 -0.000042
686 -0.000065
687 -0.000071
688 -0.000070
689 -0.000052
690 -0.000056
691 -0.000066
692 -0.000067
693 -0.000069
694 -0.000046
695 -0.000020
696 -0.000001
697 -0.000004
698 -0.000010
699 -0.000016
700 -0.000008
701 -0.000018
702 -0.000025
703 -0.000026
704 -0.000022
705 -0.000015
706 -0.000000
707 0.000011
708 0.000028
709 0.000029
710 0.000015
711 -0.000010
712 -0.000026
713 -0.000038
714 -0.000036
715 -0.000023
716 0.000002
717 0.000015
718 0.000022
719 0.000041
720 0.000056
721 0.000068
722 0.000089
723 0.000110
724 0.000126
725 0.000145
726 0.000161
727 0.000167
728 0.000159
729 0.000148
730 0.000124
731 0.000130
732 0.000127
733 0.000143
734 0.000145
735 0.000132
736 0.000108
737 0.000092
738 0.000073
739 0.000074
740 0.000075
741 0.000069
742 0.000058
743 0.000036
744 0.000000
745 -0.000031
746 -0.000055
747 -0.000076
748 -0.000086
749 -0.000100
750 -0.000098
751 -0.000104
752 -0.000113
753 -0.000110
754 -0.000102
755 -0.000103
756 -0.000100
757 -0.000093
758 -0.000080
759 -0.000066
760 -0.000045
761 -0.000052
762 -0.000053
763 -0.000059
764 -0.000059
765 -0.000059
766 -0.000047
767 -0.000050
768 -0.000042
769 -0.000044
770 -0.000049
771 -0.000051
772 -0.000055
773 -0.000047
774 -0.000029
775 -0.000020
776 -0.000015
777 -0.000008
778 -0.000016
779 -0.000016
780 -0.000033
781 -0.000056
782 -0.000060
783 -0.000048
784 -0.000031
785 -0.000019
786 -0.000012
787 -0.000000
788 -0.000002
789 -0.000011
790 -0.000016
791 -0.000003
792 0.000003
793 0.000002
794 0.000011
795 0.000018
796 0.000022
797 0.000040
798 0.000046
799 0.000052
800 0.000065
801 0.000074
802 0.000084
803 0.000072
804 0.000045
805 0.000026
806 0.000015
807 0.000001
808 0.000014
809 0.000018
