# i correlation
1 0.003292
2 0.003027
3 0.002803
4 0.002619
5 0.002434
6 0.002267
7 0.002141
8 0.002050
9 0.001966
10 0.001874
11 0.001787
12 0.001750
13 0.001684
14 0.001655
15 0.001641
16 0.001622
17 0.001619
18 0.001641
19 0.001640
20 0.001633
21 0.001598
22 0.001587
23 0.001553
24 0.001532
25 0.001493
26 0.001519
27 0.001499
28 0.001481
29 0.001483
30 0.001501
31 0.001508
32 0.001472
33 0.001440
34 0.001434
35 0.001422
36 0.001432
37 0.001426
38 0.001434
39 0.001443
40 0.001438
41 0.001440
42 0.001468
43 0.001522
44 0.001555
45 0.001576
46 0.001596
47 0.001557
48 0.001521
49 0.001479
50 0.001435
51 0.001356
52 0.001292
53 0.001261
54 0.001214
55 0.001190
56 0.001146
57 0.001093
58 0.001087
59 0.001097
60 0.001118
61 0.001170
62 0.001244
63 0.001295
64 0.001343
65 0.001363
66 0.001362
67 0.001359
68 0.001350
69 0.001342
70 0.001315
71 0.001320
72 0.001284
73 0.001264
74 0.001259
75 0.001270
76 0.001270
77 0.001276
78 0.001284
79 0.001330
80 0.001346
81 0.001386
82 0.001423
83 0.001470
84 0.001487
85 0.001503
86 0.001488
87 0.001482
88 0.001467
89 0.001493
90 0.001490
91 0.001473
92 0.001440
93 0.001404
94 0.001349
95 0.001304
96 0.001258
97 0.001227
98 0.001227
99 0.001231
100 0.001223
101 0.001213
102 0.001231
103 0.001230
104 0.001228
105 0.001268
106 0.001252
107 0.001258
108 0.001248
109 0.001268
110 0.001289
111 0.001287
112 0.001282
113 0.001272
114 0.001274
115 0.001288
116 0.001288
117 0.001292
118 0.001279
119 0.001277
120 0.001255
121 0.001202
122 0.001134
123 0.001072
124 0.001050
125 0.001041
126 0.001004
127 0.000996
128 0.000989
129 0.001034
130 0.001040
131 0.001036
132 0.001041
133 0.001032
134 0.001037
135 0.000992
136 0.000957
137 0.000921
138 0.000883
139 0.000845
140 0.000783
141 0.000750
142 0.000719
143 0.000701
144 0.000694
145 0.000700
146 0.000731
147 0.000761
148 0.000775
149 0.000815
150 0.000850
151 0.000910
152 0.000961
153 0.001020
154 0.001063
155 0.001092
156 0.001094
157 0.001084
158 0.001058
159 0.001042
160 0.001039
161 0.001044
162 0.001055
163 0.001043
164 0.001066
165 0.001078
166 0.001071
167 0.001066
168 0.001056
169 0.001030
170 0.001005
171 0.000974
172 0.000914
173 0.000910
174 0.000921
175 0.000942
176 0.000944
177 0.000983
178 0.001025
179 0.001057
180 0.001117
181 0.001140
182 0.001185
183 0.001224
184 0.001223
185 0.001206
186 0.001172
187 0.001130
188 0.001105
189 0.001051
190 0.000990
191 0.000954
192 0.000913
193 0.000896
194 0.000868
195 0.000842
196 0.000829
197 0.000840
198 0.000844
199 0.000850
200 0.000868
201 0.000886
202 0.000887
203 0.000896
204 0.000912
205 0.000920
206 0.000929
207 0.000940
208 0.000939
209 0.000940
210 0.000933
211 0.000900
212 0.000874
213 0.000864
214 0.000860
215 0.000852
216 0.000866
217 0.000909
218 0.000940
219 0.000957
220 0.000933
221 0.000925
222 0.000902
223 0.000883
224 0.000883
225 0.000858
226 0.000864
227 0.000879
228 0.000905
229 0.000924
230 0.000918
231 0.000899
232 0.000864
233 0.000818
234 0.000769
235 0.000720
236 0.000722
237 0.000693
238 0.000638
239 0.000614
240 0.000565
241 0.000521
242 0.000480
243 0.000455
244 0.000475
245 0.000478
246 0.000506
247 0.000531
248 0.000560
249 0.000599
250 0.000598
251 0.000606
252 0.000598
253 0.000590
254 0.000554
255 0.000489
256 0.000445
257 0.000405
258 0.000398
259 0.000410
260 0.000398
261 0.000417
262 0.000460
263 0.000491
264 0.000511
265 0.000538
266 0.000607
267 0.000683
268 0.000733
269 0.000786
270 0.000839
271 0.000874
272 0.000882
273 0.000865
274 0.000842
275 0.000805
276 0.000746
277 0.000681
278 0.000636
279 0.000580
280 0.000564
281 0.000546
282 0.000560
283 0.000557
284 0.000558
285 0.000555
286 0.000533
287 0.000503
288 0.000488
289 0.000531
290 0.000553
291 0.000528
292 0.000560
293 0.000591
294 0.000599
295 0.000607
296 0.000617
297 0.000624
298 0.000662
299 0.000669
300 0.000698
301 0.000684
302 0.000691
303 0.000678
304 0.000643
305 0.000577
306 0.000553
307 0.000553
308 0.000529
309 0.000497
310 0.000465
311 0.000475
312 0.000506
313 0.000531
314 0.000570
315 0.000600
316 0.000625
317 0.000634
318 0.000642
319 0.000638
320 0.000647
321 0.000624
322 0.000607
323 0.000572
324 0.000552
325 0.000523
326 0.000520
327 0.000510
328 0.000516
329 0.000542
330 0.000557
331 0.000543
332 0.000535
333 0.000566
334 0.000591
335 0.000629
336 0.000652
337 0.000676
338 0.000726
339 0.000744
340 0.000729
341 0.000709
342 0.000687
343 0.000675
344 0.000673
345 0.000682
346 0.000704
347 0.000705
348 0.000721
349 0.000712
350 0.000712
351 0.000712
352 0.000671
353 0.000672
354 0.000624
355 0.000590
356 0.000575
357 0.000555
358 0.000528
359 0.000494
360 0.000473
361 0.000459
362 0.000443
363 0.000443
364 0.000441
365 0.000449
366 0.000434
367 0.000445
368 0.000469
369 0.000505
370 0.000513
371 0.000532
372 0.000560
373 0.000572
374 0.000583
375 0.000596
376 0.000603
377 0.000613
378 0.000607
379 0.000625
380 0.000633
381 0.000658
382 0.000690
383 0.000735
384 0.000765
385 0.000775
386 0.000783
387 0.000804
388 0.000806
389 0.000790
390 0.000750
391 0.000728
392 0.000697
393 0.000679
394 0.000650
395 0.000641
396 0.000640
397 0.000609
398 0.000626
399 0.000637
400 0.000648
401 0.000668
402 0.000680
403 0.000696
404 0.000686
405 0.000681
406 0.000662
407 0.000649
408 0.000633
409 0.000631
410 0.000641
411 0.000645
412 0.000637
413 0.000627
414 0.000626
415 0.000639
416 0.000631
417 0.000626
418 0.000646
419 0.000659
420 0.000648
421 0.000628
422 0.000636
423 0.000644
424 0.000660
425 0.000674
426 0.000673
427 0.000691
428 0.000698
429 0.000714
430 0.000723
431 0.000729
432 0.000742
433 0.000732
434 0.000717
435 0.000719
436 0.000723
437 0.000691
438 0.000641
439 0.000604
440 0.000557
441 0.000507
442 0.000462
443 0.000435
444 0.000420
445 0.000405
446 0.000404
447 0.000410
448 0.000441
449 0.000477
450 0.000509
451 0.000546
452 0.000577
453 0.000619
454 0.000655
455 0.000675
456 0.000674
457 0.000658
458 0.000671
459 0.000672
460 0.000677
461 0.000644
462 0.000609
463 0.000579
464 0.000539
465 0.000491
466 0.000448
467 0.000406
468 0.000391
469 0.000389
470 0.000396
471 0.000366
472 0.000356
473 0.000361
474 0.000374
475 0.000378
476 0.000357
477 0.000373
478 0.000415
479 0.000433
480 0.000455
481 0.000475
482 0.000501
483 0.000489
484 0.000468
485 0.000425
486 0.000399
487 0.000376
488 0.000355
489 0.000369
490 0.000393
491 0.000405
492 0.000424
493 0.000428
494 0.000445
495 0.000450
496 0.000444
497 0.000475
498 0.000505
499 0.000534
500 0.000574
501 0.000611
502 0.000625
503 0.000616
504 0.000601
505 0.000583
506 0.000577
507 0.000556
508 0.000530
509 0.000480
510 0.000438
511 0.000391
512 0.000346
513 0.000336
514 0.000320
515 0.000319
516 0.000343
517 0.000361
518 0.000387
519 0.000379
520 0.000406
521 0.000438
522 0.000454
523 0.000461
524 0.000466
525 0.000479
526 0.000464
527 0.000432
528 0.000436
529 0.000430
530 0.000414
531 0.000387
532 0.000387
533 0.000395
534 0.000416
535 0.000420
536 0.000437
537 0.000443
538 0.000437
539 0.000433
540 0.000414
541 0.000408
542 0.000393
543 0.000407
544 0.000420
545 0.000425
546 0.000402
547 0.000389
548 0.000387
549 0.000372
550 0.000343
551 0.000335
552 0.000342
553 0.000359
554 0.000368
555 0.000383
556 0.000385
557 0.000375
558 0.000341
559 0.000327
560 0.000330
561 0.000326
562 0.000339
563 0.000361
564 0.000409
565 0.000461
566 0.000502
567 0.000527
568 0.000523
569 0.000513
570 0.000501
571 0.000496
572 0.000477
573 0.000459
574 0.000449
575 0.000433
576 0.000402
577 0.000371
578 0.000361
579 0.000357
580 0.000350
581 0.000357
582 0.000377
583 0.000383
584 0.000410
585 0.000430
586 0.000436
587 0.000434
588 0.000406
589 0.000399
590 0.000379
591 0.000359
592 0.000359
593 0.000347
594 0.000340
595 0.000319
596 0.000303
597 0.000292
598 0.000277
599 0.000276
600 0.000286
601 0.000276
602 0.000263
603 0.000260
604 0.000253
605 0.000253
606 0.000255
607 0.000272
608 0.000276
609 0.000290
610 0.000318
611 0.000339
612 0.000356
613 0.000360
614 0.000360
615 0.000369
616 0.000372
617 0.000370
618 0.000371
619 0.000362
620 0.000355
621 0.000339
622 0.000320
623 0.000306
624 0.000298
625 0.000281
626 0.000259
627 0.000250
628 0.000250
629 0.000235
630 0.000214
631 0.000199
632 0.000191
633 0.000180
634 0.000166
635 0.000163
636 0.000179
637 0.000193
638 0.000191
639 0.000184
640 0.000192
641 0.000193
642 0.000192
643 0.000204
644 0.000210
645 0.000225
646 0.000247
647 0.000270
648 0.000281
649 0.000292
650 0.000272
651 0.000256
652 0.000249
653 0.000252
654 0.000269
655 0.000290
656 0.000303
657 0.000317
658 0.000336
659 0.000353
660 0.000352
661 0.000344
662 0.000344
663 0.000353
664 0.000351
665 0.000340
666 0.000325
667 0.000323
668 0.000306
669 0.000307
670 0.000300
671 0.000330
672 0.000355
673 0.000362
674 0.000353
675 0.000364
676 0.000369
677 0.000379
678 0.000362
679 0.000350
680 0.000341
681 0.000340
682 0.000332
683 0.000342
684 0.000345
685 0.000358
686 0.000366
687 0.000367
688 0.000364
689 0.000367
690 0.000357
691 0.000359
692 0.000355
693 0.000336
694 0.000314
695 0.000296
696 0.000272
697 0.000252
698 0.000257
699 0.000258
700 0.000241
701 0.000246
702 0.000264
703 0.000272
704 0.000263
705 0.000254
706 0.000228
707 0.000208
708 0.000187
709 0.000168
710 0.000176
711 0.000177
712 0.000160
713 0.000137
714 0.000119
715 0.000092
716 0.000084
717 0.000070
718 0.000076
719 0.000094
720 0.000092
721 0.000094
722 0.000108
723 0.000122
724 0.000115
725 0.000121
726 0.000129
727 0.000136
728 0.000150
729 0.000160
730 0.000175
731 0.000195
732 0.000200
733 0.000210
734 0.000212
735 0.000209
736 0.000207
737 0.000210
738 0.000199
739 0.000200
740 0.000197
741 0.000188
742 0.000179
743 0.000161
744 0.000152
745 0.000144
746 0.000145
747 0.000138
748 0.000149
749 0.000160
750 0.000163
751 0.000166
752 0.000168
753 0.000177
754 0.000187
755 0.000186
756 0.000185
757 0.000172
758 0.000147
759 0.000122
760 0.000115
761 0.000106
762 0.000123
763 0.000130
764 0.000139
765 0.000150
766 0.000163
767 0.000164
768 0.000159
769 0.000156
770 0.000151
771 0.000145
772 0.000151
773 0.000137
774 0.000139
775 0.000149
776 0.000144
777 0.000139
778 0.000138
779 0.000134
780 0.000131
781 0.000129
782 0.000127
783 0.000123
784 0.000113
785 0.000101
786 0.000084
787 0.000074
788 0.000055
789 0.000028
790 0.000018
791 0.000018
792 0.000029
793 0.000041
794 0.000051
795 0.000052
796 0.000052
797 0.000051
798 0.000046
799 0.000043
800 0.000047
801 0.000054
802 0.000060
803 0.000066
804 0.000066
805 0.000046
806 0.000036
807 0.000025
808 0.000022
809 0.000010
