# i correlation
1 0.002994
2 0.002707
3 0.002429
4 0.002201
5 0.002010
6 0.001837
7 0.001672
8 0.001496
9 0.001336
10 0.001189
11 0.001116
12 0.001076
13 0.001089
14 0.001103
15 0.001129
16 0.001169
17 0.001221
18 0.001245
19 0.001293
20 0.001352
21 0.001405
22 0.001449
23 0.001485
24 0.001503
25 0.001496
26 0.001489
27 0.001468
28 0.001457
29 0.001425
30 0.001368
31 0.001307
32 0.001292
33 0.001205
34 0.001131
35 0.001088
36 0.001029
37 0.000977
38 0.000905
39 0.000868
40 0.000864
41 0.000846
42 0.000843
43 0.000878
44 0.000900
45 0.000947
46 0.000957
47 0.001007
48 0.001070
49 0.001151
50 0.001204
51 0.001241
52 0.001287
53 0.001293
54 0.001318
55 0.001334
56 0.001309
57 0.001279
58 0.001230
59 0.001195
60 0.001164
61 0.001145
62 0.001091
63 0.001050
64 0.001054
65 0.001055
66 0.001080
67 0.001104
68 0.001122
69 0.001100
70 0.001070
71 0.001029
72 0.001005
73 0.000951
74 0.000895
75 0.000870
76 0.000833
77 0.000800
78 0.000764
79 0.000759
80 0.000749
81 0.000783
82 0.000805
83 0.000843
84 0.000869
85 0.000900
86 0.000938
87 0.000999
88 0.001056
89 0.001105
90 0.001149
91 0.001145
92 0.001133
93 0.001078
94 0.001050
95 0.001020
96 0.000979
97 0.000942
98 0.000918
99 0.000866
100 0.000810
101 0.000760
102 0.000707
103 0.000683
104 0.000668
105 0.000656
106 0.000660
107 0.000670
108 0.000685
109 0.000709
110 0.000752
111 0.000776
112 0.000837
113 0.000901
114 0.000955
115 0.001003
116 0.001029
117 0.001044
118 0.001066
119 0.001101
120 0.001101
121 0.001066
122 0.001029
123 0.001020
124 0.000986
125 0.000939
126 0.000886
127 0.000830
128 0.000722
129 0.000650
130 0.000640
131 0.000654
132 0.000658
133 0.000659
134 0.000659
135 0.000682
136 0.000698
137 0.000726
138 0.000732
139 0.000777
140 0.000839
141 0.000856
142 0.000934
143 0.000995
144 0.001052
145 0.001087
146 0.001107
147 0.001121
148 0.001103
149 0.001079
150 0.001021
151 0.000989
152 0.000962
153 0.000933
154 0.000904
155 0.000879
156 0.000843
157 0.000797
158 0.000784
159 0.000805
160 0.000783
161 0.000710
162 0.000679
163 0.000661
164 0.000662
165 0.000650
166 0.000682
167 0.000726
168 0.000767
169 0.000787
170 0.000780
171 0.000812
172 0.000840
173 0.000846
174 0.000861
175 0.000876
176 0.000882
177 0.000892
178 0.000876
179 0.000876
180 0.000859
181 0.000821
182 0.000792
183 0.000764
184 0.000749
185 0.000759
186 0.000748
187 0.000744
188 0.000762
189 0.000781
190 0.000779
191 0.000814
192 0.000841
193 0.000816
194 0.000804
195 0.000780
196 0.000774
197 0.000759
198 0.000756
199 0.000767
200 0.000769
201 0.000771
202 0.000769
203 0.000801
204 0.000812
205 0.000789
206 0.000793
207 0.000780
208 0.000790
209 0.000800
210 0.000801
211 0.000807
212 0.000812
213 0.000806
214 0.000789
215 0.000751
216 0.000726
217 0.000699
218 0.000675
219 0.000640
220 0.000620
221 0.000602
222 0.000575
223 0.000566
224 0.000585
225 0.000606
226 0.000639
227 0.000663
228 0.000669
229 0.000659
230 0.000640
231 0.000636
232 0.000635
233 0.000624
234 0.000624
235 0.000626
236 0.000609
237 0.000610
238 0.000614
239 0.000627
240 0.000630
241 0.000653
242 0.000653
243 0.000664
244 0.000654
245 0.000644
246 0.000637
247 0.000627
248 0.000622
249 0.000602
250 0.000579
251 0.000509
252 0.000424
253 0.000366
254 0.000316
255 0.000288
256 0.000282
257 0.000288
258 0.000325
259 0.000337
260 0.000367
261 0.000409
262 0.000442
263 0.000500
264 0.000565
265 0.000618
266 0.000638
267 0.000681
268 0.000690
269 0.000696
270 0.000708
271 0.000706
272 0.000699
273 0.000676
274 0.000651
275 0.000615
276 0.000574
277 0.000532
278 0.000530
279 0.000535
280 0.000515
281 0.000490
282 0.000462
283 0.000421
284 0.000379
285 0.000387
286 0.000411
287 0.000449
288 0.000463
289 0.000472
290 0.000505
291 0.000517
292 0.000542
293 0.000576
294 0.000603
295 0.000630
296 0.000646
297 0.000663
298 0.000725
299 0.000773
300 0.000786
301 0.000771
302 0.000760
303 0.000727
304 0.000670
305 0.000608
306 0.000513
307 0.000431
308 0.000361
309 0.000314
310 0.000285
311 0.000275
312 0.000269
313 0.000250
314 0.000263
315 0.000325
316 0.000396
317 0.000451
318 0.000519
319 0.000574
320 0.000594
321 0.000594
322 0.000624
323 0.000623
324 0.000625
325 0.000621
326 0.000633
327 0.000626
328 0.000598
329 0.000554
330 0.000530
331 0.000527
332 0.000515
333 0.000528
334 0.000541
335 0.000558
336 0.000536
337 0.000540
338 0.000515
339 0.000515
340 0.000499
341 0.000465
342 0.000436
343 0.000429
344 0.000401
345 0.000374
346 0.000359
347 0.000377
348 0.000425
349 0.000444
350 0.000480
351 0.000517
352 0.000535
353 0.000546
354 0.000567
355 0.000601
356 0.000620
357 0.000664
358 0.000712
359 0.000751
360 0.000775
361 0.000774
362 0.000790
363 0.000791
364 0.000775
365 0.000751
366 0.000739
367 0.000711
368 0.000691
369 0.000662
370 0.000639
371 0.000625
372 0.000592
373 0.000570
374 0.000535
375 0.000529
376 0.000539
377 0.000574
378 0.000576
379 0.000593
380 0.000624
381 0.000653
382 0.000683
383 0.000720
384 0.000742
385 0.000756
386 0.000766
387 0.000756
388 0.000749
389 0.000725
390 0.000729
391 0.000707
392 0.000686
393 0.000675
394 0.000654
395 0.000633
396 0.000583
397 0.000537
398 0.000497
399 0.000464
400 0.000459
401 0.000420
402 0.000379
403 0.000363
404 0.000345
405 0.000351
406 0.000365
407 0.000399
408 0.000412
409 0.000407
410 0.000385
411 0.000356
412 0.000355
413 0.000366
414 0.000406
415 0.000431
416 0.000467
417 0.000498
418 0.000527
419 0.000521
420 0.000526
421 0.000532
422 0.000549
423 0.000552
424 0.000541
425 0.000541
426 0.000498
427 0.000460
428 0.000421
429 0.000412
430 0.000414
431 0.000395
432 0.000390
433 0.000383
434 0.000391
435 0.000415
436 0.000406
437 0.000389
438 0.000391
439 0.000388
440 0.000383
441 0.000379
442 0.000388
443 0.000377
444 0.000372
445 0.000372
446 0.000373
447 0.000386
448 0.000378
449 0.000408
450 0.000422
451 0.000426
452 0.000440
453 0.000428
454 0.000409
455 0.000377
456 0.000340
457 0.000328
458 0.000331
459 0.000306
460 0.000270
461 0.000247
462 0.000216
463 0.000184
464 0.000171
465 0.000176
466 0.000185
467 0.000203
468 0.000203
469 0.000207
470 0.000231
471 0.000259
472 0.000299
473 0.000309
474 0.000350
475 0.000367
476 0.000349
477 0.000319
478 0.000290
479 0.000276
480 0.000254
481 0.000243
482 0.000232
483 0.000218
484 0.000201
485 0.000199
486 0.000201
487 0.000202
488 0.000193
489 0.000181
490 0.000203
491 0.000206
492 0.000195
493 0.000192
494 0.000192
495 0.000197
496 0.000218
497 0.000236
498 0.000236
499 0.000220
500 0.000190
501 0.000171
502 0.000168
503 0.000179
504 0.000190
505 0.000179
506 0.000204
507 0.000234
508 0.000242
509 0.000232
510 0.000222
511 0.000208
512 0.000201
513 0.000228
514 0.000237
515 0.000234
516 0.000206
517 0.000193
518 0.000165
519 0.000175
520 0.000167
521 0.000170
522 0.000173
523 0.000170
524 0.000165
525 0.000159
526 0.000168
527 0.000169
528 0.000147
529 0.000128
530 0.000115
531 0.000102
532 0.000080
533 0.000064
534 0.000028
535 0.000022
536 0.000030
537 0.000049
538 0.000073
539 0.000107
540 0.000148
541 0.000156
542 0.000166
543 0.000187
544 0.000195
545 0.000202
546 0.000189
547 0.000191
548 0.000181
549 0.000186
550 0.000179
551 0.000175
552 0.000159
553 0.000154
554 0.000137
555 0.000119
556 0.000096
557 0.000077
558 0.000080
559 0.000081
560 0.000089
561 0.000103
562 0.000124
563 0.000133
564 0.000152
565 0.000173
566 0.000197
567 0.000225
568 0.000242
569 0.000260
570 0.000252
571 0.000245
572 0.000245
573 0.000224
574 0.000219
575 0.000220
576 0.000219
577 0.000199
578 0.000168
579 0.000135
580 0.000108
581 0.000093
582 0.000081
583 0.000064
584 0.000057
585 0.000049
586 0.000019
587 0.000002
588 0.000003
589 0.000035
590 0.000066
591 0.000087
592 0.000100
593 0.000125
594 0.000148
595 0.000155
596 0.000159
597 0.000169
598 0.000189
599 0.000198
600 0.000188
601 0.000175
602 0.000143
603 0.000095
604 0.000066
605 0.000037
606 0.000024
607 0.000014
608 0.000004
609 -0.000006
610 -0.000018
611 -0.000018
612 -0.000020
613 -0.000016
614 0.000001
615 0.000003
616 0.000005
617 0.000024
618 0.000043
619 0.000067
620 0.000102
621 0.000133
622 0.000145
623 0.000131
624 0.000097
625 0.000060
626 0.000030
627 0.000014
628 -0.000025
629 -0.000064
630 -0.000091
631 -0.000132
632 -0.000159
633 -0.000160
634 -0.000141
635 -0.000137
636 -0.000134
637 -0.000144
638 -0.000128
639 -0.000115
640 -0.000100
641 -0.000090
642 -0.000083
643 -0.000069
644 -0.000061
645 -0.000067
646 -0.000070
647 -0.000079
648 -0.000076
649 -0.000060
650 -0.000035
651 -0.000033
652 -0.000054
653 -0.000068
654 -0.000088
655 -0.000097
656 -0.000097
657 -0.000091
658 -0.000083
659 -0.000075
660 -0.000070
661 -0.000066
662 -0.000053
663 -0.000035
664 -0.000019
665 -0.000004
666 0.000011
667 0.000020
668 0.000010
669 -0.000006
670 -0.000009
671 -0.000021
672 -0.000045
673 -0.000073
674 -0.000096
675 -0.000104
676 -0.000129
677 -0.000159
678 -0.000175
679 -0.000184
680 -0.000194
681 -0.000189
682 -0.000173
683 -0.000153
684 -0.000137
685 -0.000104
686 -0.000064
687 -0.000032
688 -0.000001
689 0.000005
690 0.000011
691 0.000015
692 0.000009
693 0.000006
694 -0.000010
695 -0.000010
696 -0.000016
697 -0.000027
698 -0.000031
699 -0.000012
700 -0.000004
701 -0.000014
702 -0.000022
703 -0.000025
704 -0.000015
705 -0.000027
706 -0.000034
707 -0.000040
708 -0.000048
709 -0.000040
710 -0.000037
711 -0.000031
712 -0.000006
713 0.000009
714 0.000036
715 0.000067
716 0.000106
717 0.000131
718 0.000150
719 0.000170
720 0.000196
721 0.000193
722 0.000181
723 0.000174
724 0.000163
725 0.000168
726 0.000156
727 0.000139
728 0.000125
729 0.000093
730 0.000078
731 0.000067
732 0.000068
733 0.000075
734 0.000080
735 0.000076
736 0.000071
737 0.000069
738 0.000083
739 0.000110
740 0.000122
741 0.000132
742 0.000131
743 0.000129
744 0.000131
745 0.000122
746 0.000118
747 0.000112
748 0.000108
749 0.000095
750 0.000072
751 0.000060
752 0.000073
753 0.000082
754 0.000108
755 0.000122
756 0.000129
757 0.000151
758 0.000165
759 0.000177
760 0.000184
761 0.000188
762 0.000180
763 0.000165
764 0.000148
765 0.000132
766 0.000118
767 0.000114
768 0.000117
769 0.000116
770 0.000116
771 0.000106
772 0.000095
773 0.000096
774 0.000105
775 0.000119
776 0.000131
777 0.000117
778 0.000093
779 0.000067
780 0.000063
781 0.000071
782 0.000088
783 0.000103
784 0.000118
785 0.000125
786 0.000139
787 0.000159
788 0.000164
789 0.000170
790 0.000163
791 0.000153
792 0.000140
793 0.000122
794 0.000113
795 0.000105
796 0.000085
797 0.000062
798 0.000040
799 0.000015
800 0.000011
801 0.000015
802 0.000032
803 0.000043
804 0.000044
805 0.000038
806 0.000034
807 0.000046
808 0.000065
809 0.000084
