# i correlation
1 0.003353
2 0.003084
3 0.002852
4 0.002650
5 0.002486
6 0.002329
7 0.002205
8 0.002110
9 0.002059
10 0.001978
11 0.001940
12 0.001883
13 0.001815
14 0.001783
15 0.001771
16 0.001769
17 0.001756
18 0.001736
19 0.001718
20 0.001689
21 0.001645
22 0.001610
23 0.001583
24 0.001551
25 0.001504
26 0.001450
27 0.001399
28 0.001403
29 0.001414
30 0.001432
31 0.001441
32 0.001451
33 0.001466
34 0.001491
35 0.001487
36 0.001492
37 0.001451
38 0.001433
39 0.001428
40 0.001437
41 0.001440
42 0.001396
43 0.001380
44 0.001357
45 0.001334
46 0.001319
47 0.001322
48 0.001303
49 0.001301
50 0.001333
51 0.001370
52 0.001407
53 0.001431
54 0.001475
55 0.001512
56 0.001544
57 0.001572
58 0.001619
59 0.001646
60 0.001663
61 0.001648
62 0.001605
63 0.001574
64 0.001513
65 0.001449
66 0.001405
67 0.001372
68 0.001349
69 0.001332
70 0.001302
71 0.001277
72 0.001284
73 0.001267
74 0.001239
75 0.001204
76 0.001132
77 0.001097
78 0.001047
79 0.001005
80 0.000978
81 0.000926
82 0.000905
83 0.000892
84 0.000873
85 0.000836
86 0.000812
87 0.000819
88 0.000817
89 0.000818
90 0.000830
91 0.000833
92 0.000862
93 0.000868
94 0.000864
95 0.000866
96 0.000897
97 0.000916
98 0.000907
99 0.000910
100 0.000932
101 0.000972
102 0.000981
103 0.001011
104 0.001029
105 0.001048
106 0.001036
107 0.001030
108 0.001066
109 0.001064
110 0.001059
111 0.001045
112 0.001086
113 0.001095
114 0.001092
115 0.001130
116 0.001144
117 0.001148
118 0.001139
119 0.001140
120 0.001113
121 0.001056
122 0.001003
123 0.000958
124 0.000933
125 0.000938
126 0.000967
127 0.001017
128 0.001054
129 0.001063
130 0.001066
131 0.001033
132 0.000982
133 0.000939
134 0.000912
135 0.000862
136 0.000805
137 0.000732
138 0.000673
139 0.000616
140 0.000583
141 0.000575
142 0.000562
143 0.000568
144 0.000558
145 0.000542
146 0.000550
147 0.000559
148 0.000601
149 0.000631
150 0.000658
151 0.000687
152 0.000688
153 0.000691
154 0.000653
155 0.000634
156 0.000595
157 0.000563
158 0.000548
159 0.000559
160 0.000570
161 0.000570
162 0.000600
163 0.000627
164 0.000662
165 0.000682
166 0.000707
167 0.000741
168 0.000763
169 0.000797
170 0.000854
171 0.000854
172 0.000845
173 0.000805
174 0.000785
175 0.000791
176 0.000788
177 0.000775
178 0.000768
179 0.000766
180 0.000751
181 0.000759
182 0.000765
183 0.000799
184 0.000854
185 0.000908
186 0.000932
187 0.000959
188 0.000981
189 0.001000
190 0.001007
191 0.000987
192 0.000952
193 0.000919
194 0.000917
195 0.000904
196 0.000868
197 0.000815
198 0.000774
199 0.000756
200 0.000761
201 0.000756
202 0.000778
203 0.000775
204 0.000776
205 0.000803
206 0.000804
207 0.000782
208 0.000759
209 0.000737
210 0.000703
211 0.000675
212 0.000638
213 0.000595
214 0.000560
215 0.000534
216 0.000534
217 0.000543
218 0.000558
219 0.000576
220 0.000617
221 0.000656
222 0.000695
223 0.000743
224 0.000789
225 0.000822
226 0.000836
227 0.000855
228 0.000853
229 0.000827
230 0.000815
231 0.000813
232 0.000802
233 0.000782
234 0.000751
235 0.000742
236 0.000724
237 0.000715
238 0.000713
239 0.000693
240 0.000671
241 0.000626
242 0.000621
243 0.000604
244 0.000607
245 0.000603
246 0.000599
247 0.000598
248 0.000586
249 0.000583
250 0.000553
251 0.000523
252 0.000506
253 0.000525
254 0.000564
255 0.000570
256 0.000582
257 0.000600
258 0.000629
259 0.000642
260 0.000639
261 0.000643
262 0.000644
263 0.000684
264 0.000675
265 0.000645
266 0.000596
267 0.000558
268 0.000547
269 0.000515
270 0.000475
271 0.000434
272 0.000430
273 0.000414
274 0.000402
275 0.000399
276 0.000360
277 0.000378
278 0.000417
279 0.000434
280 0.000428
281 0.000420
282 0.000436
283 0.000465
284 0.000474
285 0.000475
286 0.000499
287 0.000528
288 0.000517
289 0.000508
290 0.000492
291 0.000483
292 0.000496
293 0.000500
294 0.000547
295 0.000589
296 0.000620
297 0.000673
298 0.000707
299 0.000738
300 0.000747
301 0.000737
302 0.000725
303 0.000714
304 0.000721
305 0.000672
306 0.000630
307 0.000569
308 0.000497
309 0.000425
310 0.000375
311 0.000343
312 0.000314
313 0.000309
314 0.000315
315 0.000340
316 0.000358
317 0.000400
318 0.000431
319 0.000453
320 0.000461
321 0.000469
322 0.000479
323 0.000486
324 0.000496
325 0.000494
326 0.000478
327 0.000471
328 0.000467
329 0.000442
330 0.000414
331 0.000376
332 0.000358
333 0.000346
334 0.000313
335 0.000314
336 0.000327
337 0.000321
338 0.000324
339 0.000306
340 0.000302
341 0.000295
342 0.000265
343 0.000226
344 0.000183
345 0.000169
346 0.000162
347 0.000187
348 0.000174
349 0.000164
350 0.000187
351 0.000227
352 0.000273
353 0.000324
354 0.000365
355 0.000411
356 0.000440
357 0.000477
358 0.000508
359 0.000542
360 0.000553
361 0.000545
362 0.000523
363 0.000492
364 0.000466
365 0.000423
366 0.000397
367 0.000354
368 0.000317
369 0.000307
370 0.000287
371 0.000272
372 0.000251
373 0.000236
374 0.000237
375 0.000259
376 0.000272
377 0.000290
378 0.000298
379 0.000322
380 0.000331
381 0.000330
382 0.000282
383 0.000269
384 0.000273
385 0.000257
386 0.000248
387 0.000243
388 0.000237
389 0.000225
390 0.000231
391 0.000221
392 0.000196
393 0.000185
394 0.000187
395 0.000208
396 0.000230
397 0.000260
398 0.000280
399 0.000297
400 0.000315
401 0.000321
402 0.000360
403 0.000394
404 0.000427
405 0.000452
406 0.000461
407 0.000484
408 0.000498
409 0.000501
410 0.000519
411 0.000547
412 0.000575
413 0.000601
414 0.000646
415 0.000678
416 0.000704
417 0.000711
418 0.000698
419 0.000690
420 0.000698
421 0.000695
422 0.000688
423 0.000695
424 0.000692
425 0.000683
426 0.000672
427 0.000671
428 0.000652
429 0.000655
430 0.000655
431 0.000644
432 0.000649
433 0.000648
434 0.000652
435 0.000624
436 0.000583
437 0.000553
438 0.000517
439 0.000468
440 0.000440
441 0.000412
442 0.000396
443 0.000422
444 0.000427
445 0.000405
446 0.000369
447 0.000372
448 0.000371
449 0.000375
450 0.000371
451 0.000349
452 0.000324
453 0.000320
454 0.000335
455 0.000349
456 0.000377
457 0.000398
458 0.000432
459 0.000490
460 0.000500
461 0.000493
462 0.000498
463 0.000500
464 0.000500
465 0.000506
466 0.000519
467 0.000545
468 0.000570
469 0.000564
470 0.000572
471 0.000578
472 0.000575
473 0.000567
474 0.000562
475 0.000544
476 0.000511
477 0.000472
478 0.000448
479 0.000442
480 0.000434
481 0.000458
482 0.000472
483 0.000499
484 0.000525
485 0.000526
486 0.000505
487 0.000511
488 0.000523
489 0.000547
490 0.000582
491 0.000588
492 0.000560
493 0.000540
494 0.000530
495 0.000502
496 0.000453
497 0.000382
498 0.000305
499 0.000249
500 0.000206
501 0.000176
502 0.000172
503 0.000189
504 0.000198
505 0.000196
506 0.000213
507 0.000224
508 0.000222
509 0.000200
510 0.000180
511 0.000153
512 0.000151
513 0.000146
514 0.000132
515 0.000143
516 0.000144
517 0.000179
518 0.000187
519 0.000218
520 0.000228
521 0.000230
522 0.000254
523 0.000267
524 0.000307
525 0.000337
526 0.000365
527 0.000391
528 0.000407
529 0.000387
530 0.000377
531 0.000384
532 0.000376
533 0.000369
534 0.000354
535 0.000335
536 0.000323
537 0.000300
538 0.000266
539 0.000246
540 0.000219
541 0.000210
542 0.000211
543 0.000216
544 0.000220
545 0.000223
546 0.000231
547 0.000237
548 0.000256
549 0.000264
550 0.000268
551 0.000265
552 0.000257
553 0.000252
554 0.000228
555 0.000228
556 0.000229
557 0.000220
558 0.000213
559 0.000197
560 0.000187
561 0.000179
562 0.000177
563 0.000184
564 0.000198
565 0.000190
566 0.000167
567 0.000157
568 0.000132
569 0.000100
570 0.000058
571 0.000035
572 0.000018
573 0.000004
574 0.000007
575 0.000027
576 0.000032
577 0.000048
578 0.000070
579 0.000084
580 0.000096
581 0.000102
582 0.000124
583 0.000142
584 0.000167
585 0.000181
586 0.000212
587 0.000241
588 0.000230
589 0.000241
590 0.000242
591 0.000251
592 0.000266
593 0.000270
594 0.000261
595 0.000245
596 0.000238
597 0.000221
598 0.000214
599 0.000216
600 0.000224
601 0.000207
602 0.000214
603 0.000211
604 0.000194
605 0.000179
606 0.000159
607 0.000137
608 0.000141
609 0.000149
610 0.000173
611 0.000191
612 0.000185
613 0.000182
614 0.000182
615 0.000181
616 0.000166
617 0.000148
618 0.000148
619 0.000162
620 0.000174
621 0.000192
622 0.000205
623 0.000219
624 0.000225
625 0.000233
626 0.000221
627 0.000198
628 0.000172
629 0.000158
630 0.000136
631 0.000110
632 0.000110
633 0.000118
634 0.000139
635 0.000141
636 0.000125
637 0.000135
638 0.000157
639 0.000170
640 0.000179
641 0.000171
642 0.000173
643 0.000188
644 0.000220
645 0.000230
646 0.000230
647 0.000233
648 0.000220
649 0.000230
650 0.000243
651 0.000246
652 0.000259
653 0.000278
654 0.000303
655 0.000323
656 0.000320
657 0.000307
658 0.000307
659 0.000296
660 0.000276
661 0.000268
662 0.000262
663 0.000254
664 0.000244
665 0.000240
666 0.000231
667 0.000230
668 0.000221
669 0.000207
670 0.000199
671 0.000190
672 0.000172
673 0.000172
674 0.000168
675 0.000173
676 0.000176
677 0.000185
678 0.000202
679 0.000210
680 0.000224
681 0.000234
682 0.000240
683 0.000252
684 0.000263
685 0.000279
686 0.000277
687 0.000283
688 0.000273
689 0.000268
690 0.000262
691 0.000245
692 0.000236
693 0.000220
694 0.000221
695 0.000222
696 0.000211
697 0.000212
698 0.000217
699 0.000214
700 0.000191
701 0.000188
702 0.000176
703 0.000171
704 0.000160
705 0.000154
706 0.000162
707 0.000163
708 0.000154
709 0.000154
710 0.000153
711 0.000152
712 0.000166
713 0.000173
714 0.000185
715 0.000195
716 0.000198
717 0.000198
718 0.000208
719 0.000207
720 0.000198
721 0.000197
722 0.000195
723 0.000172
724 0.000148
725 0.000129
726 0.000120
727 0.000136
728 0.000149
729 0.000157
730 0.000172
731 0.000188
732 0.000193
733 0.000195
734 0.000192
735 0.000181
736 0.000176
737 0.000181
738 0.000199
739 0.000198
740 0.000196
741 0.000184
742 0.000174
743 0.000152
744 0.000146
745 0.000141
746 0.000135
747 0.000143
748 0.000148
749 0.000153
750 0.000164
751 0.000157
752 0.000149
753 0.000145
754 0.000136
755 0.000124
756 0.000107
757 0.000095
758 0.000081
759 0.000076
760 0.000061
761 0.000061
762 0.000079
763 0.000093
764 0.000091
765 0.000093
766 0.000094
767 0.000094
768 0.000090
769 0.000074
770 0.000069
771 0.000049
772 0.000040
773 0.000036
774 0.000026
775 0.000013
776 -0.000002
777 -0.000022
778 -0.000034
779 -0.000048
780 -0.000053
781 -0.000054
782 -0.000056
783 -0.000050
784 -0.000059
785 -0.000049
786 -0.000048
787 -0.000045
788 -0.000050
789 -0.000062
790 -0.000070
791 -0.000071
792 -0.000072
793 -0.000075
794 -0.000079
795 -0.000080
796 -0.000090
797 -0.000113
798 -0.000128
799 -0.000149
800 -0.000168
801 -0.000188
802 -0.000204
803 -0.000215
804 -0.000220
805 -0.000228
806 -0.000230
807 -0.000231
808 -0.000243
809 -0.000250
