# i correlation
1 0.003535
2 0.003269
3 0.003026
4 0.002837
5 0.002722
6 0.002593
7 0.002482
8 0.002386
9 0.002253
10 0.002158
11 0.002082
12 0.001996
13 0.001914
14 0.001827
15 0.001719
16 0.001633
17 0.001586
18 0.001545
19 0.001531
20 0.001529
21 0.001494
22 0.001473
23 0.001432
24 0.001414
25 0.001393
26 0.001349
27 0.001327
28 0.001325
29 0.001306
30 0.001313
31 0.001331
32 0.001354
33 0.001384
34 0.001380
35 0.001391
36 0.001426
37 0.001432
38 0.001451
39 0.001437
40 0.001464
41 0.001477
42 0.001506
43 0.001495
44 0.001501
45 0.001464
46 0.001431
47 0.001414
48 0.001417
49 0.001410
50 0.001424
51 0.001426
52 0.001411
53 0.001405
54 0.001400
55 0.001409
56 0.001389
57 0.001402
58 0.001405
59 0.001358
60 0.001334
61 0.001300
62 0.001291
63 0.001263
64 0.001252
65 0.001239
66 0.001252
67 0.001251
68 0.001298
69 0.001336
70 0.001395
71 0.001429
72 0.001463
73 0.001452
74 0.001467
75 0.001508
76 0.001540
77 0.001574
78 0.001624
79 0.001655
80 0.001690
81 0.001683
82 0.001658
83 0.001633
84 0.001607
85 0.001591
86 0.001592
87 0.001560
88 0.001531
89 0.001527
90 0.001512
91 0.001498
92 0.001460
93 0.001464
94 0.001490
95 0.001508
96 0.001516
97 0.001540
98 0.001562
99 0.001589
100 0.001619
101 0.001634
102 0.001647
103 0.001628
104 0.001610
105 0.001583
106 0.001541
107 0.001462
108 0.001436
109 0.001362
110 0.001329
111 0.001310
112 0.001273
113 0.001256
114 0.001224
115 0.001212
116 0.001227
117 0.001223
118 0.001212
119 0.001202
120 0.001177
121 0.001156
122 0.001165
123 0.001159
124 0.001158
125 0.001146
126 0.001140
127 0.001163
128 0.001200
129 0.001264
130 0.001308
131 0.001289
132 0.001277
133 0.001254
134 0.001229
135 0.001263
136 0.001300
137 0.001343
138 0.001365
139 0.001390
140 0.001440
141 0.001461
142 0.001458
143 0.001441
144 0.001404
145 0.001366
146 0.001327
147 0.001287
148 0.001273
149 0.001251
150 0.001247
151 0.001239
152 0.001200
153 0.001171
154 0.001130
155 0.001105
156 0.001073
157 0.001030
158 0.001019
159 0.000991
160 0.000978
161 0.000957
162 0.000927
163 0.000902
164 0.000871
165 0.000873
166 0.000877
167 0.000864
168 0.000866
169 0.000857
170 0.000848
171 0.000814
172 0.000831
173 0.000851
174 0.000841
175 0.000858
176 0.000855
177 0.000850
178 0.000811
179 0.000755
180 0.000725
181 0.000710
182 0.000705
183 0.000706
184 0.000700
185 0.000692
186 0.000709
187 0.000719
188 0.000730
189 0.000725
190 0.000740
191 0.000780
192 0.000800
193 0.000815
194 0.000868
195 0.000893
196 0.000881
197 0.000900
198 0.000905
199 0.000901
200 0.000928
201 0.000953
202 0.000998
203 0.001029
204 0.001072
205 0.001105
206 0.001137
207 0.001142
208 0.001159
209 0.001184
210 0.001197
211 0.001211
212 0.001189
213 0.001137
214 0.001115
215 0.001095
216 0.001124
217 0.001144
218 0.001155
219 0.001134
220 0.001092
221 0.001060
222 0.001039
223 0.001058
224 0.001046
225 0.001034
226 0.001014
227 0.000988
228 0.000938
229 0.000886
230 0.000841
231 0.000809
232 0.000752
233 0.000696
234 0.000651
235 0.000648
236 0.000642
237 0.000634
238 0.000626
239 0.000597
240 0.000573
241 0.000567
242 0.000590
243 0.000622
244 0.000648
245 0.000700
246 0.000728
247 0.000762
248 0.000831
249 0.000850
250 0.000877
251 0.000871
252 0.000889
253 0.000902
254 0.000884
255 0.000864
256 0.000844
257 0.000820
258 0.000828
259 0.000855
260 0.000885
261 0.000888
262 0.000884
263 0.000867
264 0.000868
265 0.000851
266 0.000851
267 0.000844
268 0.000827
269 0.000824
270 0.000830
271 0.000840
272 0.000857
273 0.000875
274 0.000868
275 0.000845
276 0.000850
277 0.000842
278 0.000855
279 0.000836
280 0.000837
281 0.000878
282 0.000866
283 0.000872
284 0.000865
285 0.000839
286 0.000825
287 0.000792
288 0.000788
289 0.000790
290 0.000781
291 0.000775
292 0.000786
293 0.000797
294 0.000781
295 0.000806
296 0.000830
297 0.000859
298 0.000852
299 0.000828
300 0.000802
301 0.000802
302 0.000819
303 0.000836
304 0.000839
305 0.000857
306 0.000881
307 0.000882
308 0.000858
309 0.000797
310 0.000737
311 0.000688
312 0.000662
313 0.000637
314 0.000606
315 0.000563
316 0.000536
317 0.000518
318 0.000493
319 0.000458
320 0.000435
321 0.000393
322 0.000382
323 0.000375
324 0.000385
325 0.000400
326 0.000401
327 0.000393
328 0.000386
329 0.000372
330 0.000379
331 0.000413
332 0.000420
333 0.000424
334 0.000425
335 0.000434
336 0.000442
337 0.000446
338 0.000434
339 0.000450
340 0.000466
341 0.000486
342 0.000482
343 0.000501
344 0.000551
345 0.000591
346 0.000623
347 0.000652
348 0.000662
349 0.000663
350 0.000669
351 0.000668
352 0.000695
353 0.000714
354 0.000710
355 0.000717
356 0.000733
357 0.000721
358 0.000733
359 0.000747
360 0.000777
361 0.000772
362 0.000772
363 0.000773
364 0.000794
365 0.000796
366 0.000779
367 0.000775
368 0.000742
369 0.000726
370 0.000692
371 0.000656
372 0.000627
373 0.000591
374 0.000564
375 0.000544
376 0.000489
377 0.000464
378 0.000444
379 0.000410
380 0.000396
381 0.000366
382 0.000376
383 0.000386
384 0.000376
385 0.000374
386 0.000367
387 0.000368
388 0.000374
389 0.000367
390 0.000338
391 0.000314
392 0.000301
393 0.000299
394 0.000304
395 0.000338
396 0.000347
397 0.000344
398 0.000339
399 0.000334
400 0.000373
401 0.000399
402 0.000411
403 0.000466
404 0.000462
405 0.000466
406 0.000446
407 0.000422
408 0.000411
409 0.000394
410 0.000350
411 0.000344
412 0.000315
413 0.000328
414 0.000341
415 0.000387
416 0.000397
417 0.000380
418 0.000350
419 0.000315
420 0.000316
421 0.000290
422 0.000293
423 0.000292
424 0.000273
425 0.000284
426 0.000292
427 0.000287
428 0.000283
429 0.000235
430 0.000190
431 0.000147
432 0.000118
433 0.000132
434 0.000131
435 0.000158
436 0.000189
437 0.000211
438 0.000210
439 0.000227
440 0.000239
441 0.000268
442 0.000288
443 0.000317
444 0.000323
445 0.000334
446 0.000370
447 0.000385
448 0.000386
449 0.000376
450 0.000359
451 0.000332
452 0.000300
453 0.000305
454 0.000284
455 0.000284
456 0.000260
457 0.000248
458 0.000257
459 0.000242
460 0.000239
461 0.000220
462 0.000179
463 0.000158
464 0.000155
465 0.000129
466 0.000122
467 0.000113
468 0.000124
469 0.000119
470 0.000113
471 0.000111
472 0.000093
473 0.000105
474 0.000105
475 0.000108
476 0.000104
477 0.000120
478 0.000116
479 0.000107
480 0.000105
481 0.000097
482 0.000093
483 0.000115
484 0.000129
485 0.000161
486 0.000176
487 0.000186
488 0.000222
489 0.000232
490 0.000233
491 0.000218
492 0.000196
493 0.000199
494 0.000205
495 0.000233
496 0.000241
497 0.000282
498 0.000318
499 0.000369
500 0.000423
501 0.000464
502 0.000504
503 0.000522
504 0.000545
505 0.000558
506 0.000550
507 0.000533
508 0.000506
509 0.000482
510 0.000458
511 0.000431
512 0.000403
513 0.000377
514 0.000359
515 0.000327
516 0.000307
517 0.000291
518 0.000286
519 0.000283
520 0.000253
521 0.000242
522 0.000233
523 0.000203
524 0.000185
525 0.000182
526 0.000192
527 0.000185
528 0.000180
529 0.000167
530 0.000150
531 0.000137
532 0.000130
533 0.000117
534 0.000092
535 0.000088
536 0.000069
537 0.000049
538 0.000064
539 0.000080
540 0.000093
541 0.000133
542 0.000168
543 0.000212
544 0.000237
545 0.000239
546 0.000243
547 0.000223
548 0.000212
549 0.000201
550 0.000201
551 0.000203
552 0.000210
553 0.000200
554 0.000222
555 0.000279
556 0.000296
557 0.000326
558 0.000339
559 0.000348
560 0.000344
561 0.000333
562 0.000335
563 0.000356
564 0.000359
565 0.000350
566 0.000350
567 0.000323
568 0.000322
569 0.000310
570 0.000298
571 0.000292
572 0.000274
573 0.000281
574 0.000291
575 0.000300
576 0.000337
577 0.000355
578 0.000392
579 0.000430
580 0.000440
581 0.000443
582 0.000425
583 0.000437
584 0.000452
585 0.000451
586 0.000452
587 0.000442
588 0.000428
589 0.000418
590 0.000419
591 0.000406
592 0.000393
593 0.000376
594 0.000346
595 0.000320
596 0.000315
597 0.000309
598 0.000308
599 0.000302
600 0.000292
601 0.000301
602 0.000268
603 0.000270
604 0.000286
605 0.000299
606 0.000309
607 0.000304
608 0.000300
609 0.000315
610 0.000319
611 0.000322
612 0.000338
613 0.000336
614 0.000323
615 0.000293
616 0.000257
617 0.000244
618 0.000231
619 0.000233
620 0.000244
621 0.000230
622 0.000207
623 0.000171
624 0.000132
625 0.000104
626 0.000091
627 0.000094
628 0.000104
629 0.000104
630 0.000114
631 0.000117
632 0.000125
633 0.000143
634 0.000164
635 0.000169
636 0.000169
637 0.000152
638 0.000142
639 0.000142
640 0.000161
641 0.000194
642 0.000215
643 0.000256
644 0.000293
645 0.000315
646 0.000338
647 0.000330
648 0.000346
649 0.000356
650 0.000351
651 0.000356
652 0.000358
653 0.000369
654 0.000375
655 0.000392
656 0.000395
657 0.000406
658 0.000427
659 0.000438
660 0.000427
661 0.000423
662 0.000412
663 0.000406
664 0.000416
665 0.000419
666 0.000410
667 0.000394
668 0.000376
669 0.000346
670 0.000332
671 0.000337
672 0.000331
673 0.000304
674 0.000276
675 0.000255
676 0.000248
677 0.000243
678 0.000240
679 0.000249
680 0.000231
681 0.000222
682 0.000211
683 0.000201
684 0.000221
685 0.000225
686 0.000232
687 0.000231
688 0.000218
689 0.000219
690 0.000222
691 0.000225
692 0.000227
693 0.000229
694 0.000221
695 0.000217
696 0.000208
697 0.000197
698 0.000186
699 0.000180
700 0.000180
701 0.000174
702 0.000160
703 0.000149
704 0.000162
705 0.000171
706 0.000204
707 0.000226
708 0.000254
709 0.000268
710 0.000267
711 0.000274
712 0.000287
713 0.000289
714 0.000297
715 0.000295
716 0.000299
717 0.000298
718 0.000280
719 0.000269
720 0.000265
721 0.000270
722 0.000266
723 0.000252
724 0.000242
725 0.000221
726 0.000200
727 0.000175
728 0.000170
729 0.000160
730 0.000155
731 0.000139
732 0.000129
733 0.000119
734 0.000105
735 0.000091
736 0.000085
737 0.000073
738 0.000065
739 0.000059
740 0.000040
741 0.000032
742 0.000012
743 -0.000002
744 -0.000012
745 -0.000017
746 -0.000013
747 -0.000009
748 0.000002
749 0.000034
750 0.000049
751 0.000048
752 0.000063
753 0.000055
754 0.000053
755 0.000053
756 0.000052
757 0.000059
758 0.000055
759 0.000060
760 0.000057
761 0.000066
762 0.000076
763 0.000084
764 0.000085
765 0.000093
766 0.000101
767 0.000109
768 0.000104
769 0.000114
770 0.000130
771 0.000134
772 0.000135
773 0.000130
774 0.000111
775 0.000108
776 0.000088
777 0.000076
778 0.000081
779 0.000078
780 0.000091
781 0.000100
782 0.000107
783 0.000120
784 0.000130
785 0.000145
786 0.000174
787 0.000197
788 0.000214
789 0.000229
790 0.000242
791 0.000252
792 0.000243
793 0.000228
794 0.000227
795 0.000229
796 0.000219
797 0.000189
798 0.000155
799 0.000127
800 0.000111
801 0.000101
802 0.000100
803 0.000113
804 0.000116
805 0.000115
806 0.000119
807 0.000133
808 0.000155
809 0.000164
