# i correlation
1 0.003145
2 0.002837
3 0.002600
4 0.002391
5 0.002188
6 0.002012
7 0.001887
8 0.001786
9 0.001685
10 0.001620
11 0.001538
12 0.001515
13 0.001477
14 0.001436
15 0.001444
16 0.001427
17 0.001387
18 0.001348
19 0.001331
20 0.001375
21 0.001413
22 0.001451
23 0.001448
24 0.001448
25 0.001479
26 0.001538
27 0.001558
28 0.001605
29 0.001620
30 0.001647
31 0.001688
32 0.001666
33 0.001616
34 0.001599
35 0.001599
36 0.001556
37 0.001493
38 0.001482
39 0.001452
40 0.001421
41 0.001384
42 0.001351
43 0.001317
44 0.001231
45 0.001195
46 0.001158
47 0.001110
48 0.001097
49 0.001062
50 0.001084
51 0.001159
52 0.001230
53 0.001275
54 0.001309
55 0.001371
56 0.001417
57 0.001405
58 0.001387
59 0.001381
60 0.001380
61 0.001377
62 0.001358
63 0.001373
64 0.001378
65 0.001369
66 0.001386
67 0.001409
68 0.001409
69 0.001403
70 0.001390
71 0.001411
72 0.001390
73 0.001386
74 0.001373
75 0.001333
76 0.001283
77 0.001229
78 0.001164
79 0.001134
80 0.001104
81 0.001153
82 0.001178
83 0.001242
84 0.001301
85 0.001342
86 0.001380
87 0.001430
88 0.001481
89 0.001492
90 0.001473
91 0.001522
92 0.001539
93 0.001559
94 0.001580
95 0.001562
96 0.001535
97 0.001515
98 0.001467
99 0.001411
100 0.001344
101 0.001297
102 0.001257
103 0.001245
104 0.001201
105 0.001133
106 0.001095
107 0.001071
108 0.001005
109 0.001005
110 0.001031
111 0.001038
112 0.001021
113 0.001021
114 0.001031
115 0.001051
116 0.001101
117 0.001136
118 0.001153
119 0.001196
120 0.001202
121 0.001205
122 0.001257
123 0.001330
124 0.001376
125 0.001386
126 0.001397
127 0.001412
128 0.001394
129 0.001386
130 0.001341
131 0.001312
132 0.001293
133 0.001291
134 0.001249
135 0.001196
136 0.001135
137 0.001127
138 0.001144
139 0.001153
140 0.001119
141 0.001094
142 0.001086
143 0.001079
144 0.001086
145 0.001113
146 0.001177
147 0.001210
148 0.001232
149 0.001246
150 0.001235
151 0.001212
152 0.001163
153 0.001116
154 0.001085
155 0.001064
156 0.001027
157 0.000962
158 0.000962
159 0.000998
160 0.001007
161 0.001017
162 0.001038
163 0.001008
164 0.000985
165 0.000952
166 0.000921
167 0.000887
168 0.000884
169 0.000883
170 0.000875
171 0.000850
172 0.000847
173 0.000829
174 0.000828
175 0.000847
176 0.000839
177 0.000840
178 0.000835
179 0.000799
180 0.000766
181 0.000755
182 0.000754
183 0.000736
184 0.000756
185 0.000775
186 0.000802
187 0.000808
188 0.000795
189 0.000778
190 0.000800
191 0.000799
192 0.000766
193 0.000750
194 0.000748
195 0.000688
196 0.000662
197 0.000663
198 0.000723
199 0.000736
200 0.000726
201 0.000705
202 0.000707
203 0.000703
204 0.000705
205 0.000709
206 0.000751
207 0.000767
208 0.000771
209 0.000741
210 0.000763
211 0.000728
212 0.000730
213 0.000792
214 0.000842
215 0.000899
216 0.000949
217 0.000963
218 0.000943
219 0.000948
220 0.000993
221 0.000994
222 0.000991
223 0.000971
224 0.000933
225 0.000900
226 0.000869
227 0.000833
228 0.000832
229 0.000844
230 0.000867
231 0.000867
232 0.000886
233 0.000913
234 0.000938
235 0.000957
236 0.000973
237 0.000991
238 0.000996
239 0.000969
240 0.000944
241 0.000938
242 0.000916
243 0.000905
244 0.000886
245 0.000886
246 0.000890
247 0.000901
248 0.000905
249 0.000902
250 0.000913
251 0.000883
252 0.000830
253 0.000831
254 0.000828
255 0.000805
256 0.000799
257 0.000777
258 0.000771
259 0.000731
260 0.000673
261 0.000670
262 0.000698
263 0.000717
264 0.000708
265 0.000713
266 0.000716
267 0.000709
268 0.000693
269 0.000716
270 0.000714
271 0.000737
272 0.000748
273 0.000742
274 0.000709
275 0.000704
276 0.000680
277 0.000662
278 0.000624
279 0.000624
280 0.000590
281 0.000557
282 0.000547
283 0.000534
284 0.000540
285 0.000575
286 0.000577
287 0.000595
288 0.000607
289 0.000650
290 0.000651
291 0.000649
292 0.000614
293 0.000600
294 0.000573
295 0.000554
296 0.000529
297 0.000544
298 0.000544
299 0.000550
300 0.000544
301 0.000587
302 0.000591
303 0.000573
304 0.000586
305 0.000595
306 0.000578
307 0.000591
308 0.000624
309 0.000663
310 0.000694
311 0.000687
312 0.000655
313 0.000639
314 0.000652
315 0.000656
316 0.000671
317 0.000718
318 0.000734
319 0.000738
320 0.000749
321 0.000765
322 0.000797
323 0.000822
324 0.000840
325 0.000843
326 0.000814
327 0.000788
328 0.000725
329 0.000695
330 0.000676
331 0.000655
332 0.000653
333 0.000623
334 0.000568
335 0.000521
336 0.000517
337 0.000527
338 0.000511
339 0.000543
340 0.000582
341 0.000595
342 0.000611
343 0.000628
344 0.000640
345 0.000671
346 0.000700
347 0.000720
348 0.000716
349 0.000697
350 0.000670
351 0.000637
352 0.000637
353 0.000649
354 0.000640
355 0.000637
356 0.000639
357 0.000614
358 0.000606
359 0.000593
360 0.000607
361 0.000612
362 0.000606
363 0.000611
364 0.000592
365 0.000566
366 0.000526
367 0.000482
368 0.000487
369 0.000461
370 0.000452
371 0.000441
372 0.000449
373 0.000471
374 0.000498
375 0.000544
376 0.000598
377 0.000622
378 0.000667
379 0.000675
380 0.000693
381 0.000735
382 0.000776
383 0.000780
384 0.000800
385 0.000825
386 0.000829
387 0.000791
388 0.000768
389 0.000734
390 0.000694
391 0.000673
392 0.000677
393 0.000659
394 0.000613
395 0.000564
396 0.000564
397 0.000542
398 0.000503
399 0.000449
400 0.000406
401 0.000376
402 0.000354
403 0.000326
404 0.000332
405 0.000314
406 0.000335
407 0.000359
408 0.000376
409 0.000397
410 0.000424
411 0.000462
412 0.000510
413 0.000563
414 0.000596
415 0.000610
416 0.000639
417 0.000631
418 0.000645
419 0.000643
420 0.000643
421 0.000640
422 0.000614
423 0.000599
424 0.000577
425 0.000524
426 0.000476
427 0.000445
428 0.000429
429 0.000383
430 0.000335
431 0.000312
432 0.000281
433 0.000263
434 0.000265
435 0.000282
436 0.000309
437 0.000345
438 0.000356
439 0.000387
440 0.000418
441 0.000452
442 0.000462
443 0.000474
444 0.000508
445 0.000494
446 0.000509
447 0.000560
448 0.000628
449 0.000698
450 0.000730
451 0.000739
452 0.000752
453 0.000737
454 0.000691
455 0.000675
456 0.000681
457 0.000695
458 0.000672
459 0.000660
460 0.000619
461 0.000587
462 0.000558
463 0.000551
464 0.000541
465 0.000510
466 0.000477
467 0.000455
468 0.000444
469 0.000470
470 0.000512
471 0.000549
472 0.000571
473 0.000596
474 0.000624
475 0.000656
476 0.000676
477 0.000688
478 0.000698
479 0.000709
480 0.000695
481 0.000669
482 0.000644
483 0.000620
484 0.000583
485 0.000563
486 0.000529
487 0.000504
488 0.000478
489 0.000444
490 0.000398
491 0.000394
492 0.000397
493 0.000374
494 0.000347
495 0.000372
496 0.000394
497 0.000401
498 0.000399
499 0.000398
500 0.000394
501 0.000385
502 0.000379
503 0.000396
504 0.000436
505 0.000459
506 0.000453
507 0.000469
508 0.000506
509 0.000538
510 0.000536
511 0.000534
512 0.000547
513 0.000537
514 0.000544
515 0.000545
516 0.000532
517 0.000521
518 0.000507
519 0.000483
520 0.000473
521 0.000444
522 0.000423
523 0.000416
524 0.000404
525 0.000402
526 0.000384
527 0.000367
528 0.000341
529 0.000341
530 0.000369
531 0.000397
532 0.000415
533 0.000431
534 0.000445
535 0.000477
536 0.000485
537 0.000503
538 0.000543
539 0.000579
540 0.000614
541 0.000617
542 0.000620
543 0.000626
544 0.000642
545 0.000665
546 0.000686
547 0.000714
548 0.000700
549 0.000661
550 0.000628
551 0.000589
552 0.000573
553 0.000557
554 0.000544
555 0.000542
556 0.000534
557 0.000520
558 0.000503
559 0.000483
560 0.000496
561 0.000497
562 0.000508
563 0.000496
564 0.000482
565 0.000485
566 0.000498
567 0.000505
568 0.000523
569 0.000523
570 0.000546
571 0.000541
572 0.000556
573 0.000557
574 0.000544
575 0.000533
576 0.000513
577 0.000489
578 0.000466
579 0.000448
580 0.000436
581 0.000447
582 0.000457
583 0.000462
584 0.000455
585 0.000457
586 0.000482
587 0.000489
588 0.000501
589 0.000496
590 0.000510
591 0.000505
592 0.000504
593 0.000486
594 0.000481
595 0.000488
596 0.000499
597 0.000494
598 0.000518
599 0.000550
600 0.000554
601 0.000557
602 0.000567
603 0.000576
604 0.000531
605 0.000479
606 0.000463
607 0.000433
608 0.000414
609 0.000408
610 0.000413
611 0.000416
612 0.000428
613 0.000423
614 0.000428
615 0.000411
616 0.000401
617 0.000385
618 0.000392
619 0.000400
620 0.000398
621 0.000421
622 0.000443
623 0.000450
624 0.000445
625 0.000425
626 0.000429
627 0.000403
628 0.000383
629 0.000374
630 0.000362
631 0.000371
632 0.000376
633 0.000381
634 0.000391
635 0.000377
636 0.000363
637 0.000353
638 0.000359
639 0.000356
640 0.000343
641 0.000350
642 0.000361
643 0.000346
644 0.000331
645 0.000315
646 0.000308
647 0.000301
648 0.000278
649 0.000267
650 0.000267
651 0.000263
652 0.000238
653 0.000215
654 0.000216
655 0.000216
656 0.000206
657 0.000209
658 0.000202
659 0.000198
660 0.000197
661 0.000210
662 0.000221
663 0.000247
664 0.000263
665 0.000296
666 0.000313
667 0.000317
668 0.000301
669 0.000288
670 0.000266
671 0.000247
672 0.000249
673 0.000248
674 0.000247
675 0.000226
676 0.000210
677 0.000205
678 0.000192
679 0.000172
680 0.000145
681 0.000130
682 0.000139
683 0.000148
684 0.000167
685 0.000201
686 0.000231
687 0.000270
688 0.000262
689 0.000263
690 0.000254
691 0.000243
692 0.000239
693 0.000246
694 0.000262
695 0.000289
696 0.000289
697 0.000292
698 0.000295
699 0.000288
700 0.000265
701 0.000237
702 0.000229
703 0.000225
704 0.000200
705 0.000196
706 0.000205
707 0.000211
708 0.000212
709 0.000188
710 0.000162
711 0.000142
712 0.000124
713 0.000119
714 0.000130
715 0.000134
716 0.000149
717 0.000163
718 0.000182
719 0.000187
720 0.000188
721 0.000184
722 0.000161
723 0.000136
724 0.000120
725 0.000098
726 0.000074
727 0.000055
728 0.000057
729 0.000068
730 0.000057
731 0.000025
732 0.000006
733 0.000001
734 -0.000002
735 -0.000012
736 -0.000013
737 -0.000012
738 -0.000002
739 -0.000004
740 -0.000005
741 -0.000013
742 -0.000020
743 -0.000028
744 -0.000041
745 -0.000029
746 -0.000017
747 -0.000016
748 -0.000006
749 0.000002
750 0.000007
751 0.000010
752 0.000001
753 0.000000
754 0.000014
755 0.000016
756 0.000006
757 -0.000019
758 -0.000016
759 0.000004
760 0.000034
761 0.000054
762 0.000054
763 0.000046
764 0.000034
765 0.000024
766 0.000015
767 0.000001
768 -0.000013
769 -0.000014
770 0.000007
771 0.000022
772 0.000024
773 0.000020
774 0.000023
775 0.000033
776 0.000023
777 0.000016
778 0.000002
779 -0.000008
780 -0.000010
781 -0.000005
782 -0.000006
783 -0.000018
784 -0.000022
785 -0.000009
786 -0.000010
787 -0.000001
788 0.000004
789 0.000014
790 0.000021
791 0.000026
792 0.000031
793 0.000024
794 0.000018
795 0.000003
796 -0.000002
797 -0.000010
798 -0.000023
799 -0.000033
800 -0.000025
801 -0.000011
802 -0.000000
803 0.000006
804 0.000005
805 0.000009
806 -0.000004
807 -0.000026
808 -0.000046
809 -0.000043
