# i correlation
1 0.003273
2 0.002957
3 0.002699
4 0.002461
5 0.002268
6 0.002116
7 0.001990
8 0.001869
9 0.001781
10 0.001742
11 0.001751
12 0.001764
13 0.001725
14 0.001677
15 0.001596
16 0.001550
17 0.001498
18 0.001465
19 0.001442
20 0.001404
21 0.001385
22 0.001371
23 0.001366
24 0.001351
25 0.001327
26 0.001327
27 0.001320
28 0.001317
29 0.001313
30 0.001289
31 0.001266
32 0.001236
33 0.001241
34 0.001247
35 0.001244
36 0.001223
37 0.001224
38 0.001245
39 0.001259
40 0.001294
41 0.001286
42 0.001273
43 0.001264
44 0.001262
45 0.001280
46 0.001290
47 0.001341
48 0.001353
49 0.001352
50 0.001331
51 0.001307
52 0.001287
53 0.001268
54 0.001264
55 0.001224
56 0.001183
57 0.001177
58 0.001165
59 0.001172
60 0.001183
61 0.001192
62 0.001163
63 0.001156
64 0.001106
65 0.001026
66 0.000977
67 0.000949
68 0.000926
69 0.000919
70 0.000924
71 0.000974
72 0.000984
73 0.001016
74 0.001041
75 0.001052
76 0.001049
77 0.001023
78 0.001011
79 0.000986
80 0.000972
81 0.000948
82 0.000961
83 0.001019
84 0.001056
85 0.001072
86 0.001084
87 0.001102
88 0.001132
89 0.001169
90 0.001137
91 0.001057
92 0.001018
93 0.000941
94 0.000898
95 0.000887
96 0.000890
97 0.000859
98 0.000827
99 0.000820
100 0.000816
101 0.000833
102 0.000848
103 0.000849
104 0.000818
105 0.000791
106 0.000804
107 0.000839
108 0.000891
109 0.000924
110 0.000930
111 0.000971
112 0.000990
113 0.000984
114 0.000952
115 0.000902
116 0.000863
117 0.000846
118 0.000890
119 0.000948
120 0.001006
121 0.001024
122 0.000995
123 0.001003
124 0.001005
125 0.000998
126 0.000991
127 0.000981
128 0.000961
129 0.000956
130 0.000954
131 0.000948
132 0.000987
133 0.001011
134 0.001050
135 0.001096
136 0.001140
137 0.001194
138 0.001218
139 0.001218
140 0.001175
141 0.001146
142 0.001140
143 0.001145
144 0.001133
145 0.001102
146 0.001095
147 0.001098
148 0.001082
149 0.001071
150 0.001086
151 0.001067
152 0.001023
153 0.000957
154 0.000871
155 0.000810
156 0.000781
157 0.000742
158 0.000715
159 0.000704
160 0.000693
161 0.000665
162 0.000635
163 0.000631
164 0.000598
165 0.000575
166 0.000577
167 0.000570
168 0.000584
169 0.000608
170 0.000622
171 0.000632
172 0.000660
173 0.000658
174 0.000626
175 0.000594
176 0.000573
177 0.000559
178 0.000552
179 0.000564
180 0.000587
181 0.000618
182 0.000671
183 0.000710
184 0.000761
185 0.000802
186 0.000833
187 0.000827
188 0.000809
189 0.000781
190 0.000782
191 0.000816
192 0.000835
193 0.000828
194 0.000847
195 0.000863
196 0.000887
197 0.000898
198 0.000900
199 0.000866
200 0.000812
201 0.000759
202 0.000663
203 0.000610
204 0.000557
205 0.000488
206 0.000454
207 0.000439
208 0.000456
209 0.000510
210 0.000559
211 0.000537
212 0.000531
213 0.000545
214 0.000524
215 0.000529
216 0.000509
217 0.000496
218 0.000482
219 0.000482
220 0.000517
221 0.000555
222 0.000574
223 0.000591
224 0.000612
225 0.000622
226 0.000641
227 0.000627
228 0.000586
229 0.000571
230 0.000608
231 0.000666
232 0.000699
233 0.000732
234 0.000743
235 0.000729
236 0.000700
237 0.000696
238 0.000693
239 0.000693
240 0.000689
241 0.000668
242 0.000655
243 0.000638
244 0.000636
245 0.000645
246 0.000660
247 0.000679
248 0.000703
249 0.000706
250 0.000692
251 0.000688
252 0.000674
253 0.000662
254 0.000629
255 0.000608
256 0.000589
257 0.000551
258 0.000536
259 0.000520
260 0.000495
261 0.000463
262 0.000453
263 0.000390
264 0.000373
265 0.000371
266 0.000345
267 0.000335
268 0.000335
269 0.000361
270 0.000414
271 0.000465
272 0.000514
273 0.000535
274 0.000540
275 0.000535
276 0.000511
277 0.000470
278 0.000426
279 0.000391
280 0.000375
281 0.000378
282 0.000367
283 0.000381
284 0.000415
285 0.000436
286 0.000458
287 0.000466
288 0.000457
289 0.000441
290 0.000411
291 0.000397
292 0.000369
293 0.000381
294 0.000380
295 0.000363
296 0.000349
297 0.000329
298 0.000340
299 0.000337
300 0.000301
301 0.000257
302 0.000250
303 0.000217
304 0.000195
305 0.000218
306 0.000223
307 0.000192
308 0.000166
309 0.000175
310 0.000207
311 0.000227
312 0.000241
313 0.000251
314 0.000248
315 0.000245
316 0.000269
317 0.000302
318 0.000326
319 0.000383
320 0.000430
321 0.000474
322 0.000529
323 0.000565
324 0.000592
325 0.000584
326 0.000584
327 0.000590
328 0.000594
329 0.000604
330 0.000577
331 0.000556
332 0.000579
333 0.000634
334 0.000681
335 0.000707
336 0.000727
337 0.000712
338 0.000731
339 0.000739
340 0.000739
341 0.000715
342 0.000673
343 0.000626
344 0.000605
345 0.000607
346 0.000584
347 0.000548
348 0.000502
349 0.000452
350 0.000440
351 0.000434
352 0.000426
353 0.000423
354 0.000430
355 0.000427
356 0.000445
357 0.000462
358 0.000482
359 0.000513
360 0.000550
361 0.000572
362 0.000585
363 0.000586
364 0.000573
365 0.000566
366 0.000561
367 0.000580
368 0.000565
369 0.000573
370 0.000561
371 0.000533
372 0.000519
373 0.000538
374 0.000566
375 0.000573
376 0.000588
377 0.000593
378 0.000588
379 0.000594
380 0.000621
381 0.000652
382 0.000677
383 0.000708
384 0.000696
385 0.000700
386 0.000689
387 0.000658
388 0.000638
389 0.000596
390 0.000543
391 0.000491
392 0.000458
393 0.000432
394 0.000421
395 0.000424
396 0.000401
397 0.000383
398 0.000370
399 0.000345
400 0.000336
401 0.000339
402 0.000350
403 0.000347
404 0.000347
405 0.000341
406 0.000326
407 0.000348
408 0.000378
409 0.000430
410 0.000463
411 0.000503
412 0.000539
413 0.000568
414 0.000564
415 0.000531
416 0.000513
417 0.000493
418 0.000461
419 0.000429
420 0.000393
421 0.000385
422 0.000398
423 0.000430
424 0.000441
425 0.000455
426 0.000450
427 0.000429
428 0.000433
429 0.000430
430 0.000460
431 0.000469
432 0.000461
433 0.000472
434 0.000506
435 0.000532
436 0.000558
437 0.000571
438 0.000562
439 0.000547
440 0.000564
441 0.000585
442 0.000624
443 0.000664
444 0.000671
445 0.000673
446 0.000668
447 0.000640
448 0.000606
449 0.000578
450 0.000536
451 0.000482
452 0.000454
453 0.000464
454 0.000488
455 0.000495
456 0.000532
457 0.000565
458 0.000571
459 0.000573
460 0.000549
461 0.000541
462 0.000537
463 0.000553
464 0.000576
465 0.000620
466 0.000662
467 0.000675
468 0.000707
469 0.000738
470 0.000767
471 0.000820
472 0.000848
473 0.000869
474 0.000875
475 0.000880
476 0.000865
477 0.000856
478 0.000829
479 0.000810
480 0.000794
481 0.000749
482 0.000747
483 0.000758
484 0.000777
485 0.000801
486 0.000815
487 0.000818
488 0.000812
489 0.000795
490 0.000787
491 0.000753
492 0.000713
493 0.000683
494 0.000654
495 0.000621
496 0.000631
497 0.000645
498 0.000632
499 0.000625
500 0.000606
501 0.000615
502 0.000626
503 0.000631
504 0.000650
505 0.000647
506 0.000683
507 0.000695
508 0.000695
509 0.000690
510 0.000677
511 0.000671
512 0.000673
513 0.000699
514 0.000731
515 0.000744
516 0.000756
517 0.000759
518 0.000786
519 0.000820
520 0.000855
521 0.000862
522 0.000872
523 0.000880
524 0.000890
525 0.000902
526 0.000918
527 0.000915
528 0.000895
529 0.000869
530 0.000850
531 0.000853
532 0.000881
533 0.000871
534 0.000839
535 0.000790
536 0.000771
537 0.000761
538 0.000720
539 0.000674
540 0.000623
541 0.000573
542 0.000537
543 0.000535
544 0.000540
545 0.000569
546 0.000595
547 0.000595
548 0.000604
549 0.000611
550 0.000631
551 0.000645
552 0.000645
553 0.000653
554 0.000659
555 0.000669
556 0.000677
557 0.000705
558 0.000704
559 0.000701
560 0.000722
561 0.000743
562 0.000743
563 0.000748
564 0.000764
565 0.000778
566 0.000792
567 0.000797
568 0.000774
569 0.000749
570 0.000728
571 0.000721
572 0.000713
573 0.000711
574 0.000716
575 0.000719
576 0.000711
577 0.000710
578 0.000704
579 0.000705
580 0.000714
581 0.000707
582 0.000705
583 0.000702
584 0.000696
585 0.000681
586 0.000685
587 0.000669
588 0.000633
589 0.000605
590 0.000595
591 0.000597
592 0.000612
593 0.000638
594 0.000655
595 0.000669
596 0.000678
597 0.000695
598 0.000710
599 0.000706
600 0.000704
601 0.000676
602 0.000641
603 0.000620
604 0.000616
605 0.000611
606 0.000604
607 0.000625
608 0.000650
609 0.000671
610 0.000693
611 0.000695
612 0.000702
613 0.000680
614 0.000658
615 0.000628
616 0.000597
617 0.000560
618 0.000527
619 0.000499
620 0.000462
621 0.000439
622 0.000433
623 0.000406
624 0.000383
625 0.000375
626 0.000376
627 0.000380
628 0.000382
629 0.000370
630 0.000343
631 0.000321
632 0.000298
633 0.000273
634 0.000276
635 0.000281
636 0.000276
637 0.000259
638 0.000262
639 0.000265
640 0.000283
641 0.000275
642 0.000257
643 0.000244
644 0.000221
645 0.000207
646 0.000190
647 0.000167
648 0.000132
649 0.000111
650 0.000100
651 0.000106
652 0.000131
653 0.000160
654 0.000176
655 0.000197
656 0.000226
657 0.000268
658 0.000302
659 0.000320
660 0.000325
661 0.000337
662 0.000343
663 0.000354
664 0.000365
665 0.000381
666 0.000410
667 0.000419
668 0.000416
669 0.000429
670 0.000425
671 0.000411
672 0.000391
673 0.000371
674 0.000354
675 0.000345
676 0.000344
677 0.000334
678 0.000331
679 0.000347
680 0.000357
681 0.000360
682 0.000357
683 0.000366
684 0.000373
685 0.000369
686 0.000353
687 0.000346
688 0.000327
689 0.000302
690 0.000274
691 0.000250
692 0.000231
693 0.000218
694 0.000218
695 0.000240
696 0.000269
697 0.000297
698 0.000329
699 0.000361
700 0.000381
701 0.000380
702 0.000384
703 0.000382
704 0.000371
705 0.000361
706 0.000357
707 0.000349
708 0.000334
709 0.000326
710 0.000335
711 0.000347
712 0.000363
713 0.000370
714 0.000386
715 0.000399
716 0.000416
717 0.000440
718 0.000455
719 0.000461
720 0.000458
721 0.000453
722 0.000446
723 0.000435
724 0.000438
725 0.000421
726 0.000397
727 0.000372
728 0.000365
729 0.000357
730 0.000363
731 0.000358
732 0.000360
733 0.000349
734 0.000329
735 0.000306
736 0.000306
737 0.000309
738 0.000295
739 0.000284
740 0.000279
741 0.000279
742 0.000283
743 0.000280
744 0.000294
745 0.000296
746 0.000308
747 0.000314
748 0.000312
749 0.000307
750 0.000302
751 0.000300
752 0.000303
753 0.000294
754 0.000284
755 0.000281
756 0.000272
757 0.000250
758 0.000240
759 0.000220
760 0.000202
761 0.000186
762 0.000182
763 0.000190
764 0.000194
765 0.000200
766 0.000210
767 0.000208
768 0.000192
769 0.000194
770 0.000192
771 0.000186
772 0.000172
773 0.000155
774 0.000138
775 0.000124
776 0.000117
777 0.000114
778 0.000124
779 0.000117
780 0.000102
781 0.000096
782 0.000087
783 0.000084
784 0.000079
785 0.000074
786 0.000059
787 0.000047
788 0.000043
789 0.000032
790 0.000031
791 0.000030
792 0.000023
793 0.000018
794 0.000010
795 0.000016
796 0.000025
797 0.000029
798 0.000039
799 0.000056
800 0.000071
801 0.000081
802 0.000082
803 0.000084
804 0.000089
805 0.000098
806 0.000102
807 0.000105
808 0.000116
809 0.000120
