# i correlation
1 0.002999
2 0.002712
3 0.002502
4 0.002307
5 0.002141
6 0.001951
7 0.001789
8 0.001658
9 0.001563
10 0.001490
11 0.001446
12 0.001393
13 0.001376
14 0.001382
15 0.001388
16 0.001404
17 0.001390
18 0.001387
19 0.001368
20 0.001355
21 0.001328
22 0.001256
23 0.001220
24 0.001167
25 0.001143
26 0.001138
27 0.001142
28 0.001147
29 0.001166
30 0.001195
31 0.001197
32 0.001238
33 0.001267
34 0.001273
35 0.001317
36 0.001350
37 0.001351
38 0.001365
39 0.001367
40 0.001369
41 0.001314
42 0.001234
43 0.001197
44 0.001167
45 0.001153
46 0.001123
47 0.001099
48 0.001096
49 0.001096
50 0.001089
51 0.001116
52 0.001090
53 0.001027
54 0.001016
55 0.000975
56 0.000901
57 0.000832
58 0.000790
59 0.000794
60 0.000781
61 0.000797
62 0.000818
63 0.000830
64 0.000834
65 0.000885
66 0.000924
67 0.000960
68 0.001035
69 0.001074
70 0.001102
71 0.001096
72 0.001064
73 0.001045
74 0.001023
75 0.001035
76 0.001005
77 0.000977
78 0.000960
79 0.000963
80 0.000973
81 0.000991
82 0.001016
83 0.001042
84 0.001056
85 0.001067
86 0.001077
87 0.001072
88 0.001101
89 0.001111
90 0.001094
91 0.001079
92 0.001038
93 0.000983
94 0.000953
95 0.000926
96 0.000877
97 0.000845
98 0.000849
99 0.000867
100 0.000871
101 0.000855
102 0.000822
103 0.000807
104 0.000794
105 0.000807
106 0.000807
107 0.000753
108 0.000717
109 0.000685
110 0.000654
111 0.000651
112 0.000636
113 0.000618
114 0.000644
115 0.000648
116 0.000679
117 0.000715
118 0.000753
119 0.000812
120 0.000872
121 0.000908
122 0.000924
123 0.000909
124 0.000896
125 0.000892
126 0.000899
127 0.000906
128 0.000867
129 0.000859
130 0.000851
131 0.000832
132 0.000789
133 0.000730
134 0.000696
135 0.000708
136 0.000736
137 0.000742
138 0.000726
139 0.000716
140 0.000752
141 0.000780
142 0.000786
143 0.000766
144 0.000741
145 0.000719
146 0.000715
147 0.000709
148 0.000680
149 0.000670
150 0.000674
151 0.000659
152 0.000674
153 0.000679
154 0.000672
155 0.000656
156 0.000620
157 0.000636
158 0.000642
159 0.000647
160 0.000637
161 0.000596
162 0.000586
163 0.000613
164 0.000604
165 0.000604
166 0.000631
167 0.000658
168 0.000676
169 0.000675
170 0.000679
171 0.000700
172 0.000713
173 0.000745
174 0.000760
175 0.000778
176 0.000784
177 0.000767
178 0.000706
179 0.000653
180 0.000627
181 0.000590
182 0.000560
183 0.000511
184 0.000493
185 0.000488
186 0.000471
187 0.000486
188 0.000489
189 0.000518
190 0.000568
191 0.000596
192 0.000598
193 0.000581
194 0.000548
195 0.000532
196 0.000501
197 0.000468
198 0.000447
199 0.000410
200 0.000394
201 0.000373
202 0.000363
203 0.000365
204 0.000383
205 0.000443
206 0.000468
207 0.000484
208 0.000508
209 0.000537
210 0.000574
211 0.000618
212 0.000670
213 0.000699
214 0.000721
215 0.000730
216 0.000713
217 0.000725
218 0.000726
219 0.000704
220 0.000662
221 0.000590
222 0.000530
223 0.000464
224 0.000391
225 0.000388
226 0.000347
227 0.000315
228 0.000325
229 0.000322
230 0.000344
231 0.000341
232 0.000344
233 0.000349
234 0.000371
235 0.000397
236 0.000411
237 0.000403
238 0.000420
239 0.000445
240 0.000459
241 0.000512
242 0.000524
243 0.000552
244 0.000583
245 0.000634
246 0.000690
247 0.000731
248 0.000750
249 0.000749
250 0.000734
251 0.000749
252 0.000792
253 0.000798
254 0.000778
255 0.000742
256 0.000704
257 0.000663
258 0.000627
259 0.000592
260 0.000559
261 0.000511
262 0.000474
263 0.000452
264 0.000416
265 0.000400
266 0.000392
267 0.000375
268 0.000387
269 0.000365
270 0.000344
271 0.000339
272 0.000357
273 0.000374
274 0.000408
275 0.000411
276 0.000434
277 0.000474
278 0.000496
279 0.000560
280 0.000627
281 0.000681
282 0.000727
283 0.000760
284 0.000796
285 0.000825
286 0.000848
287 0.000842
288 0.000844
289 0.000831
290 0.000834
291 0.000818
292 0.000801
293 0.000820
294 0.000815
295 0.000821
296 0.000806
297 0.000793
298 0.000786
299 0.000773
300 0.000781
301 0.000778
302 0.000773
303 0.000772
304 0.000778
305 0.000749
306 0.000699
307 0.000670
308 0.000635
309 0.000613
310 0.000566
311 0.000548
312 0.000550
313 0.000540
314 0.000536
315 0.000503
316 0.000512
317 0.000578
318 0.000654
319 0.000701
320 0.000735
321 0.000759
322 0.000804
323 0.000836
324 0.000835
325 0.000833
326 0.000827
327 0.000844
328 0.000850
329 0.000848
330 0.000833
331 0.000809
332 0.000777
333 0.000759
334 0.000753
335 0.000767
336 0.000780
337 0.000782
338 0.000790
339 0.000798
340 0.000795
341 0.000788
342 0.000795
343 0.000777
344 0.000758
345 0.000761
346 0.000752
347 0.000760
348 0.000756
349 0.000745
350 0.000730
351 0.000722
352 0.000722
353 0.000712
354 0.000707
355 0.000696
356 0.000682
357 0.000710
358 0.000728
359 0.000747
360 0.000752
361 0.000737
362 0.000735
363 0.000762
364 0.000738
365 0.000749
366 0.000767
367 0.000783
368 0.000830
369 0.000838
370 0.000857
371 0.000870
372 0.000878
373 0.000879
374 0.000862
375 0.000840
376 0.000810
377 0.000801
378 0.000803
379 0.000768
380 0.000767
381 0.000754
382 0.000730
383 0.000704
384 0.000664
385 0.000629
386 0.000623
387 0.000624
388 0.000623
389 0.000612
390 0.000594
391 0.000587
392 0.000590
393 0.000593
394 0.000577
395 0.000551
396 0.000514
397 0.000489
398 0.000498
399 0.000494
400 0.000479
401 0.000464
402 0.000449
403 0.000453
404 0.000452
405 0.000451
406 0.000460
407 0.000483
408 0.000491
409 0.000500
410 0.000518
411 0.000518
412 0.000532
413 0.000520
414 0.000486
415 0.000473
416 0.000457
417 0.000451
418 0.000457
419 0.000477
420 0.000527
421 0.000561
422 0.000575
423 0.000597
424 0.000618
425 0.000638
426 0.000633
427 0.000620
428 0.000619
429 0.000606
430 0.000577
431 0.000555
432 0.000523
433 0.000493
434 0.000452
435 0.000403
436 0.000372
437 0.000356
438 0.000336
439 0.000325
440 0.000333
441 0.000329
442 0.000312
443 0.000331
444 0.000348
445 0.000373
446 0.000378
447 0.000386
448 0.000393
449 0.000414
450 0.000423
451 0.000414
452 0.000411
453 0.000431
454 0.000446
455 0.000443
456 0.000465
457 0.000491
458 0.000515
459 0.000564
460 0.000618
461 0.000665
462 0.000688
463 0.000713
464 0.000744
465 0.000744
466 0.000758
467 0.000750
468 0.000736
469 0.000724
470 0.000718
471 0.000738
472 0.000759
473 0.000754
474 0.000731
475 0.000719
476 0.000713
477 0.000706
478 0.000676
479 0.000636
480 0.000610
481 0.000571
482 0.000541
483 0.000476
484 0.000431
485 0.000408
486 0.000400
487 0.000391
488 0.000392
489 0.000408
490 0.000408
491 0.000435
492 0.000488
493 0.000537
494 0.000573
495 0.000609
496 0.000630
497 0.000630
498 0.000648
499 0.000671
500 0.000672
501 0.000641
502 0.000604
503 0.000552
504 0.000513
505 0.000476
506 0.000432
507 0.000405
508 0.000389
509 0.000369
510 0.000352
511 0.000337
512 0.000341
513 0.000327
514 0.000304
515 0.000295
516 0.000273
517 0.000255
518 0.000251
519 0.000229
520 0.000217
521 0.000208
522 0.000179
523 0.000145
524 0.000117
525 0.000102
526 0.000076
527 0.000053
528 0.000043
529 0.000049
530 0.000057
531 0.000074
532 0.000107
533 0.000129
534 0.000158
535 0.000192
536 0.000235
537 0.000263
538 0.000272
539 0.000293
540 0.000312
541 0.000329
542 0.000332
543 0.000331
544 0.000333
545 0.000324
546 0.000308
547 0.000309
548 0.000309
549 0.000277
550 0.000262
551 0.000237
552 0.000216
553 0.000211
554 0.000205
555 0.000211
556 0.000213
557 0.000228
558 0.000243
559 0.000251
560 0.000254
561 0.000268
562 0.000273
563 0.000262
564 0.000245
565 0.000228
566 0.000213
567 0.000188
568 0.000166
569 0.000152
570 0.000148
571 0.000155
572 0.000169
573 0.000168
574 0.000169
575 0.000178
576 0.000199
577 0.000224
578 0.000217
579 0.000202
580 0.000205
581 0.000204
582 0.000212
583 0.000228
584 0.000208
585 0.000178
586 0.000165
587 0.000177
588 0.000188
589 0.000162
590 0.000157
591 0.000163
592 0.000170
593 0.000173
594 0.000166
595 0.000167
596 0.000157
597 0.000151
598 0.000165
599 0.000170
600 0.000171
601 0.000165
602 0.000169
603 0.000171
604 0.000166
605 0.000154
606 0.000154
607 0.000158
608 0.000149
609 0.000135
610 0.000121
611 0.000128
612 0.000161
613 0.000192
614 0.000200
615 0.000210
616 0.000230
617 0.000254
618 0.000260
619 0.000249
620 0.000253
621 0.000249
622 0.000255
623 0.000263
624 0.000249
625 0.000235
626 0.000221
627 0.000208
628 0.000213
629 0.000219
630 0.000208
631 0.000224
632 0.000237
633 0.000247
634 0.000244
635 0.000232
636 0.000221
637 0.000214
638 0.000207
639 0.000214
640 0.000222
641 0.000228
642 0.000246
643 0.000251
644 0.000248
645 0.000251
646 0.000268
647 0.000274
648 0.000273
649 0.000267
650 0.000278
651 0.000290
652 0.000304
653 0.000313
654 0.000315
655 0.000302
656 0.000286
657 0.000269
658 0.000268
659 0.000264
660 0.000265
661 0.000276
662 0.000284
663 0.000294
664 0.000306
665 0.000326
666 0.000340
667 0.000356
668 0.000373
669 0.000375
670 0.000357
671 0.000356
672 0.000363
673 0.000357
674 0.000343
675 0.000334
676 0.000328
677 0.000330
678 0.000317
679 0.000309
680 0.000300
681 0.000298
682 0.000307
683 0.000323
684 0.000333
685 0.000338
686 0.000347
687 0.000347
688 0.000347
689 0.000345
690 0.000347
691 0.000353
692 0.000363
693 0.000358
694 0.000345
695 0.000326
696 0.000312
697 0.000311
698 0.000314
699 0.000303
700 0.000305
701 0.000318
702 0.000322
703 0.000328
704 0.000326
705 0.000339
706 0.000344
707 0.000352
708 0.000362
709 0.000365
710 0.000375
711 0.000393
712 0.000428
713 0.000456
714 0.000464
715 0.000450
716 0.000437
717 0.000428
718 0.000418
719 0.000419
720 0.000405
721 0.000390
722 0.000377
723 0.000371
724 0.000369
725 0.000357
726 0.000343
727 0.000332
728 0.000322
729 0.000326
730 0.000333
731 0.000335
732 0.000325
733 0.000318
734 0.000312
735 0.000300
736 0.000280
737 0.000272
738 0.000275
739 0.000268
740 0.000277
741 0.000286
742 0.000292
743 0.000306
744 0.000303
745 0.000310
746 0.000327
747 0.000335
748 0.000352
749 0.000374
750 0.000385
751 0.000396
752 0.000416
753 0.000425
754 0.000433
755 0.000430
756 0.000421
757 0.000413
758 0.000413
759 0.000412
760 0.000400
761 0.000382
762 0.000363
763 0.000349
764 0.000343
765 0.000326
766 0.000317
767 0.000322
768 0.000312
769 0.000300
770 0.000295
771 0.000292
772 0.000293
773 0.000307
774 0.000316
775 0.000322
776 0.000314
777 0.000302
778 0.000307
779 0.000301
780 0.000301
781 0.000308
782 0.000318
783 0.000324
784 0.000318
785 0.000318
786 0.000316
787 0.000315
788 0.000317
789 0.000318
790 0.000318
791 0.000324
792 0.000341
793 0.000349
794 0.000351
795 0.000345
796 0.000341
797 0.000330
798 0.000311
799 0.000299
800 0.000292
801 0.000281
802 0.000269
803 0.000258
804 0.000241
805 0.000217
806 0.000207
807 0.000206
808 0.000203
809 0.000199
