# i correlation
1 0.002889
2 0.002567
3 0.002312
4 0.002121
5 0.001955
6 0.001838
7 0.001770
8 0.001729
9 0.001699
10 0.001660
11 0.001613
12 0.001542
13 0.001486
14 0.001467
15 0.001459
16 0.001458
17 0.001423
18 0.001401
19 0.001372
20 0.001340
21 0.001337
22 0.001365
23 0.001366
24 0.001360
25 0.001315
26 0.001267
27 0.001236
28 0.001209
29 0.001190
30 0.001148
31 0.001126
32 0.001094
33 0.001098
34 0.001091
35 0.001120
36 0.001141
37 0.001110
38 0.001106
39 0.001101
40 0.001122
41 0.001123
42 0.001077
43 0.001067
44 0.001057
45 0.001053
46 0.001041
47 0.001038
48 0.000999
49 0.000946
50 0.000902
51 0.000871
52 0.000825
53 0.000818
54 0.000835
55 0.000835
56 0.000784
57 0.000786
58 0.000759
59 0.000758
60 0.000751
61 0.000761
62 0.000821
63 0.000909
64 0.000983
65 0.001002
66 0.000975
67 0.000936
68 0.000916
69 0.000935
70 0.000951
71 0.000983
72 0.000985
73 0.000965
74 0.000902
75 0.000819
76 0.000766
77 0.000736
78 0.000722
79 0.000726
80 0.000748
81 0.000784
82 0.000787
83 0.000787
84 0.000825
85 0.000858
86 0.000893
87 0.000928
88 0.000968
89 0.000997
90 0.001001
91 0.000974
92 0.000940
93 0.000935
94 0.000880
95 0.000824
96 0.000745
97 0.000703
98 0.000701
99 0.000742
100 0.000772
101 0.000814
102 0.000845
103 0.000849
104 0.000900
105 0.000945
106 0.000965
107 0.000939
108 0.000918
109 0.000918
110 0.000900
111 0.000885
112 0.000884
113 0.000853
114 0.000858
115 0.000864
116 0.000869
117 0.000878
118 0.000831
119 0.000801
120 0.000753
121 0.000722
122 0.000682
123 0.000647
124 0.000602
125 0.000594
126 0.000616
127 0.000638
128 0.000720
129 0.000743
130 0.000761
131 0.000752
132 0.000735
133 0.000748
134 0.000765
135 0.000782
136 0.000793
137 0.000838
138 0.000869
139 0.000900
140 0.000918
141 0.000919
142 0.000908
143 0.000902
144 0.000911
145 0.000919
146 0.000912
147 0.000905
148 0.000882
149 0.000843
150 0.000832
151 0.000820
152 0.000826
153 0.000829
154 0.000842
155 0.000878
156 0.000902
157 0.000874
158 0.000867
159 0.000835
160 0.000751
161 0.000708
162 0.000692
163 0.000677
164 0.000683
165 0.000666
166 0.000674
167 0.000652
168 0.000604
169 0.000606
170 0.000648
171 0.000709
172 0.000745
173 0.000785
174 0.000831
175 0.000860
176 0.000868
177 0.000838
178 0.000829
179 0.000823
180 0.000843
181 0.000852
182 0.000868
183 0.000862
184 0.000844
185 0.000848
186 0.000844
187 0.000834
188 0.000805
189 0.000758
190 0.000693
191 0.000666
192 0.000675
193 0.000695
194 0.000704
195 0.000705
196 0.000708
197 0.000688
198 0.000681
199 0.000655
200 0.000613
201 0.000591
202 0.000586
203 0.000597
204 0.000609
205 0.000635
206 0.000622
207 0.000596
208 0.000550
209 0.000538
210 0.000525
211 0.000506
212 0.000495
213 0.000463
214 0.000443
215 0.000432
216 0.000442
217 0.000434
218 0.000475
219 0.000490
220 0.000550
221 0.000612
222 0.000610
223 0.000605
224 0.000582
225 0.000584
226 0.000598
227 0.000623
228 0.000639
229 0.000647
230 0.000630
231 0.000603
232 0.000578
233 0.000555
234 0.000545
235 0.000535
236 0.000544
237 0.000555
238 0.000555
239 0.000548
240 0.000531
241 0.000490
242 0.000503
243 0.000532
244 0.000565
245 0.000580
246 0.000564
247 0.000560
248 0.000564
249 0.000565
250 0.000549
251 0.000555
252 0.000583
253 0.000563
254 0.000530
255 0.000506
256 0.000519
257 0.000507
258 0.000523
259 0.000532
260 0.000577
261 0.000602
262 0.000608
263 0.000600
264 0.000588
265 0.000562
266 0.000542
267 0.000561
268 0.000575
269 0.000598
270 0.000612
271 0.000632
272 0.000633
273 0.000662
274 0.000658
275 0.000684
276 0.000690
277 0.000697
278 0.000679
279 0.000633
280 0.000614
281 0.000586
282 0.000570
283 0.000570
284 0.000574
285 0.000574
286 0.000560
287 0.000520
288 0.000461
289 0.000441
290 0.000432
291 0.000447
292 0.000489
293 0.000488
294 0.000465
295 0.000431
296 0.000391
297 0.000352
298 0.000314
299 0.000308
300 0.000299
301 0.000289
302 0.000281
303 0.000247
304 0.000236
305 0.000215
306 0.000212
307 0.000216
308 0.000222
309 0.000227
310 0.000252
311 0.000276
312 0.000243
313 0.000259
314 0.000277
315 0.000301
316 0.000299
317 0.000296
318 0.000283
319 0.000250
320 0.000233
321 0.000239
322 0.000236
323 0.000231
324 0.000251
325 0.000274
326 0.000290
327 0.000298
328 0.000277
329 0.000270
330 0.000273
331 0.000284
332 0.000315
333 0.000363
334 0.000362
335 0.000369
336 0.000373
337 0.000403
338 0.000415
339 0.000408
340 0.000426
341 0.000434
342 0.000456
343 0.000455
344 0.000441
345 0.000406
346 0.000399
347 0.000382
348 0.000351
349 0.000359
350 0.000366
351 0.000370
352 0.000338
353 0.000318
354 0.000319
355 0.000324
356 0.000326
357 0.000338
358 0.000343
359 0.000341
360 0.000367
361 0.000364
362 0.000346
363 0.000331
364 0.000327
365 0.000312
366 0.000303
367 0.000270
368 0.000264
369 0.000229
370 0.000209
371 0.000193
372 0.000167
373 0.000151
374 0.000119
375 0.000098
376 0.000097
377 0.000106
378 0.000133
379 0.000167
380 0.000195
381 0.000194
382 0.000202
383 0.000188
384 0.000159
385 0.000124
386 0.000097
387 0.000077
388 0.000033
389 -0.000021
390 -0.000024
391 0.000003
392 0.000027
393 0.000011
394 -0.000009
395 -0.000014
396 -0.000023
397 -0.000013
398 0.000010
399 0.000019
400 0.000027
401 0.000060
402 0.000079
403 0.000086
404 0.000082
405 0.000059
406 0.000071
407 0.000073
408 0.000090
409 0.000088
410 0.000089
411 0.000103
412 0.000095
413 0.000078
414 0.000107
415 0.000133
416 0.000122
417 0.000101
418 0.000079
419 0.000080
420 0.000091
421 0.000098
422 0.000121
423 0.000167
424 0.000195
425 0.000207
426 0.000203
427 0.000192
428 0.000156
429 0.000100
430 0.000078
431 0.000082
432 0.000064
433 0.000049
434 0.000042
435 0.000029
436 0.000009
437 -0.000017
438 -0.000052
439 -0.000061
440 -0.000084
441 -0.000083
442 -0.000054
443 -0.000013
444 0.000036
445 0.000074
446 0.000090
447 0.000118
448 0.000123
449 0.000137
450 0.000155
451 0.000193
452 0.000201
453 0.000182
454 0.000180
455 0.000222
456 0.000250
457 0.000241
458 0.000221
459 0.000210
460 0.000184
461 0.000165
462 0.000128
463 0.000103
464 0.000092
465 0.000117
466 0.000153
467 0.000155
468 0.000154
469 0.000164
470 0.000170
471 0.000170
472 0.000201
473 0.000218
474 0.000222
475 0.000196
476 0.000142
477 0.000117
478 0.000101
479 0.000092
480 0.000109
481 0.000116
482 0.000118
483 0.000124
484 0.000135
485 0.000146
486 0.000132
487 0.000162
488 0.000206
489 0.000210
490 0.000212
491 0.000221
492 0.000226
493 0.000191
494 0.000169
495 0.000157
496 0.000177
497 0.000205
498 0.000229
499 0.000248
500 0.000276
501 0.000270
502 0.000272
503 0.000268
504 0.000269
505 0.000257
506 0.000258
507 0.000266
508 0.000269
509 0.000256
510 0.000243
511 0.000231
512 0.000231
513 0.000255
514 0.000294
515 0.000327
516 0.000358
517 0.000357
518 0.000348
519 0.000328
520 0.000306
521 0.000264
522 0.000232
523 0.000221
524 0.000213
525 0.000207
526 0.000193
527 0.000189
528 0.000185
529 0.000195
530 0.000182
531 0.000171
532 0.000165
533 0.000146
534 0.000110
535 0.000106
536 0.000115
537 0.000133
538 0.000155
539 0.000165
540 0.000150
541 0.000127
542 0.000116
543 0.000104
544 0.000106
545 0.000112
546 0.000112
547 0.000112
548 0.000102
549 0.000085
550 0.000077
551 0.000074
552 0.000067
553 0.000085
554 0.000092
555 0.000078
556 0.000060
557 0.000039
558 0.000034
559 0.000044
560 0.000054
561 0.000073
562 0.000090
563 0.000093
564 0.000088
565 0.000065
566 0.000032
567 0.000003
568 -0.000028
569 -0.000053
570 -0.000086
571 -0.000097
572 -0.000112
573 -0.000098
574 -0.000101
575 -0.000113
576 -0.000121
577 -0.000120
578 -0.000126
579 -0.000132
580 -0.000146
581 -0.000163
582 -0.000185
583 -0.000209
584 -0.000211
585 -0.000213
586 -0.000193
587 -0.000178
588 -0.000187
589 -0.000165
590 -0.000141
591 -0.000118
592 -0.000119
593 -0.000128
594 -0.000136
595 -0.000146
596 -0.000146
597 -0.000141
598 -0.000119
599 -0.000090
600 -0.000061
601 -0.000035
602 -0.000009
603 0.000011
604 -0.000002
605 -0.000029
606 -0.000044
607 -0.000028
608 -0.000030
609 -0.000021
610 -0.000014
611 -0.000021
612 -0.000050
613 -0.000051
614 -0.000059
615 -0.000059
616 -0.000044
617 -0.000017
618 0.000009
619 0.000013
620 0.000009
621 0.000005
622 0.000001
623 -0.000033
624 -0.000063
625 -0.000063
626 -0.000058
627 -0.000042
628 0.000000
629 0.000026
630 0.000043
631 0.000081
632 0.000111
633 0.000109
634 0.000084
635 0.000072
636 0.000076
637 0.000094
638 0.000099
639 0.000097
640 0.000108
641 0.000128
642 0.000135
643 0.000150
644 0.000168
645 0.000169
646 0.000175
647 0.000163
648 0.000141
649 0.000110
650 0.000088
651 0.000073
652 0.000069
653 0.000083
654 0.000116
655 0.000141
656 0.000154
657 0.000155
658 0.000153
659 0.000129
660 0.000121
661 0.000122
662 0.000135
663 0.000141
664 0.000155
665 0.000172
666 0.000185
667 0.000188
668 0.000186
669 0.000172
670 0.000179
671 0.000170
672 0.000169
673 0.000163
674 0.000156
675 0.000152
676 0.000159
677 0.000164
678 0.000157
679 0.000167
680 0.000178
681 0.000189
682 0.000190
683 0.000208
684 0.000216
685 0.000220
686 0.000212
687 0.000202
688 0.000200
689 0.000199
690 0.000188
691 0.000184
692 0.000186
693 0.000184
694 0.000181
695 0.000178
696 0.000163
697 0.000143
698 0.000138
699 0.000137
700 0.000148
701 0.000171
702 0.000192
703 0.000229
704 0.000244
705 0.000246
706 0.000251
707 0.000251
708 0.000253
709 0.000247
710 0.000223
711 0.000190
712 0.000164
713 0.000132
714 0.000076
715 0.000030
716 0.000017
717 0.000024
718 0.000025
719 0.000024
720 0.000032
721 0.000036
722 0.000029
723 0.000014
724 0.000031
725 0.000043
726 0.000059
727 0.000078
728 0.000088
729 0.000095
730 0.000104
731 0.000093
732 0.000098
733 0.000096
734 0.000096
735 0.000109
736 0.000130
737 0.000145
738 0.000152
739 0.000164
740 0.000169
741 0.000174
742 0.000192
743 0.000210
744 0.000234
745 0.000258
746 0.000276
747 0.000294
748 0.000322
749 0.000335
750 0.000336
751 0.000326
752 0.000304
753 0.000277
754 0.000251
755 0.000247
756 0.000242
757 0.000234
758 0.000236
759 0.000240
760 0.000247
761 0.000253
762 0.000259
763 0.000246
764 0.000213
765 0.000210
766 0.000199
767 0.000189
768 0.000172
769 0.000157
770 0.000136
771 0.000140
772 0.000158
773 0.000185
774 0.000222
775 0.000250
776 0.000256
777 0.000268
778 0.000257
779 0.000245
780 0.000231
781 0.000214
782 0.000206
783 0.000213
784 0.000230
785 0.000229
786 0.000216
787 0.000216
788 0.000202
789 0.000205
790 0.000207
791 0.000217
792 0.000219
793 0.000213
794 0.000209
795 0.000203
796 0.000199
797 0.000208
798 0.000220
799 0.000223
800 0.000204
801 0.000186
802 0.000178
803 0.000160
804 0.000128
805 0.000101
806 0.000091
807 0.000093
808 0.000106
809 0.000116
