# i correlation
1 0.003074
2 0.002782
3 0.002532
4 0.002359
5 0.002194
6 0.002061
7 0.001937
8 0.001845
9 0.001765
10 0.001700
11 0.001620
12 0.001546
13 0.001451
14 0.001367
15 0.001286
16 0.001247
17 0.001205
18 0.001164
19 0.001144
20 0.001097
21 0.001028
22 0.000956
23 0.000895
24 0.000851
25 0.000842
26 0.000834
27 0.000816
28 0.000802
29 0.000821
30 0.000851
31 0.000883
32 0.000868
33 0.000905
34 0.000958
35 0.001016
36 0.001032
37 0.001053
38 0.001063
39 0.001055
40 0.001024
41 0.001011
42 0.001020
43 0.000995
44 0.000999
45 0.001020
46 0.001005
47 0.001037
48 0.001079
49 0.001111
50 0.001129
51 0.001161
52 0.001147
53 0.001207
54 0.001235
55 0.001256
56 0.001235
57 0.001198
58 0.001155
59 0.001130
60 0.001109
61 0.001107
62 0.001087
63 0.001098
64 0.001105
65 0.001133
66 0.001156
67 0.001175
68 0.001178
69 0.001186
70 0.001209
71 0.001200
72 0.001233
73 0.001285
74 0.001283
75 0.001245
76 0.001241
77 0.001255
78 0.001272
79 0.001293
80 0.001293
81 0.001270
82 0.001252
83 0.001201
84 0.001196
85 0.001191
86 0.001185
87 0.001197
88 0.001195
89 0.001196
90 0.001179
91 0.001133
92 0.001132
93 0.001116
94 0.001052
95 0.000993
96 0.000987
97 0.000960
98 0.000960
99 0.000921
100 0.000914
101 0.000904
102 0.000892
103 0.000873
104 0.000900
105 0.000914
106 0.000896
107 0.000918
108 0.000928
109 0.000954
110 0.000943
111 0.000917
112 0.000902
113 0.000892
114 0.000933
115 0.000929
116 0.000925
117 0.000914
118 0.000920
119 0.000882
120 0.000847
121 0.000807
122 0.000801
123 0.000790
124 0.000764
125 0.000740
126 0.000751
127 0.000784
128 0.000820
129 0.000820
130 0.000800
131 0.000804
132 0.000794
133 0.000806
134 0.000844
135 0.000875
136 0.000875
137 0.000861
138 0.000846
139 0.000819
140 0.000821
141 0.000820
142 0.000809
143 0.000801
144 0.000773
145 0.000758
146 0.000790
147 0.000837
148 0.000833
149 0.000853
150 0.000821
151 0.000814
152 0.000830
153 0.000851
154 0.000843
155 0.000847
156 0.000848
157 0.000852
158 0.000877
159 0.000866
160 0.000853
161 0.000825
162 0.000828
163 0.000848
164 0.000833
165 0.000849
166 0.000870
167 0.000897
168 0.000913
169 0.000915
170 0.000910
171 0.000906
172 0.000905
173 0.000908
174 0.000894
175 0.000866
176 0.000864
177 0.000828
178 0.000763
179 0.000662
180 0.000564
181 0.000479
182 0.000446
183 0.000421
184 0.000426
185 0.000448
186 0.000465
187 0.000452
188 0.000464
189 0.000465
190 0.000456
191 0.000446
192 0.000437
193 0.000445
194 0.000464
195 0.000480
196 0.000519
197 0.000568
198 0.000569
199 0.000537
200 0.000539
201 0.000563
202 0.000584
203 0.000565
204 0.000544
205 0.000553
206 0.000591
207 0.000655
208 0.000679
209 0.000672
210 0.000670
211 0.000673
212 0.000664
213 0.000667
214 0.000654
215 0.000625
216 0.000636
217 0.000600
218 0.000608
219 0.000644
220 0.000679
221 0.000714
222 0.000746
223 0.000767
224 0.000775
225 0.000762
226 0.000758
227 0.000753
228 0.000741
229 0.000694
230 0.000651
231 0.000648
232 0.000661
233 0.000651
234 0.000592
235 0.000539
236 0.000514
237 0.000488
238 0.000447
239 0.000432
240 0.000432
241 0.000461
242 0.000509
243 0.000539
244 0.000548
245 0.000552
246 0.000595
247 0.000621
248 0.000608
249 0.000618
250 0.000603
251 0.000560
252 0.000522
253 0.000490
254 0.000463
255 0.000459
256 0.000480
257 0.000490
258 0.000515
259 0.000504
260 0.000451
261 0.000433
262 0.000447
263 0.000504
264 0.000507
265 0.000465
266 0.000435
267 0.000420
268 0.000384
269 0.000369
270 0.000357
271 0.000336
272 0.000330
273 0.000319
274 0.000342
275 0.000370
276 0.000370
277 0.000365
278 0.000346
279 0.000305
280 0.000261
281 0.000233
282 0.000230
283 0.000231
284 0.000245
285 0.000251
286 0.000244
287 0.000254
288 0.000260
289 0.000275
290 0.000283
291 0.000257
292 0.000244
293 0.000258
294 0.000300
295 0.000346
296 0.000375
297 0.000422
298 0.000464
299 0.000485
300 0.000519
301 0.000554
302 0.000577
303 0.000590
304 0.000590
305 0.000626
306 0.000626
307 0.000642
308 0.000632
309 0.000651
310 0.000652
311 0.000649
312 0.000657
313 0.000669
314 0.000671
315 0.000660
316 0.000636
317 0.000574
318 0.000507
319 0.000472
320 0.000450
321 0.000403
322 0.000357
323 0.000346
324 0.000325
325 0.000321
326 0.000306
327 0.000287
328 0.000285
329 0.000278
330 0.000247
331 0.000220
332 0.000232
333 0.000227
334 0.000229
335 0.000231
336 0.000242
337 0.000227
338 0.000210
339 0.000208
340 0.000211
341 0.000190
342 0.000201
343 0.000193
344 0.000196
345 0.000198
346 0.000171
347 0.000166
348 0.000190
349 0.000194
350 0.000218
351 0.000228
352 0.000203
353 0.000145
354 0.000129
355 0.000118
356 0.000095
357 0.000055
358 0.000029
359 0.000008
360 0.000039
361 0.000061
362 0.000097
363 0.000133
364 0.000160
365 0.000165
366 0.000161
367 0.000156
368 0.000163
369 0.000155
370 0.000176
371 0.000181
372 0.000170
373 0.000136
374 0.000131
375 0.000123
376 0.000114
377 0.000132
378 0.000157
379 0.000189
380 0.000223
381 0.000261
382 0.000287
383 0.000288
384 0.000289
385 0.000269
386 0.000271
387 0.000276
388 0.000245
389 0.000246
390 0.000262
391 0.000255
392 0.000248
393 0.000231
394 0.000198
395 0.000185
396 0.000132
397 0.000117
398 0.000128
399 0.000151
400 0.000151
401 0.000150
402 0.000122
403 0.000095
404 0.000076
405 0.000083
406 0.000057
407 0.000046
408 0.000014
409 -0.000009
410 -0.000038
411 -0.000075
412 -0.000086
413 -0.000091
414 -0.000089
415 -0.000086
416 -0.000060
417 -0.000014
418 0.000018
419 0.000046
420 0.000059
421 0.000087
422 0.000082
423 0.000063
424 0.000054
425 0.000044
426 0.000020
427 -0.000037
428 -0.000079
429 -0.000099
430 -0.000137
431 -0.000165
432 -0.000162
433 -0.000152
434 -0.000114
435 -0.000080
436 -0.000062
437 -0.000041
438 -0.000044
439 -0.000048
440 -0.000051
441 -0.000068
442 -0.000090
443 -0.000080
444 -0.000071
445 -0.000068
446 -0.000070
447 -0.000078
448 -0.000065
449 -0.000075
450 -0.000071
451 -0.000094
452 -0.000086
453 -0.000093
454 -0.000074
455 -0.000093
456 -0.000080
457 -0.000086
458 -0.000097
459 -0.000101
460 -0.000100
461 -0.000130
462 -0.000146
463 -0.000167
464 -0.000184
465 -0.000200
466 -0.000223
467 -0.000231
468 -0.000214
469 -0.000184
470 -0.000137
471 -0.000108
472 -0.000095
473 -0.000085
474 -0.000061
475 -0.000055
476 -0.000070
477 -0.000086
478 -0.000114
479 -0.000083
480 -0.000065
481 -0.000062
482 -0.000070
483 -0.000090
484 -0.000128
485 -0.000139
486 -0.000159
487 -0.000161
488 -0.000160
489 -0.000164
490 -0.000157
491 -0.000134
492 -0.000121
493 -0.000132
494 -0.000152
495 -0.000145
496 -0.000114
497 -0.000082
498 -0.000060
499 -0.000045
500 -0.000051
501 -0.000059
502 -0.000075
503 -0.000090
504 -0.000109
505 -0.000095
506 -0.000078
507 -0.000052
508 -0.000009
509 0.000015
510 0.000038
511 0.000047
512 0.000026
513 0.000024
514 0.000014
515 0.000017
516 0.000015
517 0.000010
518 0.000009
519 -0.000025
520 -0.000055
521 -0.000059
522 -0.000072
523 -0.000095
524 -0.000114
525 -0.000116
526 -0.000099
527 -0.000084
528 -0.000088
529 -0.000104
530 -0.000121
531 -0.000160
532 -0.000208
533 -0.000219
534 -0.000223
535 -0.000214
536 -0.000199
537 -0.000213
538 -0.000229
539 -0.000236
540 -0.000260
541 -0.000280
542 -0.000292
543 -0.000313
544 -0.000333
545 -0.000350
546 -0.000329
547 -0.000285
548 -0.000255
549 -0.000257
550 -0.000259
551 -0.000267
552 -0.000245
553 -0.000215
554 -0.000208
555 -0.000221
556 -0.000215
557 -0.000196
558 -0.000180
559 -0.000162
560 -0.000156
561 -0.000146
562 -0.000152
563 -0.000149
564 -0.000140
565 -0.000140
566 -0.000139
567 -0.000150
568 -0.000160
569 -0.000164
570 -0.000170
571 -0.000181
572 -0.000173
573 -0.000175
574 -0.000175
575 -0.000193
576 -0.000209
577 -0.000217
578 -0.000207
579 -0.000210
580 -0.000230
581 -0.000237
582 -0.000248
583 -0.000246
584 -0.000222
585 -0.000223
586 -0.000220
587 -0.000217
588 -0.000212
589 -0.000204
590 -0.000186
591 -0.000171
592 -0.000161
593 -0.000169
594 -0.000177
595 -0.000181
596 -0.000210
597 -0.000201
598 -0.000193
599 -0.000217
600 -0.000240
601 -0.000253
602 -0.000247
603 -0.000224
604 -0.000234
605 -0.000239
606 -0.000234
607 -0.000206
608 -0.000190
609 -0.000179
610 -0.000157
611 -0.000128
612 -0.000099
613 -0.000070
614 -0.000037
615 -0.000024
616 -0.000034
617 -0.000035
618 -0.000045
619 -0.000058
620 -0.000071
621 -0.000057
622 -0.000040
623 -0.000014
624 -0.000005
625 0.000001
626 -0.000005
627 -0.000001
628 -0.000024
629 -0.000042
630 -0.000075
631 -0.000090
632 -0.000103
633 -0.000112
634 -0.000119
635 -0.000130
636 -0.000136
637 -0.000139
638 -0.000142
639 -0.000140
640 -0.000131
641 -0.000136
642 -0.000140
643 -0.000134
644 -0.000120
645 -0.000106
646 -0.000103
647 -0.000095
648 -0.000083
649 -0.000102
650 -0.000132
651 -0.000159
652 -0.000186
653 -0.000217
654 -0.000240
655 -0.000259
656 -0.000258
657 -0.000239
658 -0.000225
659 -0.000225
660 -0.000239
661 -0.000229
662 -0.000217
663 -0.000187
664 -0.000150
665 -0.000117
666 -0.000092
667 -0.000078
668 -0.000057
669 -0.000059
670 -0.000045
671 -0.000034
672 -0.000055
673 -0.000066
674 -0.000087
675 -0.000084
676 -0.000055
677 -0.000026
678 -0.000016
679 -0.000022
680 -0.000032
681 -0.000031
682 -0.000013
683 -0.000005
684 0.000003
685 0.000001
686 -0.000028
687 -0.000037
688 -0.000052
689 -0.000072
690 -0.000099
691 -0.000123
692 -0.000129
693 -0.000134
694 -0.000141
695 -0.000129
696 -0.000118
697 -0.000127
698 -0.000146
699 -0.000142
700 -0.000140
701 -0.000148
702 -0.000150
703 -0.000147
704 -0.000144
705 -0.000149
706 -0.000139
707 -0.000146
708 -0.000153
709 -0.000176
710 -0.000194
711 -0.000192
712 -0.000166
713 -0.000172
714 -0.000173
715 -0.000163
716 -0.000144
717 -0.000132
718 -0.000120
719 -0.000118
720 -0.000119
721 -0.000097
722 -0.000081
723 -0.000057
724 -0.000038
725 -0.000014
726 -0.000002
727 0.000010
728 0.000002
729 -0.000007
730 -0.000022
731 -0.000024
732 -0.000022
733 -0.000027
734 -0.000033
735 -0.000040
736 -0.000040
737 -0.000024
738 -0.000022
739 -0.000037
740 -0.000057
741 -0.000062
742 -0.000068
743 -0.000075
744 -0.000072
745 -0.000068
746 -0.000071
747 -0.000071
748 -0.000073
749 -0.000041
750 -0.000012
751 -0.000010
752 -0.000014
753 -0.000013
754 -0.000004
755 0.000014
756 0.000020
757 0.000025
758 0.000029
759 0.000031
760 0.000035
761 0.000040
762 0.000040
763 0.000036
764 0.000020
765 0.000009
766 0.000004
767 0.000001
768 -0.000016
769 -0.000013
770 -0.000021
771 -0.000029
772 -0.000034
773 -0.000037
774 -0.000042
775 -0.000043
776 -0.000052
777 -0.000063
778 -0.000079
779 -0.000078
780 -0.000064
781 -0.000063
782 -0.000074
783 -0.000080
784 -0.000072
785 -0.000047
786 -0.000024
787 -0.000022
788 -0.000015
789 -0.000007
790 0.000004
791 0.000006
792 0.000010
793 0.000004
794 -0.000001
795 -0.000004
796 -0.000009
797 -0.000012
798 -0.000014
799 -0.000011
800 -0.000004
801 -0.000011
802 -0.000023
803 -0.000030
804 -0.000027
805 -0.000020
806 -0.000023
807 -0.000029
808 -0.000039
809 -0.000036
