# i correlation
1 0.003253
2 0.003026
3 0.002819
4 0.002644
5 0.002512
6 0.002401
7 0.002302
8 0.002209
9 0.002130
10 0.002061
11 0.001989
12 0.001950
13 0.001907
14 0.001868
15 0.001820
16 0.001783
17 0.001763
18 0.001730
19 0.001738
20 0.001761
21 0.001800
22 0.001798
23 0.001831
24 0.001865
25 0.001902
26 0.001907
27 0.001923
28 0.001878
29 0.001836
30 0.001763
31 0.001695
32 0.001656
33 0.001647
34 0.001652
35 0.001638
36 0.001620
37 0.001588
38 0.001534
39 0.001498
40 0.001469
41 0.001453
42 0.001424
43 0.001424
44 0.001423
45 0.001433
46 0.001427
47 0.001452
48 0.001482
49 0.001523
50 0.001586
51 0.001589
52 0.001589
53 0.001594
54 0.001593
55 0.001623
56 0.001621
57 0.001582
58 0.001554
59 0.001502
60 0.001488
61 0.001475
62 0.001455
63 0.001414
64 0.001395
65 0.001334
66 0.001313
67 0.001290
68 0.001290
69 0.001244
70 0.001240
71 0.001234
72 0.001218
73 0.001249
74 0.001258
75 0.001296
76 0.001314
77 0.001322
78 0.001309
79 0.001309
80 0.001316
81 0.001322
82 0.001358
83 0.001387
84 0.001413
85 0.001425
86 0.001386
87 0.001376
88 0.001362
89 0.001313
90 0.001277
91 0.001273
92 0.001285
93 0.001300
94 0.001302
95 0.001270
96 0.001253
97 0.001246
98 0.001228
99 0.001188
100 0.001180
101 0.001180
102 0.001143
103 0.001145
104 0.001129
105 0.001118
106 0.001119
107 0.001077
108 0.001023
109 0.001024
110 0.001015
111 0.001028
112 0.001031
113 0.001016
114 0.000964
115 0.000923
116 0.000885
117 0.000897
118 0.000915
119 0.000899
120 0.000872
121 0.000864
122 0.000852
123 0.000826
124 0.000789
125 0.000763
126 0.000782
127 0.000800
128 0.000832
129 0.000846
130 0.000864
131 0.000891
132 0.000907
133 0.000897
134 0.000918
135 0.000908
136 0.000911
137 0.000926
138 0.000971
139 0.000981
140 0.000984
141 0.000981
142 0.000979
143 0.000989
144 0.000992
145 0.000972
146 0.000972
147 0.000941
148 0.000935
149 0.000916
150 0.000901
151 0.000896
152 0.000894
153 0.000879
154 0.000868
155 0.000882
156 0.000890
157 0.000885
158 0.000896
159 0.000878
160 0.000845
161 0.000843
162 0.000831
163 0.000805
164 0.000787
165 0.000788
166 0.000767
167 0.000807
168 0.000825
169 0.000821
170 0.000805
171 0.000815
172 0.000819
173 0.000841
174 0.000842
175 0.000870
176 0.000860
177 0.000861
178 0.000850
179 0.000859
180 0.000858
181 0.000866
182 0.000853
183 0.000832
184 0.000804
185 0.000767
186 0.000747
187 0.000721
188 0.000732
189 0.000732
190 0.000718
191 0.000711
192 0.000721
193 0.000726
194 0.000748
195 0.000743
196 0.000740
197 0.000707
198 0.000711
199 0.000677
200 0.000659
201 0.000678
202 0.000713
203 0.000704
204 0.000730
205 0.000740
206 0.000740
207 0.000742
208 0.000749
209 0.000755
210 0.000762
211 0.000783
212 0.000772
213 0.000757
214 0.000759
215 0.000736
216 0.000740
217 0.000738
218 0.000760
219 0.000773
220 0.000779
221 0.000780
222 0.000794
223 0.000812
224 0.000809
225 0.000839
226 0.000834
227 0.000840
228 0.000855
229 0.000855
230 0.000850
231 0.000878
232 0.000895
233 0.000890
234 0.000902
235 0.000902
236 0.000904
237 0.000921
238 0.000931
239 0.000929
240 0.000909
241 0.000899
242 0.000889
243 0.000897
244 0.000942
245 0.001001
246 0.001028
247 0.001051
248 0.001080
249 0.001118
250 0.001128
251 0.001148
252 0.001177
253 0.001179
254 0.001181
255 0.001204
256 0.001201
257 0.001191
258 0.001185
259 0.001197
260 0.001196
261 0.001207
262 0.001201
263 0.001189
264 0.001160
265 0.001141
266 0.001125
267 0.001063
268 0.001057
269 0.001053
270 0.001028
271 0.001016
272 0.001024
273 0.001027
274 0.001014
275 0.001004
276 0.000979
277 0.000952
278 0.000925
279 0.000899
280 0.000889
281 0.000865
282 0.000849
283 0.000810
284 0.000793
285 0.000787
286 0.000786
287 0.000785
288 0.000762
289 0.000769
290 0.000773
291 0.000747
292 0.000700
293 0.000660
294 0.000617
295 0.000632
296 0.000645
297 0.000646
298 0.000665
299 0.000693
300 0.000703
301 0.000696
302 0.000721
303 0.000712
304 0.000719
305 0.000725
306 0.000696
307 0.000684
308 0.000674
309 0.000670
310 0.000701
311 0.000728
312 0.000730
313 0.000728
314 0.000718
315 0.000710
316 0.000706
317 0.000707
318 0.000688
319 0.000690
320 0.000679
321 0.000666
322 0.000664
323 0.000672
324 0.000680
325 0.000679
326 0.000670
327 0.000660
328 0.000619
329 0.000598
330 0.000587
331 0.000587
332 0.000593
333 0.000588
334 0.000599
335 0.000595
336 0.000599
337 0.000621
338 0.000635
339 0.000648
340 0.000678
341 0.000683
342 0.000677
343 0.000663
344 0.000658
345 0.000668
346 0.000676
347 0.000672
348 0.000696
349 0.000698
350 0.000694
351 0.000681
352 0.000673
353 0.000676
354 0.000664
355 0.000654
356 0.000636
357 0.000641
358 0.000620
359 0.000614
360 0.000615
361 0.000583
362 0.000561
363 0.000534
364 0.000509
365 0.000495
366 0.000501
367 0.000509
368 0.000489
369 0.000473
370 0.000439
371 0.000403
372 0.000388
373 0.000366
374 0.000348
375 0.000357
376 0.000354
377 0.000363
378 0.000352
379 0.000345
380 0.000328
381 0.000327
382 0.000338
383 0.000362
384 0.000386
385 0.000403
386 0.000425
387 0.000437
388 0.000415
389 0.000429
390 0.000455
391 0.000479
392 0.000510
393 0.000518
394 0.000513
395 0.000517
396 0.000517
397 0.000519
398 0.000512
399 0.000494
400 0.000473
401 0.000463
402 0.000477
403 0.000510
404 0.000544
405 0.000561
406 0.000590
407 0.000593
408 0.000593
409 0.000582
410 0.000569
411 0.000567
412 0.000578
413 0.000576
414 0.000560
415 0.000549
416 0.000552
417 0.000538
418 0.000505
419 0.000466
420 0.000463
421 0.000441
422 0.000405
423 0.000367
424 0.000344
425 0.000325
426 0.000315
427 0.000314
428 0.000331
429 0.000331
430 0.000360
431 0.000375
432 0.000400
433 0.000412
434 0.000415
435 0.000412
436 0.000432
437 0.000458
438 0.000461
439 0.000484
440 0.000521
441 0.000558
442 0.000570
443 0.000560
444 0.000535
445 0.000527
446 0.000502
447 0.000490
448 0.000455
449 0.000430
450 0.000395
451 0.000351
452 0.000325
453 0.000320
454 0.000338
455 0.000330
456 0.000310
457 0.000324
458 0.000322
459 0.000310
460 0.000337
461 0.000349
462 0.000358
463 0.000377
464 0.000383
465 0.000372
466 0.000383
467 0.000405
468 0.000407
469 0.000384
470 0.000395
471 0.000374
472 0.000361
473 0.000353
474 0.000323
475 0.000292
476 0.000293
477 0.000295
478 0.000299
479 0.000308
480 0.000294
481 0.000297
482 0.000294
483 0.000289
484 0.000287
485 0.000283
486 0.000300
487 0.000319
488 0.000338
489 0.000383
490 0.000404
491 0.000446
492 0.000477
493 0.000490
494 0.000510
495 0.000512
496 0.000518
497 0.000539
498 0.000543
499 0.000533
500 0.000540
501 0.000541
502 0.000520
503 0.000524
504 0.000541
505 0.000543
506 0.000535
507 0.000525
508 0.000523
509 0.000510
510 0.000506
511 0.000472
512 0.000434
513 0.000440
514 0.000429
515 0.000431
516 0.000440
517 0.000438
518 0.000473
519 0.000465
520 0.000475
521 0.000487
522 0.000500
523 0.000511
524 0.000531
525 0.000544
526 0.000536
527 0.000518
528 0.000502
529 0.000488
530 0.000479
531 0.000461
532 0.000436
533 0.000438
534 0.000454
535 0.000457
536 0.000441
537 0.000421
538 0.000407
539 0.000378
540 0.000344
541 0.000312
542 0.000317
543 0.000324
544 0.000320
545 0.000331
546 0.000325
547 0.000354
548 0.000371
549 0.000382
550 0.000383
551 0.000384
552 0.000376
553 0.000362
554 0.000347
555 0.000335
556 0.000309
557 0.000272
558 0.000291
559 0.000320
560 0.000357
561 0.000381
562 0.000370
563 0.000371
564 0.000382
565 0.000389
566 0.000394
567 0.000373
568 0.000365
569 0.000344
570 0.000344
571 0.000354
572 0.000346
573 0.000355
574 0.000367
575 0.000383
576 0.000398
577 0.000375
578 0.000365
579 0.000366
580 0.000366
581 0.000368
582 0.000386
583 0.000397
584 0.000404
585 0.000438
586 0.000483
587 0.000505
588 0.000530
589 0.000537
590 0.000525
591 0.000503
592 0.000486
593 0.000464
594 0.000438
595 0.000433
596 0.000411
597 0.000401
598 0.000406
599 0.000401
600 0.000407
601 0.000403
602 0.000398
603 0.000402
604 0.000399
605 0.000379
606 0.000361
607 0.000342
608 0.000326
609 0.000341
610 0.000364
611 0.000376
612 0.000388
613 0.000406
614 0.000427
615 0.000463
616 0.000499
617 0.000522
618 0.000542
619 0.000551
620 0.000559
621 0.000559
622 0.000573
623 0.000565
624 0.000533
625 0.000506
626 0.000487
627 0.000456
628 0.000420
629 0.000393
630 0.000360
631 0.000344
632 0.000316
633 0.000284
634 0.000282
635 0.000285
636 0.000304
637 0.000333
638 0.000355
639 0.000368
640 0.000372
641 0.000389
642 0.000402
643 0.000430
644 0.000453
645 0.000459
646 0.000459
647 0.000448
648 0.000464
649 0.000472
650 0.000479
651 0.000485
652 0.000495
653 0.000490
654 0.000485
655 0.000458
656 0.000451
657 0.000441
658 0.000445
659 0.000456
660 0.000445
661 0.000445
662 0.000452
663 0.000431
664 0.000442
665 0.000466
666 0.000486
667 0.000497
668 0.000491
669 0.000491
670 0.000490
671 0.000523
672 0.000551
673 0.000564
674 0.000567
675 0.000544
676 0.000522
677 0.000522
678 0.000518
679 0.000523
680 0.000511
681 0.000510
682 0.000503
683 0.000496
684 0.000468
685 0.000455
686 0.000459
687 0.000472
688 0.000461
689 0.000440
690 0.000415
691 0.000399
692 0.000401
693 0.000434
694 0.000452
695 0.000467
696 0.000469
697 0.000472
698 0.000485
699 0.000485
700 0.000477
701 0.000476
702 0.000478
703 0.000465
704 0.000459
705 0.000453
706 0.000457
707 0.000457
708 0.000451
709 0.000451
710 0.000454
711 0.000440
712 0.000443
713 0.000436
714 0.000444
715 0.000443
716 0.000461
717 0.000463
718 0.000465
719 0.000461
720 0.000463
721 0.000463
722 0.000481
723 0.000484
724 0.000476
725 0.000458
726 0.000465
727 0.000480
728 0.000480
729 0.000483
730 0.000473
731 0.000465
732 0.000470
733 0.000465
734 0.000455
735 0.000448
736 0.000436
737 0.000419
738 0.000402
739 0.000378
740 0.000365
741 0.000362
742 0.000340
743 0.000333
744 0.000320
745 0.000302
746 0.000290
747 0.000291
748 0.000287
749 0.000298
750 0.000306
751 0.000311
752 0.000312
753 0.000317
754 0.000344
755 0.000364
756 0.000376
757 0.000392
758 0.000395
759 0.000392
760 0.000391
761 0.000394
762 0.000400
763 0.000404
764 0.000396
765 0.000396
766 0.000385
767 0.000365
768 0.000353
769 0.000336
770 0.000319
771 0.000302
772 0.000291
773 0.000268
774 0.000254
775 0.000237
776 0.000229
777 0.000232
778 0.000241
779 0.000245
780 0.000258
781 0.000267
782 0.000268
783 0.000278
784 0.000297
785 0.000297
786 0.000286
787 0.000274
788 0.000262
789 0.000249
790 0.000249
791 0.000244
792 0.000240
793 0.000248
794 0.000251
795 0.000254
796 0.000251
797 0.000248
798 0.000241
799 0.000232
800 0.000215
801 0.000186
802 0.000157
803 0.000128
804 0.000113
805 0.000114
806 0.000107
807 0.000106
808 0.000111
809 0.000127
