# i correlation
1 0.003006
2 0.002729
3 0.002473
4 0.002280
5 0.002096
6 0.001949
7 0.001836
8 0.001762
9 0.001705
10 0.001672
11 0.001605
12 0.001577
13 0.001518
14 0.001479
15 0.001420
16 0.001384
17 0.001316
18 0.001231
19 0.001165
20 0.001122
21 0.001066
22 0.001010
23 0.000972
24 0.000931
25 0.000873
26 0.000828
27 0.000829
28 0.000819
29 0.000839
30 0.000860
31 0.000878
32 0.000866
33 0.000863
34 0.000876
35 0.000903
36 0.000981
37 0.001016
38 0.001055
39 0.001089
40 0.001105
41 0.001092
42 0.001051
43 0.001007
44 0.001003
45 0.001007
46 0.001021
47 0.001040
48 0.001080
49 0.001087
50 0.001114
51 0.001149
52 0.001172
53 0.001205
54 0.001205
55 0.001187
56 0.001204
57 0.001214
58 0.001233
59 0.001241
60 0.001250
61 0.001283
62 0.001297
63 0.001285
64 0.001218
65 0.001169
66 0.001119
67 0.001123
68 0.001139
69 0.001144
70 0.001141
71 0.001156
72 0.001160
73 0.001171
74 0.001182
75 0.001203
76 0.001238
77 0.001267
78 0.001260
79 0.001207
80 0.001136
81 0.001094
82 0.001013
83 0.000950
84 0.000900
85 0.000861
86 0.000808
87 0.000756
88 0.000748
89 0.000745
90 0.000751
91 0.000734
92 0.000730
93 0.000732
94 0.000748
95 0.000748
96 0.000734
97 0.000755
98 0.000781
99 0.000819
100 0.000856
101 0.000861
102 0.000895
103 0.000917
104 0.000927
105 0.000932
106 0.000952
107 0.001010
108 0.001030
109 0.001046
110 0.001072
111 0.001070
112 0.001110
113 0.001121
114 0.001163
115 0.001179
116 0.001181
117 0.001168
118 0.001143
119 0.001143
120 0.001147
121 0.001128
122 0.001123
123 0.001116
124 0.001105
125 0.001069
126 0.001074
127 0.001055
128 0.001033
129 0.000987
130 0.000930
131 0.000876
132 0.000816
133 0.000766
134 0.000720
135 0.000658
136 0.000610
137 0.000610
138 0.000618
139 0.000621
140 0.000629
141 0.000610
142 0.000576
143 0.000552
144 0.000552
145 0.000549
146 0.000590
147 0.000624
148 0.000637
149 0.000629
150 0.000680
151 0.000722
152 0.000760
153 0.000809
154 0.000809
155 0.000825
156 0.000820
157 0.000814
158 0.000796
159 0.000777
160 0.000769
161 0.000726
162 0.000731
163 0.000736
164 0.000723
165 0.000708
166 0.000690
167 0.000691
168 0.000710
169 0.000689
170 0.000682
171 0.000668
172 0.000627
173 0.000600
174 0.000595
175 0.000599
176 0.000576
177 0.000579
178 0.000605
179 0.000634
180 0.000645
181 0.000626
182 0.000629
183 0.000633
184 0.000653
185 0.000676
186 0.000718
187 0.000726
188 0.000749
189 0.000750
190 0.000770
191 0.000809
192 0.000838
193 0.000848
194 0.000865
195 0.000841
196 0.000823
197 0.000766
198 0.000747
199 0.000739
200 0.000752
201 0.000767
202 0.000837
203 0.000884
204 0.000919
205 0.000911
206 0.000889
207 0.000834
208 0.000799
209 0.000774
210 0.000773
211 0.000740
212 0.000711
213 0.000674
214 0.000651
215 0.000654
216 0.000669
217 0.000661
218 0.000650
219 0.000626
220 0.000618
221 0.000611
222 0.000605
223 0.000563
224 0.000552
225 0.000584
226 0.000644
227 0.000675
228 0.000715
229 0.000746
230 0.000767
231 0.000771
232 0.000788
233 0.000758
234 0.000734
235 0.000693
236 0.000674
237 0.000627
238 0.000625
239 0.000629
240 0.000644
241 0.000675
242 0.000703
243 0.000715
244 0.000746
245 0.000760
246 0.000759
247 0.000759
248 0.000752
249 0.000726
250 0.000694
251 0.000660
252 0.000627
253 0.000630
254 0.000645
255 0.000688
256 0.000735
257 0.000756
258 0.000747
259 0.000774
260 0.000767
261 0.000749
262 0.000744
263 0.000759
264 0.000792
265 0.000834
266 0.000867
267 0.000909
268 0.000916
269 0.000903
270 0.000887
271 0.000850
272 0.000802
273 0.000768
274 0.000748
275 0.000730
276 0.000689
277 0.000649
278 0.000630
279 0.000633
280 0.000642
281 0.000598
282 0.000555
283 0.000538
284 0.000529
285 0.000496
286 0.000446
287 0.000406
288 0.000371
289 0.000343
290 0.000316
291 0.000291
292 0.000258
293 0.000239
294 0.000247
295 0.000267
296 0.000294
297 0.000330
298 0.000378
299 0.000423
300 0.000457
301 0.000474
302 0.000486
303 0.000526
304 0.000544
305 0.000576
306 0.000626
307 0.000678
308 0.000710
309 0.000743
310 0.000786
311 0.000791
312 0.000829
313 0.000849
314 0.000853
315 0.000874
316 0.000895
317 0.000911
318 0.000912
319 0.000932
320 0.000959
321 0.000931
322 0.000913
323 0.000885
324 0.000865
325 0.000867
326 0.000859
327 0.000830
328 0.000810
329 0.000799
330 0.000790
331 0.000763
332 0.000758
333 0.000738
334 0.000705
335 0.000646
336 0.000612
337 0.000590
338 0.000564
339 0.000547
340 0.000522
341 0.000527
342 0.000529
343 0.000537
344 0.000527
345 0.000510
346 0.000501
347 0.000470
348 0.000457
349 0.000437
350 0.000407
351 0.000374
352 0.000348
353 0.000338
354 0.000327
355 0.000323
356 0.000352
357 0.000356
358 0.000364
359 0.000375
360 0.000382
361 0.000390
362 0.000412
363 0.000410
364 0.000398
365 0.000373
366 0.000360
367 0.000355
368 0.000387
369 0.000400
370 0.000445
371 0.000472
372 0.000513
373 0.000571
374 0.000597
375 0.000585
376 0.000564
377 0.000556
378 0.000560
379 0.000569
380 0.000561
381 0.000556
382 0.000591
383 0.000608
384 0.000640
385 0.000668
386 0.000664
387 0.000664
388 0.000658
389 0.000638
390 0.000604
391 0.000575
392 0.000562
393 0.000551
394 0.000553
395 0.000536
396 0.000509
397 0.000486
398 0.000449
399 0.000394
400 0.000359
401 0.000350
402 0.000336
403 0.000329
404 0.000333
405 0.000316
406 0.000339
407 0.000354
408 0.000357
409 0.000341
410 0.000335
411 0.000311
412 0.000302
413 0.000286
414 0.000287
415 0.000305
416 0.000296
417 0.000283
418 0.000298
419 0.000336
420 0.000392
421 0.000430
422 0.000480
423 0.000524
424 0.000580
425 0.000602
426 0.000611
427 0.000624
428 0.000609
429 0.000580
430 0.000591
431 0.000603
432 0.000632
433 0.000648
434 0.000664
435 0.000682
436 0.000696
437 0.000685
438 0.000673
439 0.000654
440 0.000624
441 0.000607
442 0.000608
443 0.000581
444 0.000559
445 0.000532
446 0.000515
447 0.000494
448 0.000481
449 0.000447
450 0.000424
451 0.000403
452 0.000369
453 0.000344
454 0.000330
455 0.000299
456 0.000267
457 0.000238
458 0.000230
459 0.000240
460 0.000239
461 0.000206
462 0.000190
463 0.000187
464 0.000145
465 0.000110
466 0.000102
467 0.000080
468 0.000052
469 0.000062
470 0.000088
471 0.000111
472 0.000134
473 0.000142
474 0.000146
475 0.000169
476 0.000174
477 0.000194
478 0.000209
479 0.000230
480 0.000240
481 0.000240
482 0.000265
483 0.000298
484 0.000326
485 0.000350
486 0.000373
487 0.000404
488 0.000411
489 0.000415
490 0.000412
491 0.000398
492 0.000399
493 0.000404
494 0.000404
495 0.000402
496 0.000410
497 0.000407
498 0.000408
499 0.000433
500 0.000461
501 0.000497
502 0.000505
503 0.000501
504 0.000484
505 0.000453
506 0.000422
507 0.000390
508 0.000374
509 0.000367
510 0.000378
511 0.000393
512 0.000389
513 0.000389
514 0.000392
515 0.000412
516 0.000429
517 0.000422
518 0.000399
519 0.000368
520 0.000351
521 0.000308
522 0.000260
523 0.000226
524 0.000183
525 0.000151
526 0.000132
527 0.000132
528 0.000132
529 0.000117
530 0.000139
531 0.000150
532 0.000177
533 0.000190
534 0.000201
535 0.000213
536 0.000207
537 0.000189
538 0.000180
539 0.000168
540 0.000153
541 0.000149
542 0.000158
543 0.000155
544 0.000160
545 0.000151
546 0.000141
547 0.000160
548 0.000188
549 0.000187
550 0.000185
551 0.000183
552 0.000203
553 0.000208
554 0.000224
555 0.000244
556 0.000268
557 0.000293
558 0.000312
559 0.000314
560 0.000303
561 0.000299
562 0.000285
563 0.000269
564 0.000266
565 0.000263
566 0.000254
567 0.000238
568 0.000222
569 0.000215
570 0.000197
571 0.000185
572 0.000198
573 0.000195
574 0.000191
575 0.000184
576 0.000169
577 0.000153
578 0.000159
579 0.000173
580 0.000165
581 0.000155
582 0.000157
583 0.000143
584 0.000121
585 0.000115
586 0.000103
587 0.000092
588 0.000079
589 0.000079
590 0.000072
591 0.000056
592 0.000048
593 0.000031
594 0.000037
595 0.000042
596 0.000058
597 0.000065
598 0.000078
599 0.000081
600 0.000090
601 0.000073
602 0.000044
603 0.000030
604 0.000030
605 0.000038
606 0.000032
607 0.000003
608 -0.000017
609 -0.000015
610 0.000012
611 0.000030
612 0.000043
613 0.000073
614 0.000070
615 0.000081
616 0.000088
617 0.000096
618 0.000097
619 0.000103
620 0.000085
621 0.000069
622 0.000057
623 0.000052
624 0.000036
625 0.000031
626 0.000024
627 0.000041
628 0.000049
629 0.000054
630 0.000069
631 0.000064
632 0.000071
633 0.000075
634 0.000083
635 0.000082
636 0.000084
637 0.000092
638 0.000111
639 0.000118
640 0.000140
641 0.000164
642 0.000182
643 0.000162
644 0.000148
645 0.000121
646 0.000101
647 0.000071
648 0.000054
649 0.000047
650 0.000045
651 0.000030
652 0.000043
653 0.000052
654 0.000069
655 0.000058
656 0.000038
657 0.000026
658 0.000022
659 0.000004
660 -0.000021
661 -0.000032
662 -0.000029
663 -0.000030
664 -0.000036
665 -0.000060
666 -0.000079
667 -0.000105
668 -0.000127
669 -0.000151
670 -0.000167
671 -0.000151
672 -0.000122
673 -0.000092
674 -0.000071
675 -0.000052
676 -0.000046
677 -0.000050
678 -0.000057
679 -0.000057
680 -0.000044
681 -0.000013
682 0.000007
683 0.000016
684 0.000011
685 0.000013
686 0.000023
687 0.000023
688 0.000027
689 0.000041
690 0.000062
691 0.000076
692 0.000083
693 0.000079
694 0.000081
695 0.000092
696 0.000080
697 0.000055
698 0.000060
699 0.000052
700 0.000039
701 0.000036
702 0.000050
703 0.000070
704 0.000085
705 0.000097
706 0.000096
707 0.000098
708 0.000089
709 0.000084
710 0.000081
711 0.000087
712 0.000101
713 0.000109
714 0.000114
715 0.000121
716 0.000124
717 0.000117
718 0.000111
719 0.000119
720 0.000123
721 0.000114
722 0.000119
723 0.000111
724 0.000088
725 0.000080
726 0.000070
727 0.000065
728 0.000044
729 0.000043
730 0.000046
731 0.000054
732 0.000066
733 0.000074
734 0.000089
735 0.000110
736 0.000104
737 0.000096
738 0.000086
739 0.000085
740 0.000097
741 0.000097
742 0.000116
743 0.000145
744 0.000170
745 0.000187
746 0.000200
747 0.000214
748 0.000218
749 0.000229
750 0.000238
751 0.000254
752 0.000278
753 0.000293
754 0.000295
755 0.000277
756 0.000283
757 0.000289
758 0.000294
759 0.000302
760 0.000311
761 0.000321
762 0.000328
763 0.000343
764 0.000365
765 0.000375
766 0.000385
767 0.000376
768 0.000369
769 0.000359
770 0.000333
771 0.000315
772 0.000280
773 0.000257
774 0.000244
775 0.000237
776 0.000240
777 0.000234
778 0.000235
779 0.000234
780 0.000233
781 0.000224
782 0.000212
783 0.000206
784 0.000180
785 0.000155
786 0.000136
787 0.000113
788 0.000096
789 0.000081
790 0.000075
791 0.000074
792 0.000077
793 0.000075
794 0.000066
795 0.000060
796 0.000055
797 0.000056
798 0.000057
799 0.000056
800 0.000074
801 0.000090
802 0.000104
803 0.000102
804 0.000099
805 0.000095
806 0.000096
807 0.000095
808 0.000092
809 0.000092
