# i correlation
1 0.002877
2 0.002570
3 0.002299
4 0.002094
5 0.001954
6 0.001840
7 0.001739
8 0.001656
9 0.001598
10 0.001558
11 0.001494
12 0.001468
13 0.001473
14 0.001489
15 0.001520
16 0.001574
17 0.001583
18 0.001514
19 0.001495
20 0.001469
21 0.001417
22 0.001381
23 0.001367
24 0.001332
25 0.001280
26 0.001261
27 0.001271
28 0.001277
29 0.001266
30 0.001199
31 0.001163
32 0.001136
33 0.001155
34 0.001170
35 0.001172
36 0.001207
37 0.001188
38 0.001130
39 0.001093
40 0.001083
41 0.001112
42 0.001169
43 0.001175
44 0.001187
45 0.001213
46 0.001198
47 0.001150
48 0.001150
49 0.001149
50 0.001170
51 0.001107
52 0.001059
53 0.001013
54 0.000962
55 0.000916
56 0.000865
57 0.000813
58 0.000816
59 0.000836
60 0.000890
61 0.000918
62 0.000952
63 0.000962
64 0.000969
65 0.000972
66 0.000964
67 0.000907
68 0.000862
69 0.000849
70 0.000830
71 0.000792
72 0.000729
73 0.000668
74 0.000605
75 0.000570
76 0.000551
77 0.000565
78 0.000613
79 0.000655
80 0.000633
81 0.000647
82 0.000684
83 0.000719
84 0.000714
85 0.000692
86 0.000684
87 0.000700
88 0.000681
89 0.000723
90 0.000725
91 0.000685
92 0.000657
93 0.000623
94 0.000625
95 0.000658
96 0.000628
97 0.000568
98 0.000561
99 0.000548
100 0.000528
101 0.000452
102 0.000407
103 0.000370
104 0.000377
105 0.000385
106 0.000403
107 0.000442
108 0.000450
109 0.000446
110 0.000462
111 0.000449
112 0.000457
113 0.000431
114 0.000440
115 0.000425
116 0.000422
117 0.000422
118 0.000433
119 0.000462
120 0.000483
121 0.000489
122 0.000511
123 0.000569
124 0.000578
125 0.000573
126 0.000560
127 0.000565
128 0.000563
129 0.000580
130 0.000558
131 0.000570
132 0.000594
133 0.000585
134 0.000599
135 0.000615
136 0.000604
137 0.000606
138 0.000596
139 0.000579
140 0.000562
141 0.000545
142 0.000494
143 0.000490
144 0.000467
145 0.000465
146 0.000424
147 0.000417
148 0.000414
149 0.000407
150 0.000403
151 0.000386
152 0.000388
153 0.000407
154 0.000451
155 0.000506
156 0.000533
157 0.000546
158 0.000548
159 0.000533
160 0.000521
161 0.000478
162 0.000413
163 0.000365
164 0.000357
165 0.000333
166 0.000286
167 0.000234
168 0.000196
169 0.000186
170 0.000183
171 0.000223
172 0.000278
173 0.000316
174 0.000348
175 0.000315
176 0.000292
177 0.000296
178 0.000330
179 0.000350
180 0.000362
181 0.000359
182 0.000345
183 0.000362
184 0.000366
185 0.000360
186 0.000341
187 0.000331
188 0.000307
189 0.000292
190 0.000290
191 0.000303
192 0.000303
193 0.000314
194 0.000339
195 0.000355
196 0.000358
197 0.000374
198 0.000375
199 0.000368
200 0.000338
201 0.000331
202 0.000299
203 0.000250
204 0.000207
205 0.000169
206 0.000198
207 0.000225
208 0.000239
209 0.000212
210 0.000198
211 0.000167
212 0.000161
213 0.000156
214 0.000212
215 0.000244
216 0.000257
217 0.000263
218 0.000266
219 0.000275
220 0.000281
221 0.000312
222 0.000324
223 0.000358
224 0.000379
225 0.000326
226 0.000263
227 0.000215
228 0.000196
229 0.000207
230 0.000206
231 0.000162
232 0.000101
233 0.000071
234 0.000071
235 0.000050
236 0.000067
237 0.000074
238 0.000061
239 0.000099
240 0.000126
241 0.000122
242 0.000133
243 0.000141
244 0.000163
245 0.000170
246 0.000187
247 0.000193
248 0.000205
249 0.000223
250 0.000253
251 0.000278
252 0.000287
253 0.000264
254 0.000223
255 0.000202
256 0.000195
257 0.000187
258 0.000183
259 0.000188
260 0.000175
261 0.000179
262 0.000188
263 0.000182
264 0.000187
265 0.000182
266 0.000196
267 0.000222
268 0.000231
269 0.000226
270 0.000231
271 0.000218
272 0.000215
273 0.000242
274 0.000236
275 0.000258
276 0.000270
277 0.000270
278 0.000310
279 0.000323
280 0.000305
281 0.000304
282 0.000300
283 0.000312
284 0.000317
285 0.000330
286 0.000327
287 0.000308
288 0.000293
289 0.000276
290 0.000269
291 0.000278
292 0.000304
293 0.000332
294 0.000346
295 0.000329
296 0.000301
297 0.000302
298 0.000315
299 0.000363
300 0.000398
301 0.000468
302 0.000511
303 0.000555
304 0.000575
305 0.000559
306 0.000534
307 0.000511
308 0.000488
309 0.000481
310 0.000476
311 0.000467
312 0.000480
313 0.000489
314 0.000509
315 0.000533
316 0.000530
317 0.000536
318 0.000515
319 0.000523
320 0.000519
321 0.000513
322 0.000466
323 0.000388
324 0.000330
325 0.000282
326 0.000260
327 0.000245
328 0.000248
329 0.000261
330 0.000272
331 0.000276
332 0.000270
333 0.000251
334 0.000243
335 0.000219
336 0.000223
337 0.000227
338 0.000252
339 0.000277
340 0.000298
341 0.000319
342 0.000314
343 0.000316
344 0.000351
345 0.000361
346 0.000398
347 0.000412
348 0.000420
349 0.000440
350 0.000458
351 0.000467
352 0.000453
353 0.000459
354 0.000454
355 0.000455
356 0.000474
357 0.000472
358 0.000453
359 0.000421
360 0.000406
361 0.000400
362 0.000419
363 0.000463
364 0.000485
365 0.000515
366 0.000502
367 0.000479
368 0.000457
369 0.000478
370 0.000490
371 0.000499
372 0.000500
373 0.000480
374 0.000483
375 0.000472
376 0.000435
377 0.000415
378 0.000390
379 0.000396
380 0.000418
381 0.000433
382 0.000478
383 0.000484
384 0.000480
385 0.000473
386 0.000456
387 0.000454
388 0.000438
389 0.000446
390 0.000430
391 0.000421
392 0.000423
393 0.000449
394 0.000461
395 0.000461
396 0.000460
397 0.000429
398 0.000446
399 0.000496
400 0.000518
401 0.000522
402 0.000516
403 0.000498
404 0.000479
405 0.000450
406 0.000440
407 0.000417
408 0.000430
409 0.000448
410 0.000463
411 0.000471
412 0.000457
413 0.000448
414 0.000438
415 0.000445
416 0.000454
417 0.000425
418 0.000382
419 0.000345
420 0.000337
421 0.000311
422 0.000293
423 0.000292
424 0.000267
425 0.000261
426 0.000254
427 0.000259
428 0.000284
429 0.000298
430 0.000320
431 0.000358
432 0.000393
433 0.000418
434 0.000421
435 0.000488
436 0.000529
437 0.000549
438 0.000578
439 0.000578
440 0.000581
441 0.000538
442 0.000510
443 0.000477
444 0.000484
445 0.000467
446 0.000441
447 0.000420
448 0.000436
449 0.000423
450 0.000405
451 0.000393
452 0.000393
453 0.000395
454 0.000420
455 0.000407
456 0.000393
457 0.000363
458 0.000356
459 0.000342
460 0.000351
461 0.000338
462 0.000309
463 0.000295
464 0.000312
465 0.000341
466 0.000314
467 0.000272
468 0.000241
469 0.000227
470 0.000232
471 0.000248
472 0.000265
473 0.000303
474 0.000308
475 0.000318
476 0.000325
477 0.000361
478 0.000383
479 0.000416
480 0.000434
481 0.000443
482 0.000446
483 0.000416
484 0.000390
485 0.000394
486 0.000379
487 0.000373
488 0.000376
489 0.000393
490 0.000380
491 0.000375
492 0.000393
493 0.000404
494 0.000432
495 0.000433
496 0.000425
497 0.000398
498 0.000421
499 0.000467
500 0.000495
501 0.000533
502 0.000544
503 0.000535
504 0.000530
505 0.000511
506 0.000508
507 0.000493
508 0.000504
509 0.000505
510 0.000504
511 0.000463
512 0.000418
513 0.000370
514 0.000351
515 0.000358
516 0.000351
517 0.000342
518 0.000349
519 0.000341
520 0.000320
521 0.000323
522 0.000349
523 0.000385
524 0.000402
525 0.000415
526 0.000399
527 0.000401
528 0.000404
529 0.000391
530 0.000398
531 0.000388
532 0.000337
533 0.000296
534 0.000272
535 0.000255
536 0.000220
537 0.000239
538 0.000268
539 0.000280
540 0.000309
541 0.000299
542 0.000289
543 0.000327
544 0.000377
545 0.000406
546 0.000418
547 0.000401
548 0.000382
549 0.000347
550 0.000314
551 0.000293
552 0.000253
553 0.000210
554 0.000226
555 0.000224
556 0.000219
557 0.000210
558 0.000201
559 0.000189
560 0.000210
561 0.000225
562 0.000220
563 0.000226
564 0.000247
565 0.000261
566 0.000247
567 0.000267
568 0.000297
569 0.000282
570 0.000289
571 0.000303
572 0.000316
573 0.000315
574 0.000307
575 0.000281
576 0.000249
577 0.000229
578 0.000201
579 0.000184
580 0.000181
581 0.000152
582 0.000097
583 0.000063
584 0.000038
585 0.000037
586 0.000021
587 0.000035
588 0.000055
589 0.000066
590 0.000091
591 0.000106
592 0.000132
593 0.000174
594 0.000214
595 0.000230
596 0.000236
597 0.000225
598 0.000179
599 0.000141
600 0.000111
601 0.000073
602 0.000037
603 0.000027
604 0.000030
605 0.000028
606 0.000030
607 0.000022
608 0.000023
609 0.000036
610 0.000060
611 0.000081
612 0.000086
613 0.000105
614 0.000115
615 0.000126
616 0.000144
617 0.000151
618 0.000168
619 0.000170
620 0.000172
621 0.000174
622 0.000160
623 0.000142
624 0.000110
625 0.000067
626 0.000044
627 0.000037
628 0.000031
629 0.000046
630 0.000067
631 0.000066
632 0.000070
633 0.000100
634 0.000122
635 0.000133
636 0.000123
637 0.000129
638 0.000130
639 0.000135
640 0.000101
641 0.000065
642 0.000041
643 0.000031
644 0.000043
645 0.000038
646 0.000041
647 0.000054
648 0.000044
649 0.000040
650 0.000055
651 0.000060
652 0.000079
653 0.000098
654 0.000117
655 0.000141
656 0.000151
657 0.000175
658 0.000171
659 0.000170
660 0.000178
661 0.000182
662 0.000203
663 0.000237
664 0.000246
665 0.000252
666 0.000269
667 0.000281
668 0.000287
669 0.000264
670 0.000232
671 0.000201
672 0.000204
673 0.000206
674 0.000214
675 0.000215
676 0.000212
677 0.000221
678 0.000226
679 0.000248
680 0.000262
681 0.000270
682 0.000281
683 0.000309
684 0.000338
685 0.000336
686 0.000330
687 0.000326
688 0.000318
689 0.000319
690 0.000299
691 0.000265
692 0.000239
693 0.000240
694 0.000273
695 0.000296
696 0.000318
697 0.000343
698 0.000354
699 0.000370
700 0.000388
701 0.000404
702 0.000434
703 0.000448
704 0.000460
705 0.000465
706 0.000444
707 0.000396
708 0.000361
709 0.000319
710 0.000311
711 0.000318
712 0.000311
713 0.000318
714 0.000317
715 0.000338
716 0.000372
717 0.000401
718 0.000420
719 0.000410
720 0.000379
721 0.000347
722 0.000311
723 0.000284
724 0.000259
725 0.000249
726 0.000225
727 0.000204
728 0.000201
729 0.000219
730 0.000218
731 0.000223
732 0.000218
733 0.000211
734 0.000220
735 0.000200
736 0.000165
737 0.000144
738 0.000143
739 0.000160
740 0.000170
741 0.000166
742 0.000158
743 0.000151
744 0.000164
745 0.000173
746 0.000191
747 0.000200
748 0.000202
749 0.000190
750 0.000183
751 0.000184
752 0.000214
753 0.000220
754 0.000231
755 0.000230
756 0.000214
757 0.000203
758 0.000198
759 0.000187
760 0.000176
761 0.000191
762 0.000205
763 0.000198
764 0.000185
765 0.000167
766 0.000161
767 0.000166
768 0.000159
769 0.000143
770 0.000121
771 0.000106
772 0.000077
773 0.000047
774 0.000025
775 0.000010
776 0.000005
777 -0.000000
778 0.000001
779 0.000006
780 0.000002
781 -0.000009
782 -0.000014
783 -0.000031
784 -0.000034
785 -0.000047
786 -0.000050
787 -0.000049
788 -0.000045
789 -0.000031
790 -0.000020
791 -0.000006
792 0.000011
793 0.000033
794 0.000072
795 0.000094
796 0.000097
797 0.000098
798 0.000090
799 0.000075
800 0.000068
801 0.000060
802 0.000054
803 0.000046
804 0.000053
805 0.000040
806 0.000037
807 0.000039
808 0.000047
809 0.000060
