# i correlation
1 0.002731
2 0.002503
3 0.002333
4 0.002182
5 0.002021
6 0.001853
7 0.001695
8 0.001570
9 0.001433
10 0.001291
11 0.001186
12 0.001141
13 0.001080
14 0.001027
15 0.000982
16 0.000965
17 0.000943
18 0.000949
19 0.000957
20 0.000974
21 0.000988
22 0.000962
23 0.000996
24 0.000991
25 0.000985
26 0.000976
27 0.000967
28 0.000959
29 0.000952
30 0.000936
31 0.000888
32 0.000857
33 0.000824
34 0.000758
35 0.000738
36 0.000760
37 0.000793
38 0.000808
39 0.000799
40 0.000773
41 0.000807
42 0.000846
43 0.000880
44 0.000885
45 0.000899
46 0.000947
47 0.000976
48 0.000971
49 0.000948
50 0.000924
51 0.000892
52 0.000864
53 0.000854
54 0.000839
55 0.000816
56 0.000828
57 0.000806
58 0.000793
59 0.000808
60 0.000813
61 0.000783
62 0.000763
63 0.000735
64 0.000683
65 0.000652
66 0.000661
67 0.000661
68 0.000631
69 0.000622
70 0.000588
71 0.000600
72 0.000631
73 0.000649
74 0.000664
75 0.000710
76 0.000741
77 0.000752
78 0.000756
79 0.000778
80 0.000829
81 0.000860
82 0.000847
83 0.000831
84 0.000809
85 0.000814
86 0.000790
87 0.000763
88 0.000746
89 0.000736
90 0.000741
91 0.000714
92 0.000719
93 0.000704
94 0.000659
95 0.000638
96 0.000615
97 0.000602
98 0.000599
99 0.000592
100 0.000616
101 0.000605
102 0.000637
103 0.000684
104 0.000735
105 0.000752
106 0.000765
107 0.000728
108 0.000693
109 0.000659
110 0.000598
111 0.000545
112 0.000526
113 0.000536
114 0.000524
115 0.000475
116 0.000455
117 0.000419
118 0.000414
119 0.000402
120 0.000384
121 0.000413
122 0.000430
123 0.000467
124 0.000481
125 0.000513
126 0.000534
127 0.000538
128 0.000547
129 0.000551
130 0.000565
131 0.000565
132 0.000562
133 0.000556
134 0.000558
135 0.000576
136 0.000576
137 0.000570
138 0.000559
139 0.000571
140 0.000566
141 0.000578
142 0.000594
143 0.000564
144 0.000549
145 0.000507
146 0.000484
147 0.000467
148 0.000454
149 0.000464
150 0.000494
151 0.000518
152 0.000548
153 0.000580
154 0.000639
155 0.000698
156 0.000746
157 0.000762
158 0.000767
159 0.000775
160 0.000822
161 0.000843
162 0.000912
163 0.000943
164 0.000975
165 0.000982
166 0.000967
167 0.000952
168 0.000925
169 0.000902
170 0.000866
171 0.000822
172 0.000808
173 0.000759
174 0.000700
175 0.000647
176 0.000608
177 0.000593
178 0.000585
179 0.000566
180 0.000565
181 0.000554
182 0.000549
183 0.000580
184 0.000605
185 0.000646
186 0.000656
187 0.000681
188 0.000690
189 0.000689
190 0.000699
191 0.000684
192 0.000667
193 0.000645
194 0.000601
195 0.000586
196 0.000543
197 0.000511
198 0.000487
199 0.000464
200 0.000426
201 0.000427
202 0.000415
203 0.000443
204 0.000463
205 0.000464
206 0.000502
207 0.000521
208 0.000533
209 0.000574
210 0.000629
211 0.000694
212 0.000710
213 0.000749
214 0.000781
215 0.000800
216 0.000819
217 0.000797
218 0.000778
219 0.000742
220 0.000689
221 0.000622
222 0.000585
223 0.000548
224 0.000491
225 0.000444
226 0.000397
227 0.000364
228 0.000345
229 0.000324
230 0.000328
231 0.000327
232 0.000345
233 0.000345
234 0.000383
235 0.000416
236 0.000438
237 0.000469
238 0.000490
239 0.000510
240 0.000518
241 0.000526
242 0.000543
243 0.000557
244 0.000588
245 0.000612
246 0.000643
247 0.000660
248 0.000677
249 0.000680
250 0.000673
251 0.000660
252 0.000647
253 0.000667
254 0.000669
255 0.000685
256 0.000671
257 0.000662
258 0.000664
259 0.000659
260 0.000650
261 0.000618
262 0.000596
263 0.000555
264 0.000539
265 0.000517
266 0.000482
267 0.000467
268 0.000457
269 0.000454
270 0.000452
271 0.000414
272 0.000405
273 0.000397
274 0.000390
275 0.000405
276 0.000442
277 0.000446
278 0.000469
279 0.000462
280 0.000452
281 0.000433
282 0.000406
283 0.000412
284 0.000380
285 0.000359
286 0.000330
287 0.000305
288 0.000293
289 0.000273
290 0.000265
291 0.000281
292 0.000300
293 0.000324
294 0.000336
295 0.000346
296 0.000368
297 0.000387
298 0.000383
299 0.000362
300 0.000316
301 0.000282
302 0.000244
303 0.000209
304 0.000181
305 0.000165
306 0.000165
307 0.000161
308 0.000146
309 0.000134
310 0.000134
311 0.000135
312 0.000127
313 0.000146
314 0.000149
315 0.000165
316 0.000195
317 0.000231
318 0.000259
319 0.000303
320 0.000365
321 0.000388
322 0.000425
323 0.000407
324 0.000409
325 0.000434
326 0.000461
327 0.000478
328 0.000507
329 0.000538
330 0.000534
331 0.000537
332 0.000515
333 0.000510
334 0.000553
335 0.000567
336 0.000582
337 0.000574
338 0.000584
339 0.000612
340 0.000617
341 0.000634
342 0.000631
343 0.000626
344 0.000603
345 0.000603
346 0.000569
347 0.000550
348 0.000515
349 0.000489
350 0.000474
351 0.000456
352 0.000447
353 0.000432
354 0.000407
355 0.000403
356 0.000387
357 0.000369
358 0.000355
359 0.000349
360 0.000332
361 0.000313
362 0.000271
363 0.000231
364 0.000206
365 0.000178
366 0.000140
367 0.000127
368 0.000114
369 0.000110
370 0.000099
371 0.000096
372 0.000105
373 0.000126
374 0.000145
375 0.000160
376 0.000203
377 0.000222
378 0.000251
379 0.000261
380 0.000279
381 0.000294
382 0.000304
383 0.000317
384 0.000285
385 0.000241
386 0.000189
387 0.000155
388 0.000143
389 0.000108
390 0.000071
391 0.000035
392 0.000015
393 -0.000021
394 -0.000035
395 -0.000034
396 -0.000014
397 0.000017
398 0.000041
399 0.000083
400 0.000130
401 0.000178
402 0.000228
403 0.000272
404 0.000302
405 0.000306
406 0.000318
407 0.000328
408 0.000331
409 0.000326
410 0.000332
411 0.000334
412 0.000330
413 0.000314
414 0.000283
415 0.000272
416 0.000246
417 0.000218
418 0.000203
419 0.000228
420 0.000254
421 0.000256
422 0.000250
423 0.000268
424 0.000286
425 0.000300
426 0.000322
427 0.000325
428 0.000313
429 0.000303
430 0.000280
431 0.000265
432 0.000250
433 0.000246
434 0.000238
435 0.000221
436 0.000211
437 0.000187
438 0.000158
439 0.000144
440 0.000138
441 0.000133
442 0.000137
443 0.000128
444 0.000098
445 0.000097
446 0.000077
447 0.000057
448 0.000049
449 0.000048
450 0.000026
451 -0.000005
452 -0.000013
453 -0.000041
454 -0.000068
455 -0.000070
456 -0.000079
457 -0.000082
458 -0.000095
459 -0.000092
460 -0.000079
461 -0.000055
462 -0.000044
463 -0.000034
464 -0.000029
465 -0.000009
466 -0.000003
467 0.000010
468 0.000043
469 0.000058
470 0.000053
471 0.000066
472 0.000089
473 0.000113
474 0.000105
475 0.000108
476 0.000108
477 0.000095
478 0.000075
479 0.000061
480 0.000069
481 0.000068
482 0.000067
483 0.000078
484 0.000076
485 0.000090
486 0.000101
487 0.000098
488 0.000105
489 0.000112
490 0.000099
491 0.000091
492 0.000107
493 0.000110
494 0.000105
495 0.000105
496 0.000107
497 0.000105
498 0.000098
499 0.000094
500 0.000109
501 0.000124
502 0.000137
503 0.000142
504 0.000155
505 0.000174
506 0.000190
507 0.000184
508 0.000197
509 0.000203
510 0.000186
511 0.000184
512 0.000189
513 0.000211
514 0.000211
515 0.000217
516 0.000209
517 0.000198
518 0.000200
519 0.000183
520 0.000143
521 0.000144
522 0.000133
523 0.000132
524 0.000121
525 0.000115
526 0.000106
527 0.000096
528 0.000089
529 0.000094
530 0.000082
531 0.000086
532 0.000106
533 0.000113
534 0.000117
535 0.000119
536 0.000113
537 0.000109
538 0.000114
539 0.000106
540 0.000108
541 0.000089
542 0.000080
543 0.000065
544 0.000049
545 0.000047
546 0.000017
547 -0.000012
548 -0.000007
549 -0.000017
550 -0.000025
551 -0.000043
552 -0.000036
553 -0.000049
554 -0.000051
555 -0.000076
556 -0.000114
557 -0.000141
558 -0.000159
559 -0.000156
560 -0.000168
561 -0.000161
562 -0.000164
563 -0.000170
564 -0.000168
565 -0.000157
566 -0.000137
567 -0.000120
568 -0.000101
569 -0.000089
570 -0.000084
571 -0.000070
572 -0.000062
573 -0.000058
574 -0.000058
575 -0.000026
576 -0.000022
577 -0.000021
578 -0.000021
579 -0.000035
580 -0.000036
581 -0.000029
582 -0.000029
583 -0.000041
584 -0.000043
585 -0.000037
586 -0.000039
587 -0.000043
588 -0.000045
589 -0.000021
590 -0.000010
591 0.000003
592 -0.000000
593 -0.000010
594 -0.000024
595 -0.000039
596 -0.000039
597 -0.000048
598 -0.000052
599 -0.000062
600 -0.000083
601 -0.000105
602 -0.000141
603 -0.000156
604 -0.000162
605 -0.000153
606 -0.000162
607 -0.000166
608 -0.000172
609 -0.000176
610 -0.000184
611 -0.000179
612 -0.000187
613 -0.000189
614 -0.000174
615 -0.000161
616 -0.000173
617 -0.000168
618 -0.000154
619 -0.000142
620 -0.000138
621 -0.000129
622 -0.000124
623 -0.000120
624 -0.000128
625 -0.000132
626 -0.000133
627 -0.000113
628 -0.000100
629 -0.000088
630 -0.000072
631 -0.000064
632 -0.000048
633 -0.000048
634 -0.000044
635 -0.000009
636 0.000006
637 0.000020
638 0.000035
639 0.000049
640 0.000055
641 0.000053
642 0.000053
643 0.000038
644 0.000025
645 0.000003
646 -0.000030
647 -0.000050
648 -0.000063
649 -0.000092
650 -0.000107
651 -0.000120
652 -0.000107
653 -0.000091
654 -0.000085
655 -0.000078
656 -0.000049
657 -0.000020
658 0.000017
659 0.000026
660 0.000033
661 0.000033
662 0.000022
663 0.000010
664 -0.000002
665 -0.000006
666 -0.000007
667 -0.000005
668 -0.000003
669 -0.000020
670 -0.000043
671 -0.000030
672 -0.000020
673 -0.000012
674 0.000004
675 0.000036
676 0.000065
677 0.000090
678 0.000136
679 0.000187
680 0.000235
681 0.000278
682 0.000302
683 0.000332
684 0.000350
685 0.000354
686 0.000362
687 0.000366
688 0.000342
689 0.000331
690 0.000325
691 0.000309
692 0.000276
693 0.000237
694 0.000212
695 0.000215
696 0.000213
697 0.000187
698 0.000169
699 0.000154
700 0.000131
701 0.000116
702 0.000090
703 0.000090
704 0.000101
705 0.000099
706 0.000092
707 0.000091
708 0.000091
709 0.000089
710 0.000095
711 0.000093
712 0.000094
713 0.000089
714 0.000080
715 0.000071
716 0.000066
717 0.000082
718 0.000087
719 0.000093
720 0.000097
721 0.000101
722 0.000118
723 0.000129
724 0.000143
725 0.000156
726 0.000148
727 0.000151
728 0.000156
729 0.000145
730 0.000138
731 0.000133
732 0.000140
733 0.000150
734 0.000147
735 0.000145
736 0.000143
737 0.000140
738 0.000147
739 0.000155
740 0.000161
741 0.000159
742 0.000165
743 0.000159
744 0.000156
745 0.000159
746 0.000158
747 0.000153
748 0.000151
749 0.000146
750 0.000128
751 0.000110
752 0.000091
753 0.000079
754 0.000068
755 0.000053
756 0.000047
757 0.000038
758 0.000031
759 0.000024
760 0.000027
761 0.000044
762 0.000059
763 0.000070
764 0.000068
765 0.000072
766 0.000081
767 0.000084
768 0.000088
769 0.000076
770 0.000065
771 0.000058
772 0.000049
773 0.000029
774 0.000007
775 -0.000013
776 -0.000027
777 -0.000035
778 -0.000043
779 -0.000054
780 -0.000057
781 -0.000053
782 -0.000048
783 -0.000041
784 -0.000030
785 -0.000021
786 -0.000016
787 -0.000016
788 -0.000013
789 -0.000011
790 -0.000021
791 -0.000022
792 -0.000034
793 -0.000042
794 -0.000052
795 -0.000063
796 -0.000078
797 -0.000095
798 -0.000107
799 -0.000113
800 -0.000125
801 -0.000139
802 -0.000152
803 -0.000156
804 -0.000153
805 -0.000158
806 -0.000168
807 -0.000169
808 -0.000165
809 -0.000159
