# i correlation
1 0.003301
2 0.003003
3 0.002712
4 0.002481
5 0.002299
6 0.002147
7 0.002013
8 0.001921
9 0.001842
10 0.001751
11 0.001693
12 0.001631
13 0.001564
14 0.001494
15 0.001447
16 0.001385
17 0.001321
18 0.001274
19 0.001224
20 0.001183
21 0.001142
22 0.001107
23 0.001091
24 0.001098
25 0.001118
26 0.001131
27 0.001104
28 0.001065
29 0.001018
30 0.000964
31 0.000938
32 0.000912
33 0.000884
34 0.000850
35 0.000806
36 0.000795
37 0.000761
38 0.000762
39 0.000776
40 0.000811
41 0.000816
42 0.000817
43 0.000799
44 0.000798
45 0.000787
46 0.000780
47 0.000768
48 0.000782
49 0.000803
50 0.000824
51 0.000860
52 0.000873
53 0.000846
54 0.000833
55 0.000825
56 0.000822
57 0.000795
58 0.000774
59 0.000788
60 0.000787
61 0.000801
62 0.000782
63 0.000789
64 0.000825
65 0.000851
66 0.000867
67 0.000901
68 0.000939
69 0.000986
70 0.001037
71 0.001050
72 0.001068
73 0.001061
74 0.001062
75 0.001049
76 0.001040
77 0.001003
78 0.000988
79 0.001000
80 0.001027
81 0.001049
82 0.001074
83 0.001090
84 0.001074
85 0.001076
86 0.001045
87 0.001036
88 0.001000
89 0.000974
90 0.001016
91 0.001047
92 0.001048
93 0.001086
94 0.001110
95 0.001163
96 0.001196
97 0.001198
98 0.001225
99 0.001199
100 0.001164
101 0.001122
102 0.001075
103 0.001016
104 0.000934
105 0.000857
106 0.000803
107 0.000763
108 0.000741
109 0.000734
110 0.000734
111 0.000739
112 0.000712
113 0.000709
114 0.000700
115 0.000697
116 0.000730
117 0.000749
118 0.000782
119 0.000813
120 0.000840
121 0.000853
122 0.000858
123 0.000853
124 0.000857
125 0.000856
126 0.000859
127 0.000814
128 0.000749
129 0.000693
130 0.000634
131 0.000632
132 0.000637
133 0.000644
134 0.000660
135 0.000695
136 0.000669
137 0.000667
138 0.000676
139 0.000683
140 0.000689
141 0.000697
142 0.000715
143 0.000702
144 0.000725
145 0.000724
146 0.000759
147 0.000795
148 0.000814
149 0.000850
150 0.000898
151 0.000943
152 0.000983
153 0.001007
154 0.001035
155 0.001067
156 0.001065
157 0.001071
158 0.001076
159 0.001072
160 0.001079
161 0.001070
162 0.001064
163 0.001062
164 0.001052
165 0.001097
166 0.001143
167 0.001164
168 0.001157
169 0.001111
170 0.001059
171 0.001008
172 0.000930
173 0.000819
174 0.000721
175 0.000653
176 0.000608
177 0.000593
178 0.000582
179 0.000577
180 0.000590
181 0.000578
182 0.000553
183 0.000532
184 0.000485
185 0.000444
186 0.000401
187 0.000339
188 0.000296
189 0.000271
190 0.000236
191 0.000209
192 0.000183
193 0.000190
194 0.000210
195 0.000239
196 0.000266
197 0.000254
198 0.000243
199 0.000212
200 0.000197
201 0.000207
202 0.000188
203 0.000191
204 0.000197
205 0.000212
206 0.000228
207 0.000231
208 0.000240
209 0.000258
210 0.000242
211 0.000200
212 0.000170
213 0.000106
214 0.000073
215 0.000053
216 0.000059
217 0.000079
218 0.000103
219 0.000127
220 0.000156
221 0.000197
222 0.000251
223 0.000280
224 0.000270
225 0.000229
226 0.000186
227 0.000184
228 0.000179
229 0.000206
230 0.000211
231 0.000225
232 0.000234
233 0.000281
234 0.000310
235 0.000383
236 0.000404
237 0.000455
238 0.000476
239 0.000472
240 0.000490
241 0.000507
242 0.000526
243 0.000487
244 0.000477
245 0.000471
246 0.000486
247 0.000483
248 0.000498
249 0.000514
250 0.000551
251 0.000555
252 0.000563
253 0.000589
254 0.000600
255 0.000606
256 0.000579
257 0.000549
258 0.000540
259 0.000551
260 0.000554
261 0.000579
262 0.000596
263 0.000567
264 0.000522
265 0.000476
266 0.000427
267 0.000385
268 0.000336
269 0.000334
270 0.000311
271 0.000307
272 0.000298
273 0.000332
274 0.000355
275 0.000374
276 0.000373
277 0.000390
278 0.000415
279 0.000441
280 0.000425
281 0.000448
282 0.000443
283 0.000449
284 0.000442
285 0.000416
286 0.000385
287 0.000342
288 0.000337
289 0.000318
290 0.000328
291 0.000332
292 0.000343
293 0.000361
294 0.000393
295 0.000379
296 0.000376
297 0.000374
298 0.000357
299 0.000376
300 0.000400
301 0.000410
302 0.000408
303 0.000427
304 0.000454
305 0.000473
306 0.000468
307 0.000433
308 0.000380
309 0.000350
310 0.000350
311 0.000342
312 0.000316
313 0.000303
314 0.000314
315 0.000314
316 0.000302
317 0.000286
318 0.000305
319 0.000318
320 0.000368
321 0.000399
322 0.000411
323 0.000421
324 0.000406
325 0.000402
326 0.000401
327 0.000377
328 0.000356
329 0.000361
330 0.000408
331 0.000447
332 0.000480
333 0.000508
334 0.000508
335 0.000514
336 0.000491
337 0.000479
338 0.000448
339 0.000411
340 0.000386
341 0.000380
342 0.000390
343 0.000415
344 0.000437
345 0.000458
346 0.000452
347 0.000443
348 0.000428
349 0.000427
350 0.000433
351 0.000452
352 0.000445
353 0.000418
354 0.000365
355 0.000325
356 0.000320
357 0.000301
358 0.000259
359 0.000224
360 0.000208
361 0.000227
362 0.000224
363 0.000212
364 0.000217
365 0.000214
366 0.000206
367 0.000180
368 0.000162
369 0.000161
370 0.000166
371 0.000164
372 0.000183
373 0.000227
374 0.000260
375 0.000334
376 0.000393
377 0.000448
378 0.000465
379 0.000487
380 0.000467
381 0.000423
382 0.000356
383 0.000301
384 0.000262
385 0.000232
386 0.000208
387 0.000190
388 0.000173
389 0.000163
390 0.000160
391 0.000161
392 0.000161
393 0.000156
394 0.000166
395 0.000193
396 0.000197
397 0.000205
398 0.000198
399 0.000194
400 0.000217
401 0.000270
402 0.000316
403 0.000376
404 0.000429
405 0.000477
406 0.000500
407 0.000502
408 0.000496
409 0.000478
410 0.000461
411 0.000443
412 0.000461
413 0.000487
414 0.000495
415 0.000503
416 0.000510
417 0.000532
418 0.000548
419 0.000551
420 0.000588
421 0.000633
422 0.000659
423 0.000682
424 0.000709
425 0.000737
426 0.000755
427 0.000784
428 0.000793
429 0.000803
430 0.000808
431 0.000792
432 0.000769
433 0.000744
434 0.000714
435 0.000689
436 0.000668
437 0.000650
438 0.000665
439 0.000698
440 0.000703
441 0.000698
442 0.000694
443 0.000695
444 0.000704
445 0.000721
446 0.000744
447 0.000745
448 0.000719
449 0.000694
450 0.000658
451 0.000665
452 0.000657
453 0.000614
454 0.000602
455 0.000612
456 0.000622
457 0.000604
458 0.000603
459 0.000603
460 0.000622
461 0.000633
462 0.000630
463 0.000642
464 0.000628
465 0.000617
466 0.000592
467 0.000564
468 0.000544
469 0.000535
470 0.000523
471 0.000526
472 0.000534
473 0.000542
474 0.000518
475 0.000489
476 0.000472
477 0.000466
478 0.000433
479 0.000408
480 0.000362
481 0.000327
482 0.000302
483 0.000292
484 0.000289
485 0.000287
486 0.000285
487 0.000275
488 0.000282
489 0.000279
490 0.000283
491 0.000310
492 0.000323
493 0.000328
494 0.000327
495 0.000333
496 0.000345
497 0.000366
498 0.000397
499 0.000441
500 0.000497
501 0.000555
502 0.000600
503 0.000631
504 0.000662
505 0.000656
506 0.000641
507 0.000626
508 0.000621
509 0.000595
510 0.000598
511 0.000609
512 0.000619
513 0.000611
514 0.000598
515 0.000595
516 0.000595
517 0.000601
518 0.000594
519 0.000599
520 0.000581
521 0.000576
522 0.000539
523 0.000535
524 0.000521
525 0.000529
526 0.000520
527 0.000506
528 0.000479
529 0.000435
530 0.000401
531 0.000365
532 0.000356
533 0.000346
534 0.000326
535 0.000306
536 0.000322
537 0.000327
538 0.000330
539 0.000317
540 0.000309
541 0.000313
542 0.000321
543 0.000326
544 0.000354
545 0.000380
546 0.000409
547 0.000433
548 0.000421
549 0.000404
550 0.000394
551 0.000362
552 0.000359
553 0.000355
554 0.000342
555 0.000333
556 0.000364
557 0.000386
558 0.000404
559 0.000434
560 0.000445
561 0.000463
562 0.000465
563 0.000451
564 0.000437
565 0.000446
566 0.000448
567 0.000436
568 0.000441
569 0.000440
570 0.000445
571 0.000467
572 0.000508
573 0.000563
574 0.000616
575 0.000657
576 0.000682
577 0.000697
578 0.000690
579 0.000678
580 0.000689
581 0.000706
582 0.000734
583 0.000758
584 0.000810
585 0.000857
586 0.000886
587 0.000892
588 0.000890
589 0.000896
590 0.000887
591 0.000859
592 0.000836
593 0.000827
594 0.000808
595 0.000802
596 0.000780
597 0.000761
598 0.000760
599 0.000752
600 0.000718
601 0.000697
602 0.000670
603 0.000638
604 0.000623
605 0.000590
606 0.000597
607 0.000599
608 0.000609
609 0.000601
610 0.000636
611 0.000665
612 0.000679
613 0.000673
614 0.000660
615 0.000638
616 0.000632
617 0.000627
618 0.000606
619 0.000563
620 0.000540
621 0.000519
622 0.000483
623 0.000469
624 0.000461
625 0.000457
626 0.000476
627 0.000451
628 0.000419
629 0.000375
630 0.000342
631 0.000307
632 0.000282
633 0.000248
634 0.000235
635 0.000237
636 0.000242
637 0.000244
638 0.000231
639 0.000228
640 0.000214
641 0.000191
642 0.000166
643 0.000151
644 0.000150
645 0.000137
646 0.000116
647 0.000100
648 0.000079
649 0.000076
650 0.000076
651 0.000090
652 0.000101
653 0.000106
654 0.000109
655 0.000120
656 0.000150
657 0.000178
658 0.000216
659 0.000230
660 0.000253
661 0.000271
662 0.000298
663 0.000321
664 0.000346
665 0.000358
666 0.000369
667 0.000396
668 0.000424
669 0.000429
670 0.000441
671 0.000447
672 0.000455
673 0.000466
674 0.000471
675 0.000488
676 0.000502
677 0.000524
678 0.000530
679 0.000553
680 0.000573
681 0.000582
682 0.000589
683 0.000581
684 0.000575
685 0.000572
686 0.000569
687 0.000556
688 0.000536
689 0.000516
690 0.000480
691 0.000476
692 0.000468
693 0.000464
694 0.000452
695 0.000432
696 0.000408
697 0.000390
698 0.000371
699 0.000340
700 0.000335
701 0.000322
702 0.000309
703 0.000306
704 0.000300
705 0.000291
706 0.000303
707 0.000320
708 0.000346
709 0.000359
710 0.000362
711 0.000365
712 0.000360
713 0.000360
714 0.000347
715 0.000328
716 0.000306
717 0.000291
718 0.000266
719 0.000254
720 0.000223
721 0.000219
722 0.000206
723 0.000200
724 0.000193
725 0.000177
726 0.000166
727 0.000155
728 0.000143
729 0.000128
730 0.000114
731 0.000095
732 0.000076
733 0.000073
734 0.000082
735 0.000100
736 0.000114
737 0.000138
738 0.000147
739 0.000165
740 0.000173
741 0.000181
742 0.000207
743 0.000231
744 0.000243
745 0.000263
746 0.000270
747 0.000269
748 0.000292
749 0.000287
750 0.000278
751 0.000255
752 0.000249
753 0.000245
754 0.000252
755 0.000265
756 0.000281
757 0.000286
758 0.000279
759 0.000262
760 0.000250
761 0.000249
762 0.000241
763 0.000222
764 0.000191
765 0.000184
766 0.000176
767 0.000172
768 0.000158
769 0.000160
770 0.000156
771 0.000149
772 0.000135
773 0.000123
774 0.000122
775 0.000111
776 0.000102
777 0.000117
778 0.000132
779 0.000139
780 0.000141
781 0.000140
782 0.000147
783 0.000152
784 0.000139
785 0.000120
786 0.000096
787 0.000069
788 0.000058
789 0.000045
790 0.000034
791 0.000038
792 0.000028
793 0.000031
794 0.000031
795 0.000024
796 0.000022
797 0.000010
798 0.000011
799 0.000003
800 -0.000006
801 -0.000014
802 -0.000012
803 -0.000013
804 -0.000019
805 -0.000019
806 -0.000008
807 0.000012
808 0.000029
809 0.000043
