# i correlation
1 0.002758
2 0.002452
3 0.002197
4 0.001991
5 0.001816
6 0.001664
7 0.001513
8 0.001411
9 0.001348
10 0.001316
11 0.001279
12 0.001225
13 0.001206
14 0.001182
15 0.001182
16 0.001191
17 0.001216
18 0.001217
19 0.001199
20 0.001162
21 0.001115
22 0.001034
23 0.000973
24 0.000924
25 0.000899
26 0.000918
27 0.000951
28 0.000965
29 0.000957
30 0.000932
31 0.000925
32 0.000955
33 0.000988
34 0.001007
35 0.001031
36 0.001055
37 0.001092
38 0.001161
39 0.001170
40 0.001138
41 0.001107
42 0.001052
43 0.001010
44 0.000991
45 0.000999
46 0.000985
47 0.000989
48 0.000984
49 0.000978
50 0.000973
51 0.000974
52 0.000948
53 0.000943
54 0.000960
55 0.000971
56 0.000967
57 0.000961
58 0.000954
59 0.000971
60 0.000999
61 0.001036
62 0.001044
63 0.001044
64 0.001041
65 0.001040
66 0.001044
67 0.001008
68 0.000967
69 0.000933
70 0.000915
71 0.000887
72 0.000891
73 0.000913
74 0.000930
75 0.000953
76 0.000981
77 0.001003
78 0.001012
79 0.001024
80 0.001047
81 0.001036
82 0.000995
83 0.000975
84 0.001000
85 0.001022
86 0.001006
87 0.001000
88 0.001004
89 0.001017
90 0.001037
91 0.001038
92 0.001020
93 0.000999
94 0.000972
95 0.000964
96 0.000917
97 0.000884
98 0.000863
99 0.000856
100 0.000855
101 0.000896
102 0.000906
103 0.000907
104 0.000917
105 0.000889
106 0.000890
107 0.000864
108 0.000842
109 0.000822
110 0.000819
111 0.000794
112 0.000760
113 0.000690
114 0.000647
115 0.000597
116 0.000597
117 0.000614
118 0.000647
119 0.000688
120 0.000729
121 0.000774
122 0.000778
123 0.000803
124 0.000800
125 0.000788
126 0.000769
127 0.000786
128 0.000789
129 0.000774
130 0.000733
131 0.000683
132 0.000637
133 0.000623
134 0.000612
135 0.000604
136 0.000600
137 0.000607
138 0.000650
139 0.000718
140 0.000748
141 0.000763
142 0.000786
143 0.000785
144 0.000784
145 0.000805
146 0.000811
147 0.000801
148 0.000775
149 0.000754
150 0.000749
151 0.000727
152 0.000725
153 0.000706
154 0.000657
155 0.000652
156 0.000660
157 0.000666
158 0.000652
159 0.000630
160 0.000618
161 0.000608
162 0.000588
163 0.000565
164 0.000579
165 0.000622
166 0.000662
167 0.000693
168 0.000708
169 0.000720
170 0.000722
171 0.000743
172 0.000774
173 0.000797
174 0.000787
175 0.000774
176 0.000769
177 0.000770
178 0.000773
179 0.000792
180 0.000791
181 0.000764
182 0.000740
183 0.000717
184 0.000694
185 0.000680
186 0.000671
187 0.000649
188 0.000624
189 0.000605
190 0.000594
191 0.000567
192 0.000511
193 0.000500
194 0.000505
195 0.000486
196 0.000474
197 0.000504
198 0.000506
199 0.000532
200 0.000532
201 0.000499
202 0.000471
203 0.000456
204 0.000443
205 0.000429
206 0.000403
207 0.000389
208 0.000397
209 0.000394
210 0.000391
211 0.000383
212 0.000388
213 0.000391
214 0.000424
215 0.000442
216 0.000453
217 0.000443
218 0.000469
219 0.000458
220 0.000469
221 0.000457
222 0.000450
223 0.000443
224 0.000424
225 0.000416
226 0.000429
227 0.000428
228 0.000419
229 0.000438
230 0.000453
231 0.000488
232 0.000517
233 0.000526
234 0.000522
235 0.000501
236 0.000459
237 0.000452
238 0.000440
239 0.000440
240 0.000419
241 0.000403
242 0.000402
243 0.000380
244 0.000366
245 0.000380
246 0.000390
247 0.000398
248 0.000410
249 0.000445
250 0.000474
251 0.000492
252 0.000485
253 0.000465
254 0.000462
255 0.000477
256 0.000482
257 0.000469
258 0.000462
259 0.000470
260 0.000481
261 0.000502
262 0.000544
263 0.000583
264 0.000620
265 0.000648
266 0.000688
267 0.000738
268 0.000741
269 0.000736
270 0.000716
271 0.000682
272 0.000651
273 0.000622
274 0.000603
275 0.000577
276 0.000550
277 0.000523
278 0.000497
279 0.000503
280 0.000513
281 0.000525
282 0.000537
283 0.000543
284 0.000556
285 0.000567
286 0.000549
287 0.000529
288 0.000519
289 0.000496
290 0.000479
291 0.000438
292 0.000416
293 0.000406
294 0.000397
295 0.000406
296 0.000377
297 0.000337
298 0.000308
299 0.000291
300 0.000327
301 0.000371
302 0.000402
303 0.000441
304 0.000461
305 0.000479
306 0.000494
307 0.000453
308 0.000429
309 0.000406
310 0.000388
311 0.000379
312 0.000379
313 0.000357
314 0.000322
315 0.000335
316 0.000351
317 0.000365
318 0.000384
319 0.000390
320 0.000401
321 0.000448
322 0.000494
323 0.000539
324 0.000555
325 0.000545
326 0.000550
327 0.000540
328 0.000546
329 0.000541
330 0.000542
331 0.000510
332 0.000540
333 0.000558
334 0.000576
335 0.000601
336 0.000633
337 0.000630
338 0.000634
339 0.000652
340 0.000663
341 0.000670
342 0.000687
343 0.000718
344 0.000725
345 0.000715
346 0.000694
347 0.000670
348 0.000629
349 0.000617
350 0.000632
351 0.000640
352 0.000619
353 0.000599
354 0.000578
355 0.000580
356 0.000562
357 0.000558
358 0.000528
359 0.000510
360 0.000505
361 0.000518
362 0.000509
363 0.000479
364 0.000441
365 0.000426
366 0.000441
367 0.000448
368 0.000484
369 0.000495
370 0.000524
371 0.000549
372 0.000568
373 0.000571
374 0.000547
375 0.000505
376 0.000474
377 0.000457
378 0.000451
379 0.000457
380 0.000435
381 0.000414
382 0.000385
383 0.000389
384 0.000395
385 0.000389
386 0.000352
387 0.000321
388 0.000324
389 0.000352
390 0.000375
391 0.000370
392 0.000330
393 0.000301
394 0.000291
395 0.000276
396 0.000269
397 0.000266
398 0.000261
399 0.000258
400 0.000250
401 0.000264
402 0.000300
403 0.000331
404 0.000343
405 0.000338
406 0.000368
407 0.000410
408 0.000421
409 0.000424
410 0.000412
411 0.000414
412 0.000429
413 0.000437
414 0.000427
415 0.000394
416 0.000387
417 0.000387
418 0.000396
419 0.000391
420 0.000365
421 0.000349
422 0.000361
423 0.000385
424 0.000382
425 0.000372
426 0.000371
427 0.000378
428 0.000390
429 0.000429
430 0.000450
431 0.000492
432 0.000498
433 0.000491
434 0.000494
435 0.000474
436 0.000466
437 0.000438
438 0.000395
439 0.000377
440 0.000381
441 0.000374
442 0.000373
443 0.000355
444 0.000373
445 0.000420
446 0.000472
447 0.000512
448 0.000517
449 0.000511
450 0.000514
451 0.000504
452 0.000483
453 0.000442
454 0.000384
455 0.000333
456 0.000279
457 0.000241
458 0.000195
459 0.000175
460 0.000164
461 0.000200
462 0.000221
463 0.000265
464 0.000298
465 0.000312
466 0.000286
467 0.000275
468 0.000265
469 0.000258
470 0.000229
471 0.000205
472 0.000185
473 0.000161
474 0.000137
475 0.000118
476 0.000119
477 0.000120
478 0.000137
479 0.000144
480 0.000158
481 0.000161
482 0.000174
483 0.000177
484 0.000171
485 0.000162
486 0.000120
487 0.000086
488 0.000095
489 0.000115
490 0.000129
491 0.000138
492 0.000132
493 0.000121
494 0.000123
495 0.000129
496 0.000118
497 0.000127
498 0.000135
499 0.000149
500 0.000183
501 0.000200
502 0.000215
503 0.000226
504 0.000215
505 0.000195
506 0.000195
507 0.000197
508 0.000208
509 0.000225
510 0.000238
511 0.000265
512 0.000276
513 0.000283
514 0.000306
515 0.000336
516 0.000351
517 0.000346
518 0.000360
519 0.000340
520 0.000340
521 0.000344
522 0.000335
523 0.000325
524 0.000304
525 0.000266
526 0.000261
527 0.000264
528 0.000231
529 0.000209
530 0.000201
531 0.000170
532 0.000131
533 0.000097
534 0.000079
535 0.000071
536 0.000076
537 0.000085
538 0.000071
539 0.000062
540 0.000050
541 0.000062
542 0.000059
543 0.000051
544 0.000035
545 0.000007
546 -0.000010
547 -0.000027
548 -0.000025
549 -0.000025
550 0.000005
551 0.000033
552 0.000070
553 0.000114
554 0.000165
555 0.000190
556 0.000232
557 0.000271
558 0.000298
559 0.000305
560 0.000298
561 0.000292
562 0.000287
563 0.000271
564 0.000245
565 0.000233
566 0.000210
567 0.000202
568 0.000221
569 0.000248
570 0.000265
571 0.000278
572 0.000278
573 0.000270
574 0.000257
575 0.000275
576 0.000273
577 0.000244
578 0.000226
579 0.000219
580 0.000202
581 0.000179
582 0.000168
583 0.000137
584 0.000130
585 0.000115
586 0.000102
587 0.000099
588 0.000119
589 0.000147
590 0.000161
591 0.000187
592 0.000232
593 0.000256
594 0.000247
595 0.000248
596 0.000244
597 0.000251
598 0.000241
599 0.000248
600 0.000252
601 0.000269
602 0.000268
603 0.000274
604 0.000279
605 0.000277
606 0.000287
607 0.000286
608 0.000284
609 0.000260
610 0.000248
611 0.000244
612 0.000230
613 0.000214
614 0.000202
615 0.000173
616 0.000188
617 0.000225
618 0.000270
619 0.000293
620 0.000311
621 0.000322
622 0.000338
623 0.000320
624 0.000306
625 0.000274
626 0.000240
627 0.000231
628 0.000224
629 0.000194
630 0.000195
631 0.000199
632 0.000195
633 0.000196
634 0.000203
635 0.000207
636 0.000224
637 0.000236
638 0.000253
639 0.000255
640 0.000259
641 0.000265
642 0.000262
643 0.000249
644 0.000241
645 0.000261
646 0.000285
647 0.000297
648 0.000311
649 0.000313
650 0.000294
651 0.000288
652 0.000287
653 0.000268
654 0.000251
655 0.000242
656 0.000251
657 0.000239
658 0.000244
659 0.000232
660 0.000225
661 0.000225
662 0.000229
663 0.000246
664 0.000262
665 0.000277
666 0.000273
667 0.000260
668 0.000253
669 0.000260
670 0.000243
671 0.000249
672 0.000256
673 0.000278
674 0.000284
675 0.000262
676 0.000238
677 0.000218
678 0.000211
679 0.000213
680 0.000208
681 0.000208
682 0.000205
683 0.000227
684 0.000251
685 0.000262
686 0.000284
687 0.000304
688 0.000311
689 0.000302
690 0.000287
691 0.000268
692 0.000257
693 0.000251
694 0.000244
695 0.000236
696 0.000248
697 0.000253
698 0.000259
699 0.000254
700 0.000249
701 0.000240
702 0.000237
703 0.000243
704 0.000227
705 0.000219
706 0.000224
707 0.000231
708 0.000237
709 0.000253
710 0.000252
711 0.000260
712 0.000283
713 0.000292
714 0.000284
715 0.000280
716 0.000267
717 0.000258
718 0.000253
719 0.000249
720 0.000237
721 0.000220
722 0.000209
723 0.000201
724 0.000192
725 0.000184
726 0.000193
727 0.000197
728 0.000198
729 0.000201
730 0.000199
731 0.000201
732 0.000199
733 0.000195
734 0.000190
735 0.000192
736 0.000182
737 0.000180
738 0.000170
739 0.000154
740 0.000153
741 0.000161
742 0.000153
743 0.000143
744 0.000148
745 0.000147
746 0.000158
747 0.000177
748 0.000193
749 0.000203
750 0.000211
751 0.000216
752 0.000210
753 0.000207
754 0.000190
755 0.000162
756 0.000144
757 0.000150
758 0.000143
759 0.000131
760 0.000112
761 0.000103
762 0.000105
763 0.000096
764 0.000093
765 0.000092
766 0.000101
767 0.000110
768 0.000126
769 0.000146
770 0.000157
771 0.000161
772 0.000185
773 0.000220
774 0.000241
775 0.000256
776 0.000262
777 0.000247
778 0.000236
779 0.000221
780 0.000204
781 0.000195
782 0.000204
783 0.000223
784 0.000244
785 0.000272
786 0.000288
787 0.000299
788 0.000306
789 0.000303
790 0.000302
791 0.000309
792 0.000321
793 0.000321
794 0.000317
795 0.000307
796 0.000298
797 0.000294
798 0.000283
799 0.000258
800 0.000231
801 0.000209
802 0.000183
803 0.000169
804 0.000157
805 0.000138
806 0.000117
807 0.000121
808 0.000120
809 0.000109
