# i correlation
1 0.003425
2 0.003097
3 0.002794
4 0.002534
5 0.002317
6 0.002139
7 0.001984
8 0.001809
9 0.001677
10 0.001545
11 0.001444
12 0.001361
13 0.001314
14 0.001286
15 0.001246
16 0.001241
17 0.001231
18 0.001267
19 0.001267
20 0.001263
21 0.001270
22 0.001239
23 0.001208
24 0.001180
25 0.001203
26 0.001196
27 0.001207
28 0.001219
29 0.001200
30 0.001200
31 0.001201
32 0.001217
33 0.001209
34 0.001183
35 0.001132
36 0.001122
37 0.001128
38 0.001130
39 0.001116
40 0.001094
41 0.001065
42 0.001024
43 0.001015
44 0.001030
45 0.001047
46 0.001039
47 0.001025
48 0.001026
49 0.001035
50 0.001076
51 0.001126
52 0.001163
53 0.001224
54 0.001295
55 0.001353
56 0.001392
57 0.001422
58 0.001474
59 0.001504
60 0.001510
61 0.001497
62 0.001462
63 0.001433
64 0.001407
65 0.001395
66 0.001401
67 0.001360
68 0.001304
69 0.001262
70 0.001244
71 0.001260
72 0.001289
73 0.001301
74 0.001313
75 0.001319
76 0.001308
77 0.001289
78 0.001224
79 0.001149
80 0.001096
81 0.001026
82 0.000959
83 0.000889
84 0.000831
85 0.000796
86 0.000769
87 0.000764
88 0.000731
89 0.000690
90 0.000672
91 0.000665
92 0.000664
93 0.000676
94 0.000670
95 0.000647
96 0.000603
97 0.000564
98 0.000540
99 0.000513
100 0.000490
101 0.000481
102 0.000477
103 0.000512
104 0.000566
105 0.000639
106 0.000702
107 0.000756
108 0.000803
109 0.000843
110 0.000872
111 0.000861
112 0.000874
113 0.000917
114 0.000967
115 0.001011
116 0.001053
117 0.001077
118 0.001085
119 0.001114
120 0.001106
121 0.001085
122 0.001023
123 0.000964
124 0.000920
125 0.000879
126 0.000861
127 0.000837
128 0.000822
129 0.000768
130 0.000758
131 0.000799
132 0.000846
133 0.000884
134 0.000912
135 0.000933
136 0.000913
137 0.000899
138 0.000886
139 0.000871
140 0.000844
141 0.000857
142 0.000825
143 0.000780
144 0.000738
145 0.000677
146 0.000627
147 0.000580
148 0.000521
149 0.000494
150 0.000473
151 0.000448
152 0.000430
153 0.000438
154 0.000419
155 0.000383
156 0.000339
157 0.000286
158 0.000215
159 0.000158
160 0.000113
161 0.000083
162 0.000071
163 0.000048
164 0.000059
165 0.000093
166 0.000135
167 0.000190
168 0.000231
169 0.000297
170 0.000364
171 0.000396
172 0.000413
173 0.000463
174 0.000531
175 0.000563
176 0.000601
177 0.000596
178 0.000583
179 0.000585
180 0.000576
181 0.000569
182 0.000569
183 0.000601
184 0.000640
185 0.000651
186 0.000668
187 0.000695
188 0.000691
189 0.000671
190 0.000655
191 0.000631
192 0.000655
193 0.000642
194 0.000635
195 0.000651
196 0.000626
197 0.000654
198 0.000661
199 0.000696
200 0.000726
201 0.000740
202 0.000714
203 0.000657
204 0.000591
205 0.000530
206 0.000532
207 0.000540
208 0.000560
209 0.000500
210 0.000439
211 0.000379
212 0.000323
213 0.000327
214 0.000284
215 0.000235
216 0.000189
217 0.000147
218 0.000091
219 0.000046
220 0.000060
221 0.000016
222 -0.000009
223 -0.000039
224 -0.000025
225 0.000005
226 0.000064
227 0.000135
228 0.000214
229 0.000269
230 0.000275
231 0.000282
232 0.000258
233 0.000257
234 0.000266
235 0.000255
236 0.000242
237 0.000226
238 0.000242
239 0.000227
240 0.000240
241 0.000252
242 0.000253
243 0.000243
244 0.000254
245 0.000299
246 0.000353
247 0.000425
248 0.000477
249 0.000484
250 0.000504
251 0.000522
252 0.000539
253 0.000539
254 0.000527
255 0.000491
256 0.000444
257 0.000407
258 0.000423
259 0.000455
260 0.000498
261 0.000551
262 0.000568
263 0.000563
264 0.000529
265 0.000508
266 0.000487
267 0.000449
268 0.000398
269 0.000357
270 0.000299
271 0.000251
272 0.000242
273 0.000221
274 0.000217
275 0.000203
276 0.000169
277 0.000128
278 0.000083
279 0.000065
280 0.000059
281 0.000049
282 0.000039
283 0.000043
284 0.000051
285 0.000060
286 0.000066
287 0.000055
288 0.000071
289 0.000064
290 0.000076
291 0.000103
292 0.000128
293 0.000153
294 0.000178
295 0.000190
296 0.000153
297 0.000128
298 0.000089
299 0.000043
300 0.000037
301 0.000045
302 0.000069
303 0.000088
304 0.000129
305 0.000187
306 0.000262
307 0.000323
308 0.000371
309 0.000393
310 0.000419
311 0.000456
312 0.000459
313 0.000458
314 0.000476
315 0.000472
316 0.000467
317 0.000451
318 0.000446
319 0.000432
320 0.000448
321 0.000443
322 0.000421
323 0.000404
324 0.000362
325 0.000334
326 0.000306
327 0.000282
328 0.000261
329 0.000213
330 0.000148
331 0.000085
332 0.000059
333 0.000065
334 0.000093
335 0.000120
336 0.000123
337 0.000107
338 0.000099
339 0.000105
340 0.000085
341 0.000086
342 0.000061
343 0.000029
344 0.000019
345 0.000006
346 0.000011
347 0.000004
348 -0.000003
349 -0.000024
350 -0.000059
351 -0.000087
352 -0.000081
353 -0.000057
354 -0.000031
355 -0.000017
356 -0.000039
357 -0.000048
358 -0.000051
359 -0.000052
360 -0.000047
361 -0.000033
362 -0.000006
363 0.000030
364 0.000043
365 0.000059
366 0.000066
367 0.000085
368 0.000099
369 0.000140
370 0.000168
371 0.000202
372 0.000226
373 0.000249
374 0.000256
375 0.000272
376 0.000297
377 0.000339
378 0.000369
379 0.000398
380 0.000429
381 0.000456
382 0.000498
383 0.000504
384 0.000495
385 0.000451
386 0.000424
387 0.000400
388 0.000343
389 0.000283
390 0.000218
391 0.000157
392 0.000108
393 0.000064
394 0.000019
395 -0.000020
396 -0.000042
397 -0.000046
398 -0.000043
399 -0.000041
400 -0.000009
401 0.000009
402 0.000021
403 0.000032
404 0.000042
405 0.000049
406 0.000009
407 -0.000001
408 0.000005
409 -0.000011
410 -0.000027
411 -0.000047
412 -0.000043
413 -0.000039
414 0.000001
415 0.000038
416 0.000066
417 0.000072
418 0.000069
419 0.000068
420 0.000048
421 0.000065
422 0.000049
423 0.000032
424 -0.000007
425 -0.000016
426 0.000011
427 0.000037
428 0.000080
429 0.000105
430 0.000133
431 0.000138
432 0.000152
433 0.000194
434 0.000243
435 0.000311
436 0.000361
437 0.000412
438 0.000436
439 0.000468
440 0.000478
441 0.000470
442 0.000481
443 0.000457
444 0.000434
445 0.000408
446 0.000380
447 0.000346
448 0.000321
449 0.000288
450 0.000238
451 0.000195
452 0.000158
453 0.000162
454 0.000193
455 0.000241
456 0.000246
457 0.000221
458 0.000237
459 0.000254
460 0.000291
461 0.000317
462 0.000330
463 0.000329
464 0.000310
465 0.000269
466 0.000210
467 0.000181
468 0.000166
469 0.000142
470 0.000103
471 0.000088
472 0.000063
473 0.000041
474 0.000030
475 0.000018
476 0.000022
477 0.000021
478 0.000036
479 0.000050
480 0.000074
481 0.000099
482 0.000122
483 0.000129
484 0.000128
485 0.000154
486 0.000175
487 0.000205
488 0.000244
489 0.000276
490 0.000315
491 0.000344
492 0.000377
493 0.000410
494 0.000438
495 0.000447
496 0.000449
497 0.000450
498 0.000457
499 0.000469
500 0.000464
501 0.000456
502 0.000446
503 0.000450
504 0.000455
505 0.000454
506 0.000453
507 0.000415
508 0.000423
509 0.000418
510 0.000416
511 0.000406
512 0.000414
513 0.000425
514 0.000455
515 0.000472
516 0.000477
517 0.000459
518 0.000453
519 0.000470
520 0.000492
521 0.000520
522 0.000539
523 0.000547
524 0.000537
525 0.000507
526 0.000467
527 0.000421
528 0.000369
529 0.000314
530 0.000260
531 0.000228
532 0.000199
533 0.000185
534 0.000198
535 0.000209
536 0.000246
537 0.000263
538 0.000267
539 0.000269
540 0.000267
541 0.000257
542 0.000261
543 0.000260
544 0.000246
545 0.000245
546 0.000249
547 0.000247
548 0.000274
549 0.000290
550 0.000278
551 0.000256
552 0.000255
553 0.000270
554 0.000309
555 0.000348
556 0.000393
557 0.000422
558 0.000451
559 0.000484
560 0.000526
561 0.000560
562 0.000563
563 0.000567
564 0.000560
565 0.000524
566 0.000492
567 0.000456
568 0.000438
569 0.000427
570 0.000431
571 0.000418
572 0.000405
573 0.000400
574 0.000394
575 0.000400
576 0.000414
577 0.000417
578 0.000410
579 0.000416
580 0.000421
581 0.000432
582 0.000432
583 0.000427
584 0.000402
585 0.000394
586 0.000393
587 0.000397
588 0.000402
589 0.000418
590 0.000427
591 0.000409
592 0.000401
593 0.000383
594 0.000357
595 0.000336
596 0.000326
597 0.000315
598 0.000281
599 0.000274
600 0.000248
601 0.000222
602 0.000197
603 0.000171
604 0.000150
605 0.000124
606 0.000107
607 0.000091
608 0.000094
609 0.000117
610 0.000126
611 0.000145
612 0.000156
613 0.000191
614 0.000237
615 0.000273
616 0.000293
617 0.000317
618 0.000357
619 0.000378
620 0.000417
621 0.000458
622 0.000483
623 0.000487
624 0.000507
625 0.000535
626 0.000554
627 0.000577
628 0.000599
629 0.000627
630 0.000655
631 0.000672
632 0.000674
633 0.000662
634 0.000667
635 0.000666
636 0.000670
637 0.000655
638 0.000641
639 0.000620
640 0.000592
641 0.000570
642 0.000543
643 0.000534
644 0.000513
645 0.000501
646 0.000493
647 0.000495
648 0.000480
649 0.000465
650 0.000454
651 0.000431
652 0.000410
653 0.000403
654 0.000398
655 0.000424
656 0.000437
657 0.000441
658 0.000439
659 0.000440
660 0.000422
661 0.000398
662 0.000397
663 0.000397
664 0.000399
665 0.000392
666 0.000389
667 0.000387
668 0.000386
669 0.000392
670 0.000373
671 0.000363
672 0.000350
673 0.000348
674 0.000365
675 0.000393
676 0.000412
677 0.000425
678 0.000423
679 0.000416
680 0.000432
681 0.000448
682 0.000461
683 0.000471
684 0.000480
685 0.000473
686 0.000459
687 0.000454
688 0.000460
689 0.000484
690 0.000495
691 0.000516
692 0.000551
693 0.000583
694 0.000591
695 0.000602
696 0.000619
697 0.000629
698 0.000664
699 0.000690
700 0.000712
701 0.000730
702 0.000748
703 0.000751
704 0.000737
705 0.000742
706 0.000738
707 0.000740
708 0.000728
709 0.000719
710 0.000711
711 0.000705
712 0.000702
713 0.000694
714 0.000677
715 0.000652
716 0.000639
717 0.000620
718 0.000611
719 0.000599
720 0.000583
721 0.000586
722 0.000593
723 0.000602
724 0.000592
725 0.000590
726 0.000591
727 0.000579
728 0.000574
729 0.000574
730 0.000589
731 0.000594
732 0.000590
733 0.000588
734 0.000590
735 0.000583
736 0.000573
737 0.000583
738 0.000569
739 0.000556
740 0.000563
741 0.000556
742 0.000539
743 0.000529
744 0.000508
745 0.000482
746 0.000480
747 0.000478
748 0.000468
749 0.000466
750 0.000472
751 0.000475
752 0.000485
753 0.000495
754 0.000507
755 0.000524
756 0.000541
757 0.000550
758 0.000549
759 0.000551
760 0.000549
761 0.000545
762 0.000558
763 0.000559
764 0.000556
765 0.000549
766 0.000543
767 0.000536
768 0.000546
769 0.000561
770 0.000571
771 0.000589
772 0.000588
773 0.000597
774 0.000603
775 0.000607
776 0.000599
777 0.000599
778 0.000588
779 0.000575
780 0.000555
781 0.000537
782 0.000508
783 0.000486
784 0.000463
785 0.000445
786 0.000430
787 0.000422
788 0.000422
789 0.000419
790 0.000417
791 0.000414
792 0.000408
793 0.000408
794 0.000409
795 0.000406
796 0.000423
797 0.000427
798 0.000429
799 0.000426
800 0.000422
801 0.000420
802 0.000421
803 0.000416
804 0.000394
805 0.000376
806 0.000365
807 0.000359
808 0.000364
809 0.000372
