# i correlation
1 0.003300
2 0.003005
3 0.002748
4 0.002544
5 0.002376
6 0.002264
7 0.002121
8 0.001968
9 0.001880
10 0.001806
11 0.001718
12 0.001642
13 0.001556
14 0.001432
15 0.001338
16 0.001239
17 0.001194
18 0.001146
19 0.001130
20 0.001105
21 0.001106
22 0.001087
23 0.001081
24 0.001078
25 0.001029
26 0.000963
27 0.000931
28 0.000950
29 0.000962
30 0.000992
31 0.001002
32 0.001036
33 0.001078
34 0.001141
35 0.001193
36 0.001211
37 0.001241
38 0.001252
39 0.001252
40 0.001277
41 0.001315
42 0.001338
43 0.001343
44 0.001354
45 0.001365
46 0.001346
47 0.001303
48 0.001257
49 0.001239
50 0.001209
51 0.001228
52 0.001214
53 0.001223
54 0.001196
55 0.001179
56 0.001137
57 0.001078
58 0.001006
59 0.000953
60 0.000897
61 0.000884
62 0.000898
63 0.000889
64 0.000873
65 0.000884
66 0.000878
67 0.000841
68 0.000832
69 0.000821
70 0.000799
71 0.000792
72 0.000776
73 0.000746
74 0.000764
75 0.000811
76 0.000824
77 0.000830
78 0.000835
79 0.000813
80 0.000813
81 0.000815
82 0.000834
83 0.000855
84 0.000837
85 0.000836
86 0.000836
87 0.000898
88 0.000961
89 0.001023
90 0.001034
91 0.001033
92 0.001031
93 0.001035
94 0.001013
95 0.001013
96 0.001025
97 0.001015
98 0.001003
99 0.001014
100 0.001012
101 0.000954
102 0.000896
103 0.000821
104 0.000740
105 0.000684
106 0.000661
107 0.000614
108 0.000601
109 0.000564
110 0.000508
111 0.000477
112 0.000479
113 0.000449
114 0.000420
115 0.000388
116 0.000378
117 0.000355
118 0.000348
119 0.000308
120 0.000298
121 0.000288
122 0.000269
123 0.000283
124 0.000319
125 0.000283
126 0.000262
127 0.000238
128 0.000242
129 0.000263
130 0.000288
131 0.000316
132 0.000338
133 0.000374
134 0.000406
135 0.000399
136 0.000443
137 0.000473
138 0.000457
139 0.000446
140 0.000450
141 0.000455
142 0.000452
143 0.000469
144 0.000476
145 0.000503
146 0.000514
147 0.000528
148 0.000511
149 0.000492
150 0.000500
151 0.000509
152 0.000550
153 0.000599
154 0.000608
155 0.000611
156 0.000618
157 0.000606
158 0.000620
159 0.000625
160 0.000583
161 0.000551
162 0.000520
163 0.000495
164 0.000482
165 0.000453
166 0.000378
167 0.000336
168 0.000312
169 0.000317
170 0.000305
171 0.000311
172 0.000288
173 0.000294
174 0.000338
175 0.000378
176 0.000411
177 0.000442
178 0.000457
179 0.000464
180 0.000472
181 0.000458
182 0.000431
183 0.000436
184 0.000436
185 0.000436
186 0.000464
187 0.000496
188 0.000511
189 0.000537
190 0.000534
191 0.000524
192 0.000542
193 0.000578
194 0.000596
195 0.000597
196 0.000597
197 0.000575
198 0.000564
199 0.000566
200 0.000579
201 0.000604
202 0.000585
203 0.000572
204 0.000533
205 0.000504
206 0.000478
207 0.000431
208 0.000399
209 0.000402
210 0.000394
211 0.000392
212 0.000431
213 0.000467
214 0.000509
215 0.000528
216 0.000547
217 0.000553
218 0.000561
219 0.000570
220 0.000605
221 0.000615
222 0.000616
223 0.000624
224 0.000666
225 0.000698
226 0.000735
227 0.000772
228 0.000781
229 0.000797
230 0.000844
231 0.000864
232 0.000873
233 0.000877
234 0.000898
235 0.000918
236 0.000950
237 0.000960
238 0.000961
239 0.000945
240 0.000917
241 0.000881
242 0.000854
243 0.000821
244 0.000796
245 0.000779
246 0.000764
247 0.000761
248 0.000760
249 0.000740
250 0.000730
251 0.000720
252 0.000721
253 0.000723
254 0.000726
255 0.000739
256 0.000759
257 0.000803
258 0.000800
259 0.000794
260 0.000740
261 0.000701
262 0.000674
263 0.000646
264 0.000634
265 0.000645
266 0.000636
267 0.000611
268 0.000607
269 0.000601
270 0.000575
271 0.000563
272 0.000566
273 0.000516
274 0.000483
275 0.000480
276 0.000499
277 0.000520
278 0.000526
279 0.000520
280 0.000509
281 0.000516
282 0.000533
283 0.000542
284 0.000550
285 0.000577
286 0.000620
287 0.000666
288 0.000701
289 0.000743
290 0.000763
291 0.000742
292 0.000772
293 0.000791
294 0.000785
295 0.000783
296 0.000766
297 0.000746
298 0.000716
299 0.000732
300 0.000761
301 0.000818
302 0.000844
303 0.000819
304 0.000761
305 0.000716
306 0.000702
307 0.000683
308 0.000678
309 0.000676
310 0.000668
311 0.000667
312 0.000688
313 0.000683
314 0.000695
315 0.000660
316 0.000638
317 0.000659
318 0.000681
319 0.000671
320 0.000640
321 0.000655
322 0.000638
323 0.000640
324 0.000621
325 0.000617
326 0.000598
327 0.000589
328 0.000590
329 0.000600
330 0.000620
331 0.000670
332 0.000700
333 0.000705
334 0.000725
335 0.000744
336 0.000773
337 0.000777
338 0.000769
339 0.000741
340 0.000718
341 0.000703
342 0.000697
343 0.000666
344 0.000619
345 0.000565
346 0.000527
347 0.000499
348 0.000483
349 0.000460
350 0.000447
351 0.000439
352 0.000444
353 0.000432
354 0.000454
355 0.000454
356 0.000460
357 0.000435
358 0.000378
359 0.000321
360 0.000256
361 0.000179
362 0.000084
363 0.000043
364 0.000022
365 0.000024
366 0.000018
367 -0.000006
368 -0.000038
369 -0.000090
370 -0.000112
371 -0.000095
372 -0.000063
373 -0.000040
374 -0.000001
375 0.000028
376 0.000059
377 0.000122
378 0.000177
379 0.000211
380 0.000277
381 0.000309
382 0.000332
383 0.000367
384 0.000405
385 0.000418
386 0.000427
387 0.000434
388 0.000438
389 0.000477
390 0.000541
391 0.000549
392 0.000568
393 0.000608
394 0.000609
395 0.000604
396 0.000586
397 0.000542
398 0.000500
399 0.000476
400 0.000458
401 0.000471
402 0.000458
403 0.000437
404 0.000379
405 0.000351
406 0.000335
407 0.000321
408 0.000322
409 0.000319
410 0.000296
411 0.000297
412 0.000277
413 0.000253
414 0.000230
415 0.000221
416 0.000206
417 0.000203
418 0.000213
419 0.000224
420 0.000233
421 0.000253
422 0.000256
423 0.000259
424 0.000263
425 0.000302
426 0.000329
427 0.000337
428 0.000338
429 0.000337
430 0.000343
431 0.000362
432 0.000371
433 0.000380
434 0.000366
435 0.000361
436 0.000342
437 0.000331
438 0.000334
439 0.000323
440 0.000328
441 0.000312
442 0.000315
443 0.000334
444 0.000339
445 0.000374
446 0.000424
447 0.000466
448 0.000514
449 0.000563
450 0.000569
451 0.000558
452 0.000558
453 0.000532
454 0.000520
455 0.000561
456 0.000541
457 0.000507
458 0.000469
459 0.000446
460 0.000432
461 0.000400
462 0.000384
463 0.000350
464 0.000344
465 0.000353
466 0.000363
467 0.000357
468 0.000360
469 0.000323
470 0.000326
471 0.000334
472 0.000367
473 0.000404
474 0.000399
475 0.000382
476 0.000384
477 0.000420
478 0.000436
479 0.000436
480 0.000424
481 0.000420
482 0.000402
483 0.000401
484 0.000392
485 0.000378
486 0.000381
487 0.000383
488 0.000401
489 0.000445
490 0.000502
491 0.000526
492 0.000551
493 0.000549
494 0.000545
495 0.000565
496 0.000595
497 0.000594
498 0.000577
499 0.000524
500 0.000524
501 0.000536
502 0.000538
503 0.000503
504 0.000486
505 0.000460
506 0.000435
507 0.000411
508 0.000381
509 0.000354
510 0.000335
511 0.000340
512 0.000311
513 0.000304
514 0.000309
515 0.000313
516 0.000314
517 0.000322
518 0.000319
519 0.000306
520 0.000278
521 0.000261
522 0.000217
523 0.000203
524 0.000179
525 0.000173
526 0.000192
527 0.000195
528 0.000195
529 0.000186
530 0.000191
531 0.000184
532 0.000170
533 0.000181
534 0.000194
535 0.000229
536 0.000240
537 0.000272
538 0.000305
539 0.000338
540 0.000361
541 0.000375
542 0.000375
543 0.000377
544 0.000380
545 0.000400
546 0.000416
547 0.000435
548 0.000459
549 0.000476
550 0.000435
551 0.000443
552 0.000435
553 0.000425
554 0.000423
555 0.000425
556 0.000401
557 0.000391
558 0.000406
559 0.000400
560 0.000376
561 0.000379
562 0.000366
563 0.000328
564 0.000301
565 0.000261
566 0.000247
567 0.000236
568 0.000242
569 0.000238
570 0.000249
571 0.000259
572 0.000273
573 0.000287
574 0.000289
575 0.000280
576 0.000270
577 0.000250
578 0.000229
579 0.000247
580 0.000266
581 0.000260
582 0.000255
583 0.000248
584 0.000227
585 0.000199
586 0.000209
587 0.000193
588 0.000182
589 0.000181
590 0.000172
591 0.000170
592 0.000168
593 0.000184
594 0.000190
595 0.000184
596 0.000201
597 0.000188
598 0.000167
599 0.000153
600 0.000141
601 0.000119
602 0.000113
603 0.000098
604 0.000098
605 0.000084
606 0.000078
607 0.000088
608 0.000089
609 0.000080
610 0.000084
611 0.000082
612 0.000062
613 0.000051
614 0.000044
615 0.000005
616 -0.000053
617 -0.000073
618 -0.000096
619 -0.000095
620 -0.000061
621 -0.000045
622 -0.000041
623 -0.000030
624 -0.000022
625 -0.000029
626 -0.000035
627 -0.000063
628 -0.000077
629 -0.000053
630 -0.000028
631 0.000007
632 0.000035
633 0.000049
634 0.000072
635 0.000099
636 0.000114
637 0.000143
638 0.000164
639 0.000153
640 0.000122
641 0.000125
642 0.000129
643 0.000145
644 0.000171
645 0.000171
646 0.000159
647 0.000153
648 0.000151
649 0.000147
650 0.000129
651 0.000102
652 0.000082
653 0.000074
654 0.000057
655 0.000036
656 0.000005
657 -0.000015
658 -0.000018
659 -0.000034
660 -0.000052
661 -0.000083
662 -0.000118
663 -0.000146
664 -0.000151
665 -0.000150
666 -0.000130
667 -0.000117
668 -0.000117
669 -0.000122
670 -0.000114
671 -0.000102
672 -0.000090
673 -0.000056
674 -0.000037
675 -0.000008
676 0.000018
677 0.000037
678 0.000050
679 0.000066
680 0.000083
681 0.000069
682 0.000074
683 0.000086
684 0.000080
685 0.000092
686 0.000102
687 0.000105
688 0.000115
689 0.000126
690 0.000135
691 0.000135
692 0.000130
693 0.000104
694 0.000078
695 0.000073
696 0.000067
697 0.000066
698 0.000047
699 0.000032
700 0.000001
701 -0.000026
702 -0.000039
703 -0.000049
704 -0.000047
705 -0.000072
706 -0.000097
707 -0.000114
708 -0.000124
709 -0.000130
710 -0.000115
711 -0.000108
712 -0.000083
713 -0.000071
714 -0.000060
715 -0.000062
716 -0.000065
717 -0.000062
718 -0.000073
719 -0.000072
720 -0.000060
721 -0.000036
722 -0.000018
723 -0.000007
724 -0.000003
725 0.000001
726 0.000018
727 0.000049
728 0.000055
729 0.000050
730 0.000049
731 0.000076
732 0.000109
733 0.000136
734 0.000169
735 0.000173
736 0.000185
737 0.000189
738 0.000195
739 0.000172
740 0.000164
741 0.000158
742 0.000143
743 0.000121
744 0.000102
745 0.000084
746 0.000065
747 0.000057
748 0.000042
749 0.000045
750 0.000040
751 0.000014
752 -0.000014
753 -0.000031
754 -0.000049
755 -0.000031
756 -0.000045
757 -0.000048
758 -0.000058
759 -0.000072
760 -0.000086
761 -0.000084
762 -0.000097
763 -0.000095
764 -0.000093
765 -0.000082
766 -0.000060
767 -0.000018
768 0.000004
769 0.000010
770 0.000016
771 0.000002
772 0.000003
773 0.000028
774 0.000053
775 0.000068
776 0.000107
777 0.000126
778 0.000152
779 0.000171
780 0.000180
781 0.000178
782 0.000192
783 0.000205
784 0.000219
785 0.000234
786 0.000238
787 0.000243
788 0.000252
789 0.000261
790 0.000254
791 0.000248
792 0.000224
793 0.000192
794 0.000159
795 0.000128
796 0.000097
797 0.000078
798 0.000059
799 0.000045
800 0.000033
801 0.000007
802 -0.000028
803 -0.000047
804 -0.000058
805 -0.000074
806 -0.000076
807 -0.000092
808 -0.000105
809 -0.000110
