# i correlation
1 0.003440
2 0.003158
3 0.002936
4 0.002755
5 0.002568
6 0.002431
7 0.002300
8 0.002188
9 0.002065
10 0.001990
11 0.001920
12 0.001832
13 0.001749
14 0.001695
15 0.001644
16 0.001614
17 0.001572
18 0.001543
19 0.001529
20 0.001511
21 0.001522
22 0.001527
23 0.001511
24 0.001495
25 0.001508
26 0.001514
27 0.001533
28 0.001580
29 0.001599
30 0.001603
31 0.001617
32 0.001623
33 0.001646
34 0.001630
35 0.001627
36 0.001642
37 0.001613
38 0.001583
39 0.001586
40 0.001586
41 0.001563
42 0.001523
43 0.001493
44 0.001475
45 0.001440
46 0.001416
47 0.001406
48 0.001374
49 0.001364
50 0.001354
51 0.001338
52 0.001333
53 0.001327
54 0.001304
55 0.001311
56 0.001315
57 0.001300
58 0.001263
59 0.001227
60 0.001229
61 0.001256
62 0.001289
63 0.001298
64 0.001285
65 0.001307
66 0.001309
67 0.001300
68 0.001272
69 0.001282
70 0.001279
71 0.001339
72 0.001364
73 0.001396
74 0.001385
75 0.001388
76 0.001376
77 0.001348
78 0.001347
79 0.001323
80 0.001298
81 0.001289
82 0.001306
83 0.001307
84 0.001337
85 0.001342
86 0.001317
87 0.001280
88 0.001265
89 0.001226
90 0.001165
91 0.001131
92 0.001078
93 0.001018
94 0.000961
95 0.000909
96 0.000861
97 0.000827
98 0.000815
99 0.000804
100 0.000756
101 0.000725
102 0.000699
103 0.000672
104 0.000685
105 0.000712
106 0.000741
107 0.000756
108 0.000791
109 0.000790
110 0.000816
111 0.000860
112 0.000928
113 0.000962
114 0.001010
115 0.001060
116 0.001084
117 0.001081
118 0.001102
119 0.001095
120 0.001092
121 0.001068
122 0.001068
123 0.001074
124 0.001118
125 0.001114
126 0.001127
127 0.001134
128 0.001165
129 0.001150
130 0.001104
131 0.001056
132 0.001043
133 0.001015
134 0.001005
135 0.000988
136 0.000965
137 0.000970
138 0.000997
139 0.001004
140 0.001030
141 0.001061
142 0.001059
143 0.001071
144 0.001107
145 0.001123
146 0.001116
147 0.001139
148 0.001169
149 0.001204
150 0.001217
151 0.001225
152 0.001222
153 0.001181
154 0.001152
155 0.001146
156 0.001149
157 0.001150
158 0.001121
159 0.001115
160 0.001110
161 0.001099
162 0.001089
163 0.001076
164 0.001045
165 0.001000
166 0.000953
167 0.000941
168 0.000927
169 0.000912
170 0.000867
171 0.000844
172 0.000808
173 0.000789
174 0.000764
175 0.000770
176 0.000748
177 0.000737
178 0.000715
179 0.000734
180 0.000771
181 0.000809
182 0.000823
183 0.000860
184 0.000889
185 0.000945
186 0.000977
187 0.000962
188 0.000997
189 0.001010
190 0.001053
191 0.001111
192 0.001138
193 0.001157
194 0.001154
195 0.001143
196 0.001170
197 0.001181
198 0.001151
199 0.001140
200 0.001158
201 0.001162
202 0.001165
203 0.001174
204 0.001165
205 0.001145
206 0.001101
207 0.001060
208 0.001018
209 0.000957
210 0.000938
211 0.000897
212 0.000892
213 0.000880
214 0.000867
215 0.000859
216 0.000879
217 0.000887
218 0.000879
219 0.000879
220 0.000898
221 0.000926
222 0.000922
223 0.000935
224 0.000955
225 0.000941
226 0.000929
227 0.000892
228 0.000862
229 0.000858
230 0.000874
231 0.000890
232 0.000918
233 0.000947
234 0.000959
235 0.000949
236 0.000947
237 0.000922
238 0.000917
239 0.000884
240 0.000864
241 0.000835
242 0.000830
243 0.000817
244 0.000772
245 0.000721
246 0.000722
247 0.000705
248 0.000697
249 0.000672
250 0.000636
251 0.000646
252 0.000658
253 0.000688
254 0.000689
255 0.000693
256 0.000724
257 0.000747
258 0.000725
259 0.000730
260 0.000747
261 0.000773
262 0.000812
263 0.000812
264 0.000828
265 0.000841
266 0.000837
267 0.000864
268 0.000915
269 0.000923
270 0.000917
271 0.000918
272 0.000938
273 0.000938
274 0.000928
275 0.000897
276 0.000889
277 0.000863
278 0.000862
279 0.000874
280 0.000873
281 0.000877
282 0.000877
283 0.000893
284 0.000908
285 0.000930
286 0.000922
287 0.000937
288 0.000926
289 0.000943
290 0.000955
291 0.000974
292 0.000950
293 0.000935
294 0.000891
295 0.000869
296 0.000851
297 0.000827
298 0.000768
299 0.000751
300 0.000727
301 0.000728
302 0.000701
303 0.000693
304 0.000702
305 0.000722
306 0.000750
307 0.000776
308 0.000833
309 0.000910
310 0.000914
311 0.000915
312 0.000958
313 0.000966
314 0.000979
315 0.000986
316 0.000994
317 0.001032
318 0.001092
319 0.001125
320 0.001154
321 0.001115
322 0.001103
323 0.001078
324 0.001066
325 0.001042
326 0.001033
327 0.001023
328 0.001043
329 0.001079
330 0.001129
331 0.001177
332 0.001198
333 0.001198
334 0.001221
335 0.001232
336 0.001229
337 0.001245
338 0.001232
339 0.001190
340 0.001178
341 0.001182
342 0.001168
343 0.001109
344 0.001081
345 0.001105
346 0.001121
347 0.001117
348 0.001121
349 0.001108
350 0.001098
351 0.001063
352 0.001034
353 0.001027
354 0.001000
355 0.000954
356 0.000961
357 0.000958
358 0.000932
359 0.000903
360 0.000858
361 0.000837
362 0.000834
363 0.000797
364 0.000793
365 0.000804
366 0.000827
367 0.000846
368 0.000859
369 0.000875
370 0.000872
371 0.000893
372 0.000880
373 0.000854
374 0.000836
375 0.000840
376 0.000836
377 0.000839
378 0.000822
379 0.000798
380 0.000780
381 0.000782
382 0.000778
383 0.000767
384 0.000765
385 0.000773
386 0.000735
387 0.000695
388 0.000661
389 0.000627
390 0.000629
391 0.000623
392 0.000608
393 0.000614
394 0.000606
395 0.000605
396 0.000606
397 0.000612
398 0.000626
399 0.000613
400 0.000636
401 0.000678
402 0.000729
403 0.000754
404 0.000748
405 0.000726
406 0.000716
407 0.000737
408 0.000729
409 0.000719
410 0.000679
411 0.000670
412 0.000653
413 0.000628
414 0.000604
415 0.000580
416 0.000561
417 0.000543
418 0.000546
419 0.000582
420 0.000584
421 0.000610
422 0.000628
423 0.000659
424 0.000674
425 0.000660
426 0.000643
427 0.000608
428 0.000586
429 0.000562
430 0.000543
431 0.000506
432 0.000491
433 0.000461
434 0.000464
435 0.000421
436 0.000415
437 0.000446
438 0.000462
439 0.000458
440 0.000471
441 0.000450
442 0.000446
443 0.000435
444 0.000458
445 0.000442
446 0.000455
447 0.000482
448 0.000502
449 0.000492
450 0.000508
451 0.000487
452 0.000506
453 0.000549
454 0.000587
455 0.000622
456 0.000682
457 0.000715
458 0.000754
459 0.000775
460 0.000770
461 0.000722
462 0.000678
463 0.000644
464 0.000620
465 0.000605
466 0.000583
467 0.000553
468 0.000541
469 0.000545
470 0.000539
471 0.000513
472 0.000491
473 0.000484
474 0.000485
475 0.000494
476 0.000541
477 0.000579
478 0.000580
479 0.000576
480 0.000566
481 0.000573
482 0.000572
483 0.000568
484 0.000554
485 0.000554
486 0.000570
487 0.000573
488 0.000569
489 0.000565
490 0.000563
491 0.000543
492 0.000522
493 0.000529
494 0.000530
495 0.000511
496 0.000492
497 0.000497
498 0.000464
499 0.000454
500 0.000478
501 0.000498
502 0.000489
503 0.000476
504 0.000468
505 0.000461
506 0.000442
507 0.000410
508 0.000398
509 0.000402
510 0.000416
511 0.000410
512 0.000388
513 0.000376
514 0.000362
515 0.000368
516 0.000385
517 0.000394
518 0.000397
519 0.000410
520 0.000420
521 0.000447
522 0.000490
523 0.000515
524 0.000531
525 0.000576
526 0.000586
527 0.000580
528 0.000594
529 0.000622
530 0.000632
531 0.000620
532 0.000640
533 0.000657
534 0.000651
535 0.000655
536 0.000653
537 0.000642
538 0.000641
539 0.000639
540 0.000619
541 0.000611
542 0.000609
543 0.000593
544 0.000578
545 0.000527
546 0.000468
547 0.000437
548 0.000413
549 0.000393
550 0.000403
551 0.000394
552 0.000407
553 0.000403
554 0.000396
555 0.000370
556 0.000344
557 0.000321
558 0.000328
559 0.000293
560 0.000269
561 0.000259
562 0.000274
563 0.000281
564 0.000287
565 0.000309
566 0.000328
567 0.000315
568 0.000317
569 0.000317
570 0.000315
571 0.000341
572 0.000358
573 0.000357
574 0.000348
575 0.000351
576 0.000339
577 0.000314
578 0.000306
579 0.000289
580 0.000279
581 0.000260
582 0.000262
583 0.000258
584 0.000246
585 0.000230
586 0.000219
587 0.000189
588 0.000186
589 0.000169
590 0.000173
591 0.000181
592 0.000203
593 0.000215
594 0.000241
595 0.000255
596 0.000267
597 0.000279
598 0.000296
599 0.000322
600 0.000347
601 0.000376
602 0.000397
603 0.000416
604 0.000435
605 0.000455
606 0.000472
607 0.000491
608 0.000508
609 0.000517
610 0.000498
611 0.000476
612 0.000442
613 0.000411
614 0.000391
615 0.000387
616 0.000366
617 0.000370
618 0.000368
619 0.000358
620 0.000338
621 0.000318
622 0.000290
623 0.000273
624 0.000248
625 0.000244
626 0.000235
627 0.000253
628 0.000253
629 0.000249
630 0.000223
631 0.000216
632 0.000198
633 0.000207
634 0.000203
635 0.000188
636 0.000174
637 0.000179
638 0.000199
639 0.000208
640 0.000227
641 0.000236
642 0.000241
643 0.000244
644 0.000262
645 0.000281
646 0.000301
647 0.000316
648 0.000337
649 0.000388
650 0.000431
651 0.000447
652 0.000443
653 0.000453
654 0.000455
655 0.000447
656 0.000449
657 0.000450
658 0.000454
659 0.000457
660 0.000459
661 0.000457
662 0.000458
663 0.000437
664 0.000424
665 0.000402
666 0.000379
667 0.000370
668 0.000367
669 0.000359
670 0.000362
671 0.000343
672 0.000314
673 0.000293
674 0.000281
675 0.000264
676 0.000269
677 0.000275
678 0.000273
679 0.000279
680 0.000305
681 0.000323
682 0.000343
683 0.000371
684 0.000393
685 0.000405
686 0.000423
687 0.000449
688 0.000455
689 0.000460
690 0.000492
691 0.000532
692 0.000545
693 0.000543
694 0.000546
695 0.000522
696 0.000500
697 0.000458
698 0.000426
699 0.000402
700 0.000368
701 0.000316
702 0.000280
703 0.000213
704 0.000164
705 0.000116
706 0.000086
707 0.000065
708 0.000048
709 0.000028
710 0.000008
711 -0.000005
712 -0.000008
713 0.000004
714 0.000024
715 0.000044
716 0.000059
717 0.000056
718 0.000068
719 0.000082
720 0.000107
721 0.000128
722 0.000138
723 0.000143
724 0.000164
725 0.000187
726 0.000199
727 0.000207
728 0.000210
729 0.000201
730 0.000182
731 0.000164
732 0.000142
733 0.000142
734 0.000122
735 0.000119
736 0.000103
737 0.000068
738 0.000045
739 0.000026
740 0.000008
741 0.000012
742 0.000016
743 0.000017
744 0.000019
745 0.000003
746 0.000006
747 0.000014
748 0.000009
749 0.000035
750 0.000040
751 0.000025
752 0.000002
753 -0.000015
754 -0.000025
755 -0.000027
756 -0.000036
757 -0.000033
758 -0.000035
759 -0.000038
760 -0.000040
761 -0.000037
762 -0.000044
763 -0.000069
764 -0.000081
765 -0.000080
766 -0.000085
767 -0.000093
768 -0.000080
769 -0.000067
770 -0.000072
771 -0.000085
772 -0.000092
773 -0.000101
774 -0.000115
775 -0.000101
776 -0.000087
777 -0.000083
778 -0.000060
779 -0.000050
780 -0.000055
781 -0.000073
782 -0.000086
783 -0.000100
784 -0.000124
785 -0.000130
786 -0.000131
787 -0.000138
788 -0.000141
789 -0.000143
790 -0.000133
791 -0.000128
792 -0.000133
793 -0.000132
794 -0.000139
795 -0.000149
796 -0.000158
797 -0.000159
798 -0.000159
799 -0.000165
800 -0.000157
801 -0.000153
802 -0.000152
803 -0.000144
804 -0.000127
805 -0.000112
806 -0.000083
807 -0.000065
808 -0.000044
809 -0.000012
