# i correlation
1 0.003165
2 0.002907
3 0.002637
4 0.002440
5 0.002279
6 0.002125
7 0.001954
8 0.001822
9 0.001729
10 0.001688
11 0.001631
12 0.001586
13 0.001547
14 0.001503
15 0.001477
16 0.001439
17 0.001398
18 0.001373
19 0.001355
20 0.001330
21 0.001302
22 0.001245
23 0.001201
24 0.001190
25 0.001188
26 0.001205
27 0.001184
28 0.001174
29 0.001182
30 0.001170
31 0.001190
32 0.001193
33 0.001192
34 0.001170
35 0.001170
36 0.001183
37 0.001195
38 0.001190
39 0.001171
40 0.001167
41 0.001121
42 0.001085
43 0.001070
44 0.001062
45 0.001050
46 0.001049
47 0.001025
48 0.000992
49 0.000967
50 0.000960
51 0.000928
52 0.000885
53 0.000842
54 0.000793
55 0.000789
56 0.000785
57 0.000806
58 0.000851
59 0.000893
60 0.000911
61 0.000929
62 0.000956
63 0.000955
64 0.000957
65 0.000960
66 0.000971
67 0.000976
68 0.000982
69 0.000983
70 0.000985
71 0.001002
72 0.001055
73 0.001081
74 0.001100
75 0.001099
76 0.001083
77 0.001042
78 0.001032
79 0.001041
80 0.001030
81 0.001047
82 0.001046
83 0.001031
84 0.001046
85 0.001022
86 0.000996
87 0.000963
88 0.000959
89 0.000948
90 0.000969
91 0.000997
92 0.001023
93 0.001046
94 0.001083
95 0.001101
96 0.001095
97 0.001075
98 0.001067
99 0.001054
100 0.001047
101 0.001036
102 0.001047
103 0.001081
104 0.001114
105 0.001127
106 0.001081
107 0.001025
108 0.000989
109 0.000910
110 0.000899
111 0.000860
112 0.000833
113 0.000815
114 0.000792
115 0.000780
116 0.000789
117 0.000784
118 0.000808
119 0.000830
120 0.000863
121 0.000864
122 0.000877
123 0.000902
124 0.000916
125 0.000920
126 0.000905
127 0.000899
128 0.000901
129 0.000920
130 0.000961
131 0.001004
132 0.000994
133 0.000982
134 0.000969
135 0.000967
136 0.000958
137 0.000959
138 0.000941
139 0.000920
140 0.000935
141 0.000939
142 0.000937
143 0.000919
144 0.000904
145 0.000868
146 0.000815
147 0.000775
148 0.000758
149 0.000743
150 0.000765
151 0.000778
152 0.000773
153 0.000779
154 0.000790
155 0.000854
156 0.000918
157 0.000953
158 0.000942
159 0.000931
160 0.000932
161 0.000911
162 0.000896
163 0.000901
164 0.000904
165 0.000915
166 0.000923
167 0.000900
168 0.000889
169 0.000892
170 0.000901
171 0.000914
172 0.000925
173 0.000927
174 0.000908
175 0.000885
176 0.000857
177 0.000836
178 0.000810
179 0.000779
180 0.000764
181 0.000755
182 0.000763
183 0.000756
184 0.000731
185 0.000710
186 0.000702
187 0.000709
188 0.000716
189 0.000715
190 0.000707
191 0.000696
192 0.000718
193 0.000715
194 0.000708
195 0.000712
196 0.000737
197 0.000758
198 0.000787
199 0.000786
200 0.000805
201 0.000790
202 0.000825
203 0.000841
204 0.000854
205 0.000835
206 0.000833
207 0.000834
208 0.000848
209 0.000858
210 0.000842
211 0.000816
212 0.000798
213 0.000789
214 0.000780
215 0.000780
216 0.000789
217 0.000788
218 0.000808
219 0.000832
220 0.000863
221 0.000892
222 0.000936
223 0.000965
224 0.000977
225 0.000989
226 0.000989
227 0.000971
228 0.000972
229 0.000973
230 0.000985
231 0.001009
232 0.001014
233 0.001023
234 0.001002
235 0.001002
236 0.000969
237 0.000945
238 0.000933
239 0.000888
240 0.000858
241 0.000819
242 0.000788
243 0.000788
244 0.000766
245 0.000767
246 0.000748
247 0.000738
248 0.000708
249 0.000708
250 0.000718
251 0.000743
252 0.000745
253 0.000735
254 0.000718
255 0.000712
256 0.000689
257 0.000651
258 0.000634
259 0.000627
260 0.000621
261 0.000630
262 0.000604
263 0.000586
264 0.000579
265 0.000573
266 0.000582
267 0.000593
268 0.000618
269 0.000637
270 0.000647
271 0.000663
272 0.000655
273 0.000638
274 0.000589
275 0.000558
276 0.000529
277 0.000535
278 0.000546
279 0.000541
280 0.000543
281 0.000560
282 0.000557
283 0.000568
284 0.000566
285 0.000558
286 0.000552
287 0.000552
288 0.000562
289 0.000574
290 0.000594
291 0.000618
292 0.000645
293 0.000684
294 0.000700
295 0.000714
296 0.000722
297 0.000732
298 0.000726
299 0.000730
300 0.000734
301 0.000738
302 0.000733
303 0.000726
304 0.000727
305 0.000724
306 0.000719
307 0.000696
308 0.000675
309 0.000624
310 0.000606
311 0.000558
312 0.000550
313 0.000531
314 0.000524
315 0.000496
316 0.000491
317 0.000496
318 0.000522
319 0.000534
320 0.000534
321 0.000530
322 0.000528
323 0.000552
324 0.000590
325 0.000622
326 0.000627
327 0.000633
328 0.000638
329 0.000654
330 0.000665
331 0.000658
332 0.000653
333 0.000686
334 0.000714
335 0.000728
336 0.000739
337 0.000741
338 0.000738
339 0.000747
340 0.000739
341 0.000702
342 0.000671
343 0.000658
344 0.000606
345 0.000588
346 0.000543
347 0.000505
348 0.000486
349 0.000473
350 0.000460
351 0.000470
352 0.000451
353 0.000456
354 0.000464
355 0.000483
356 0.000477
357 0.000472
358 0.000455
359 0.000420
360 0.000399
361 0.000393
362 0.000396
363 0.000413
364 0.000454
365 0.000497
366 0.000540
367 0.000560
368 0.000597
369 0.000628
370 0.000634
371 0.000630
372 0.000638
373 0.000624
374 0.000633
375 0.000615
376 0.000609
377 0.000581
378 0.000545
379 0.000498
380 0.000466
381 0.000436
382 0.000422
383 0.000418
384 0.000406
385 0.000410
386 0.000400
387 0.000386
388 0.000377
389 0.000338
390 0.000289
391 0.000265
392 0.000233
393 0.000222
394 0.000211
395 0.000219
396 0.000223
397 0.000236
398 0.000282
399 0.000294
400 0.000313
401 0.000334
402 0.000363
403 0.000381
404 0.000410
405 0.000407
406 0.000410
407 0.000389
408 0.000400
409 0.000414
410 0.000415
411 0.000430
412 0.000435
413 0.000430
414 0.000427
415 0.000414
416 0.000401
417 0.000390
418 0.000383
419 0.000355
420 0.000333
421 0.000307
422 0.000271
423 0.000282
424 0.000313
425 0.000343
426 0.000337
427 0.000344
428 0.000347
429 0.000368
430 0.000404
431 0.000429
432 0.000436
433 0.000462
434 0.000468
435 0.000482
436 0.000484
437 0.000498
438 0.000506
439 0.000504
440 0.000507
441 0.000524
442 0.000550
443 0.000569
444 0.000596
445 0.000613
446 0.000615
447 0.000611
448 0.000612
449 0.000609
450 0.000598
451 0.000568
452 0.000530
453 0.000515
454 0.000494
455 0.000480
456 0.000478
457 0.000458
458 0.000458
459 0.000453
460 0.000457
461 0.000473
462 0.000472
463 0.000462
464 0.000450
465 0.000442
466 0.000427
467 0.000411
468 0.000402
469 0.000404
470 0.000412
471 0.000412
472 0.000385
473 0.000389
474 0.000406
475 0.000431
476 0.000450
477 0.000458
478 0.000451
479 0.000440
480 0.000434
481 0.000418
482 0.000396
483 0.000363
484 0.000333
485 0.000307
486 0.000276
487 0.000259
488 0.000241
489 0.000256
490 0.000278
491 0.000280
492 0.000297
493 0.000307
494 0.000304
495 0.000311
496 0.000316
497 0.000319
498 0.000327
499 0.000347
500 0.000360
501 0.000357
502 0.000367
503 0.000387
504 0.000403
505 0.000423
506 0.000459
507 0.000471
508 0.000508
509 0.000497
510 0.000468
511 0.000450
512 0.000446
513 0.000445
514 0.000469
515 0.000477
516 0.000502
517 0.000490
518 0.000482
519 0.000459
520 0.000455
521 0.000474
522 0.000495
523 0.000491
524 0.000499
525 0.000511
526 0.000529
527 0.000532
528 0.000539
529 0.000521
530 0.000511
531 0.000498
532 0.000494
533 0.000496
534 0.000499
535 0.000515
536 0.000552
537 0.000571
538 0.000580
539 0.000592
540 0.000592
541 0.000590
542 0.000582
543 0.000573
544 0.000540
545 0.000495
546 0.000451
547 0.000400
548 0.000372
549 0.000361
550 0.000350
551 0.000333
552 0.000321
553 0.000309
554 0.000305
555 0.000293
556 0.000274
557 0.000244
558 0.000222
559 0.000192
560 0.000161
561 0.000140
562 0.000122
563 0.000102
564 0.000119
565 0.000140
566 0.000159
567 0.000157
568 0.000170
569 0.000188
570 0.000188
571 0.000188
572 0.000180
573 0.000175
574 0.000196
575 0.000214
576 0.000226
577 0.000209
578 0.000186
579 0.000164
580 0.000156
581 0.000157
582 0.000128
583 0.000100
584 0.000087
585 0.000075
586 0.000085
587 0.000095
588 0.000110
589 0.000136
590 0.000157
591 0.000154
592 0.000145
593 0.000125
594 0.000116
595 0.000109
596 0.000101
597 0.000084
598 0.000082
599 0.000063
600 0.000057
601 0.000062
602 0.000078
603 0.000086
604 0.000087
605 0.000088
606 0.000111
607 0.000142
608 0.000180
609 0.000209
610 0.000235
611 0.000254
612 0.000267
613 0.000278
614 0.000277
615 0.000285
616 0.000298
617 0.000295
618 0.000300
619 0.000308
620 0.000336
621 0.000352
622 0.000350
623 0.000330
624 0.000315
625 0.000293
626 0.000289
627 0.000283
628 0.000274
629 0.000257
630 0.000242
631 0.000230
632 0.000224
633 0.000220
634 0.000232
635 0.000239
636 0.000234
637 0.000233
638 0.000240
639 0.000252
640 0.000267
641 0.000270
642 0.000256
643 0.000223
644 0.000194
645 0.000168
646 0.000150
647 0.000145
648 0.000129
649 0.000130
650 0.000122
651 0.000104
652 0.000074
653 0.000067
654 0.000054
655 0.000064
656 0.000079
657 0.000094
658 0.000123
659 0.000150
660 0.000171
661 0.000181
662 0.000191
663 0.000211
664 0.000222
665 0.000223
666 0.000214
667 0.000195
668 0.000191
669 0.000197
670 0.000213
671 0.000221
672 0.000227
673 0.000219
674 0.000212
675 0.000200
676 0.000181
677 0.000162
678 0.000145
679 0.000132
680 0.000114
681 0.000091
682 0.000077
683 0.000051
684 0.000042
685 0.000023
686 0.000000
687 -0.000018
688 -0.000027
689 -0.000034
690 -0.000042
691 -0.000040
692 -0.000029
693 -0.000006
694 0.000025
695 0.000057
696 0.000083
697 0.000100
698 0.000104
699 0.000122
700 0.000134
701 0.000136
702 0.000133
703 0.000121
704 0.000111
705 0.000118
706 0.000138
707 0.000146
708 0.000165
709 0.000178
710 0.000175
711 0.000180
712 0.000186
713 0.000182
714 0.000177
715 0.000149
716 0.000125
717 0.000090
718 0.000056
719 0.000029
720 -0.000001
721 -0.000024
722 -0.000036
723 -0.000046
724 -0.000041
725 -0.000021
726 -0.000002
727 0.000000
728 -0.000013
729 -0.000023
730 -0.000017
731 -0.000013
732 -0.000007
733 -0.000009
734 -0.000009
735 -0.000015
736 -0.000017
737 -0.000019
738 -0.000012
739 -0.000001
740 0.000007
741 0.000018
742 0.000028
743 0.000046
744 0.000067
745 0.000102
746 0.000130
747 0.000141
748 0.000151
749 0.000141
750 0.000139
751 0.000141
752 0.000145
753 0.000142
754 0.000126
755 0.000101
756 0.000079
757 0.000059
758 0.000062
759 0.000061
760 0.000042
761 0.000033
762 0.000026
763 0.000029
764 0.000028
765 0.000018
766 0.000014
767 0.000010
768 0.000004
769 -0.000001
770 -0.000008
771 -0.000013
772 -0.000017
773 -0.000020
774 -0.000019
775 -0.000022
776 -0.000018
777 -0.000014
778 -0.000002
779 0.000005
780 0.000003
781 0.000006
782 0.000004
783 0.000004
784 0.000009
785 0.000013
786 0.000008
787 0.000006
788 -0.000002
789 -0.000011
790 -0.000012
791 -0.000013
792 -0.000013
793 -0.000015
794 -0.000018
795 -0.000015
796 -0.000021
797 -0.000021
798 -0.000025
799 -0.000013
800 -0.000003
801 0.000004
802 0.000011
803 0.000017
804 0.000010
805 0.000005
806 -0.000005
807 -0.000016
808 -0.000032
809 -0.000054
