# i correlation
1 0.003498
2 0.003224
3 0.002997
4 0.002816
5 0.002614
6 0.002404
7 0.002270
8 0.002154
9 0.002070
10 0.002010
11 0.001988
12 0.001984
13 0.001956
14 0.001872
15 0.001829
16 0.001777
17 0.001730
18 0.001670
19 0.001612
20 0.001563
21 0.001546
22 0.001513
23 0.001485
24 0.001494
25 0.001483
26 0.001477
27 0.001487
28 0.001512
29 0.001515
30 0.001516
31 0.001532
32 0.001558
33 0.001554
34 0.001518
35 0.001481
36 0.001459
37 0.001420
38 0.001365
39 0.001314
40 0.001314
41 0.001316
42 0.001295
43 0.001264
44 0.001269
45 0.001283
46 0.001278
47 0.001247
48 0.001210
49 0.001164
50 0.001107
51 0.001056
52 0.001057
53 0.001051
54 0.001066
55 0.001064
56 0.001054
57 0.001052
58 0.001034
59 0.001000
60 0.000967
61 0.000929
62 0.000899
63 0.000871
64 0.000897
65 0.000918
66 0.000913
67 0.000898
68 0.000896
69 0.000901
70 0.000889
71 0.000869
72 0.000846
73 0.000830
74 0.000825
75 0.000838
76 0.000853
77 0.000856
78 0.000850
79 0.000841
80 0.000799
81 0.000761
82 0.000735
83 0.000710
84 0.000685
85 0.000683
86 0.000717
87 0.000772
88 0.000851
89 0.000912
90 0.000965
91 0.000991
92 0.001010
93 0.001004
94 0.000979
95 0.000946
96 0.000899
97 0.000883
98 0.000863
99 0.000841
100 0.000849
101 0.000836
102 0.000831
103 0.000815
104 0.000838
105 0.000881
106 0.000889
107 0.000891
108 0.000869
109 0.000842
110 0.000841
111 0.000819
112 0.000805
113 0.000754
114 0.000675
115 0.000598
116 0.000561
117 0.000544
118 0.000523
119 0.000521
120 0.000538
121 0.000550
122 0.000598
123 0.000643
124 0.000696
125 0.000734
126 0.000754
127 0.000737
128 0.000707
129 0.000690
130 0.000652
131 0.000642
132 0.000667
133 0.000686
134 0.000709
135 0.000726
136 0.000737
137 0.000739
138 0.000732
139 0.000700
140 0.000665
141 0.000627
142 0.000583
143 0.000551
144 0.000521
145 0.000534
146 0.000550
147 0.000593
148 0.000616
149 0.000611
150 0.000627
151 0.000661
152 0.000706
153 0.000708
154 0.000702
155 0.000673
156 0.000668
157 0.000671
158 0.000675
159 0.000657
160 0.000610
161 0.000584
162 0.000597
163 0.000599
164 0.000585
165 0.000591
166 0.000618
167 0.000627
168 0.000640
169 0.000680
170 0.000712
171 0.000708
172 0.000684
173 0.000670
174 0.000673
175 0.000681
176 0.000714
177 0.000722
178 0.000735
179 0.000757
180 0.000817
181 0.000891
182 0.000919
183 0.000960
184 0.001020
185 0.001049
186 0.001059
187 0.001057
188 0.001047
189 0.001060
190 0.001043
191 0.001011
192 0.000992
193 0.000999
194 0.001001
195 0.000981
196 0.000945
197 0.000936
198 0.000948
199 0.000942
200 0.000942
201 0.000940
202 0.000972
203 0.000940
204 0.000902
205 0.000859
206 0.000806
207 0.000762
208 0.000700
209 0.000644
210 0.000595
211 0.000557
212 0.000541
213 0.000527
214 0.000498
215 0.000480
216 0.000466
217 0.000474
218 0.000462
219 0.000419
220 0.000395
221 0.000370
222 0.000387
223 0.000427
224 0.000476
225 0.000496
226 0.000538
227 0.000583
228 0.000612
229 0.000618
230 0.000629
231 0.000636
232 0.000637
233 0.000617
234 0.000620
235 0.000612
236 0.000630
237 0.000621
238 0.000620
239 0.000642
240 0.000622
241 0.000602
242 0.000573
243 0.000570
244 0.000563
245 0.000569
246 0.000551
247 0.000534
248 0.000534
249 0.000534
250 0.000490
251 0.000474
252 0.000470
253 0.000445
254 0.000432
255 0.000397
256 0.000385
257 0.000381
258 0.000390
259 0.000387
260 0.000370
261 0.000340
262 0.000305
263 0.000264
264 0.000264
265 0.000252
266 0.000214
267 0.000179
268 0.000153
269 0.000162
270 0.000174
271 0.000188
272 0.000237
273 0.000294
274 0.000332
275 0.000366
276 0.000396
277 0.000409
278 0.000418
279 0.000410
280 0.000380
281 0.000343
282 0.000319
283 0.000286
284 0.000249
285 0.000222
286 0.000212
287 0.000178
288 0.000155
289 0.000169
290 0.000204
291 0.000242
292 0.000246
293 0.000254
294 0.000259
295 0.000232
296 0.000212
297 0.000204
298 0.000199
299 0.000206
300 0.000209
301 0.000227
302 0.000238
303 0.000247
304 0.000242
305 0.000229
306 0.000237
307 0.000221
308 0.000192
309 0.000179
310 0.000169
311 0.000160
312 0.000144
313 0.000138
314 0.000147
315 0.000164
316 0.000157
317 0.000158
318 0.000179
319 0.000199
320 0.000197
321 0.000206
322 0.000213
323 0.000228
324 0.000247
325 0.000254
326 0.000278
327 0.000325
328 0.000367
329 0.000396
330 0.000411
331 0.000454
332 0.000473
333 0.000482
334 0.000472
335 0.000473
336 0.000503
337 0.000512
338 0.000537
339 0.000550
340 0.000578
341 0.000592
342 0.000565
343 0.000554
344 0.000539
345 0.000529
346 0.000517
347 0.000481
348 0.000441
349 0.000406
350 0.000392
351 0.000386
352 0.000377
353 0.000375
354 0.000359
355 0.000367
356 0.000399
357 0.000438
358 0.000433
359 0.000439
360 0.000455
361 0.000491
362 0.000502
363 0.000524
364 0.000551
365 0.000597
366 0.000615
367 0.000629
368 0.000636
369 0.000639
370 0.000666
371 0.000660
372 0.000647
373 0.000638
374 0.000647
375 0.000636
376 0.000649
377 0.000664
378 0.000710
379 0.000747
380 0.000773
381 0.000801
382 0.000830
383 0.000856
384 0.000857
385 0.000861
386 0.000848
387 0.000827
388 0.000795
389 0.000755
390 0.000702
391 0.000666
392 0.000640
393 0.000619
394 0.000607
395 0.000588
396 0.000580
397 0.000580
398 0.000571
399 0.000531
400 0.000501
401 0.000478
402 0.000466
403 0.000446
404 0.000424
405 0.000418
406 0.000437
407 0.000464
408 0.000477
409 0.000504
410 0.000543
411 0.000583
412 0.000592
413 0.000591
414 0.000580
415 0.000582
416 0.000563
417 0.000523
418 0.000507
419 0.000485
420 0.000466
421 0.000446
422 0.000418
423 0.000406
424 0.000438
425 0.000482
426 0.000523
427 0.000554
428 0.000623
429 0.000682
430 0.000708
431 0.000720
432 0.000740
433 0.000750
434 0.000758
435 0.000748
436 0.000740
437 0.000713
438 0.000706
439 0.000695
440 0.000667
441 0.000660
442 0.000636
443 0.000609
444 0.000559
445 0.000514
446 0.000475
447 0.000428
448 0.000382
449 0.000348
450 0.000326
451 0.000321
452 0.000316
453 0.000306
454 0.000285
455 0.000257
456 0.000249
457 0.000238
458 0.000230
459 0.000206
460 0.000205
461 0.000204
462 0.000211
463 0.000220
464 0.000235
465 0.000245
466 0.000269
467 0.000291
468 0.000283
469 0.000282
470 0.000270
471 0.000256
472 0.000268
473 0.000272
474 0.000293
475 0.000310
476 0.000322
477 0.000344
478 0.000353
479 0.000361
480 0.000359
481 0.000340
482 0.000321
483 0.000310
484 0.000301
485 0.000302
486 0.000300
487 0.000301
488 0.000309
489 0.000293
490 0.000275
491 0.000244
492 0.000230
493 0.000215
494 0.000194
495 0.000190
496 0.000187
497 0.000179
498 0.000185
499 0.000185
500 0.000169
501 0.000155
502 0.000158
503 0.000198
504 0.000237
505 0.000240
506 0.000235
507 0.000268
508 0.000293
509 0.000296
510 0.000274
511 0.000255
512 0.000220
513 0.000203
514 0.000191
515 0.000182
516 0.000190
517 0.000189
518 0.000210
519 0.000239
520 0.000252
521 0.000269
522 0.000258
523 0.000228
524 0.000178
525 0.000130
526 0.000129
527 0.000102
528 0.000085
529 0.000078
530 0.000085
531 0.000087
532 0.000091
533 0.000103
534 0.000110
535 0.000109
536 0.000109
537 0.000099
538 0.000096
539 0.000100
540 0.000103
541 0.000089
542 0.000074
543 0.000062
544 0.000053
545 0.000032
546 0.000015
547 -0.000000
548 -0.000005
549 -0.000025
550 -0.000033
551 -0.000010
552 -0.000005
553 -0.000001
554 0.000010
555 0.000028
556 0.000031
557 0.000010
558 0.000000
559 -0.000020
560 -0.000040
561 -0.000046
562 -0.000051
563 -0.000009
564 0.000032
565 0.000073
566 0.000111
567 0.000164
568 0.000214
569 0.000226
570 0.000221
571 0.000210
572 0.000206
573 0.000203
574 0.000209
575 0.000210
576 0.000219
577 0.000210
578 0.000199
579 0.000207
580 0.000226
581 0.000216
582 0.000201
583 0.000203
584 0.000209
585 0.000211
586 0.000215
587 0.000224
588 0.000215
589 0.000184
590 0.000162
591 0.000161
592 0.000160
593 0.000142
594 0.000130
595 0.000139
596 0.000167
597 0.000197
598 0.000222
599 0.000241
600 0.000249
601 0.000249
602 0.000242
603 0.000230
604 0.000245
605 0.000260
606 0.000248
607 0.000227
608 0.000243
609 0.000294
610 0.000336
611 0.000367
612 0.000413
613 0.000453
614 0.000474
615 0.000494
616 0.000500
617 0.000503
618 0.000491
619 0.000500
620 0.000525
621 0.000551
622 0.000570
623 0.000575
624 0.000583
625 0.000574
626 0.000556
627 0.000539
628 0.000532
629 0.000521
630 0.000522
631 0.000526
632 0.000531
633 0.000539
634 0.000526
635 0.000508
636 0.000496
637 0.000475
638 0.000429
639 0.000399
640 0.000372
641 0.000348
642 0.000329
643 0.000331
644 0.000336
645 0.000346
646 0.000362
647 0.000349
648 0.000332
649 0.000296
650 0.000277
651 0.000263
652 0.000259
653 0.000244
654 0.000235
655 0.000248
656 0.000281
657 0.000309
658 0.000333
659 0.000343
660 0.000351
661 0.000373
662 0.000394
663 0.000398
664 0.000406
665 0.000404
666 0.000406
667 0.000411
668 0.000413
669 0.000408
670 0.000394
671 0.000366
672 0.000343
673 0.000330
674 0.000320
675 0.000285
676 0.000250
677 0.000249
678 0.000251
679 0.000269
680 0.000290
681 0.000292
682 0.000273
683 0.000244
684 0.000242
685 0.000248
686 0.000245
687 0.000247
688 0.000261
689 0.000283
690 0.000309
691 0.000336
692 0.000360
693 0.000370
694 0.000373
695 0.000352
696 0.000338
697 0.000329
698 0.000328
699 0.000316
700 0.000316
701 0.000312
702 0.000314
703 0.000338
704 0.000343
705 0.000353
706 0.000345
707 0.000330
708 0.000311
709 0.000309
710 0.000325
711 0.000334
712 0.000328
713 0.000303
714 0.000283
715 0.000279
716 0.000284
717 0.000280
718 0.000268
719 0.000265
720 0.000270
721 0.000296
722 0.000312
723 0.000329
724 0.000335
725 0.000340
726 0.000346
727 0.000353
728 0.000349
729 0.000323
730 0.000298
731 0.000283
732 0.000280
733 0.000277
734 0.000276
735 0.000282
736 0.000303
737 0.000316
738 0.000328
739 0.000344
740 0.000342
741 0.000327
742 0.000308
743 0.000312
744 0.000317
745 0.000320
746 0.000314
747 0.000296
748 0.000285
749 0.000273
750 0.000267
751 0.000257
752 0.000251
753 0.000248
754 0.000246
755 0.000246
756 0.000264
757 0.000282
758 0.000284
759 0.000279
760 0.000286
761 0.000284
762 0.000276
763 0.000269
764 0.000259
765 0.000258
766 0.000253
767 0.000269
768 0.000293
769 0.000312
770 0.000323
771 0.000339
772 0.000365
773 0.000374
774 0.000367
775 0.000368
776 0.000366
777 0.000352
778 0.000346
779 0.000347
780 0.000362
781 0.000372
782 0.000370
783 0.000352
784 0.000335
785 0.000326
786 0.000307
787 0.000277
788 0.000245
789 0.000225
790 0.000200
791 0.000187
792 0.000189
793 0.000207
794 0.000225
795 0.000245
796 0.000263
797 0.000290
798 0.000319
799 0.000337
800 0.000349
801 0.000340
802 0.000332
803 0.000323
804 0.000327
805 0.000337
806 0.000347
807 0.000357
808 0.000376
809 0.000404
