# i correlation
1 0.002808
2 0.002539
3 0.002314
4 0.002110
5 0.001948
6 0.001803
7 0.001678
8 0.001574
9 0.001483
10 0.001411
11 0.001362
12 0.001348
13 0.001309
14 0.001292
15 0.001254
16 0.001184
17 0.001104
18 0.001026
19 0.000956
20 0.000929
21 0.000915
22 0.000914
23 0.000901
24 0.000875
25 0.000852
26 0.000872
27 0.000888
28 0.000895
29 0.000899
30 0.000889
31 0.000839
32 0.000778
33 0.000728
34 0.000729
35 0.000705
36 0.000682
37 0.000676
38 0.000672
39 0.000687
40 0.000726
41 0.000779
42 0.000819
43 0.000853
44 0.000853
45 0.000825
46 0.000824
47 0.000812
48 0.000784
49 0.000761
50 0.000733
51 0.000709
52 0.000679
53 0.000672
54 0.000665
55 0.000662
56 0.000656
57 0.000652
58 0.000671
59 0.000704
60 0.000744
61 0.000789
62 0.000836
63 0.000837
64 0.000829
65 0.000846
66 0.000843
67 0.000818
68 0.000803
69 0.000812
70 0.000817
71 0.000828
72 0.000810
73 0.000783
74 0.000770
75 0.000744
76 0.000751
77 0.000771
78 0.000792
79 0.000777
80 0.000749
81 0.000735
82 0.000725
83 0.000705
84 0.000705
85 0.000737
86 0.000720
87 0.000678
88 0.000666
89 0.000666
90 0.000669
91 0.000660
92 0.000641
93 0.000618
94 0.000595
95 0.000577
96 0.000536
97 0.000511
98 0.000464
99 0.000422
100 0.000427
101 0.000431
102 0.000445
103 0.000494
104 0.000520
105 0.000580
106 0.000628
107 0.000666
108 0.000685
109 0.000697
110 0.000695
111 0.000686
112 0.000673
113 0.000641
114 0.000609
115 0.000571
116 0.000551
117 0.000512
118 0.000481
119 0.000474
120 0.000490
121 0.000492
122 0.000514
123 0.000548
124 0.000570
125 0.000564
126 0.000547
127 0.000550
128 0.000575
129 0.000583
130 0.000563
131 0.000539
132 0.000537
133 0.000531
134 0.000507
135 0.000474
136 0.000440
137 0.000440
138 0.000407
139 0.000437
140 0.000473
141 0.000473
142 0.000471
143 0.000499
144 0.000544
145 0.000570
146 0.000597
147 0.000607
148 0.000576
149 0.000536
150 0.000549
151 0.000582
152 0.000595
153 0.000606
154 0.000631
155 0.000658
156 0.000703
157 0.000733
158 0.000751
159 0.000776
160 0.000748
161 0.000714
162 0.000704
163 0.000693
164 0.000639
165 0.000599
166 0.000608
167 0.000625
168 0.000654
169 0.000690
170 0.000734
171 0.000807
172 0.000820
173 0.000826
174 0.000836
175 0.000845
176 0.000850
177 0.000831
178 0.000793
179 0.000775
180 0.000771
181 0.000782
182 0.000779
183 0.000783
184 0.000754
185 0.000754
186 0.000786
187 0.000783
188 0.000795
189 0.000777
190 0.000748
191 0.000724
192 0.000709
193 0.000697
194 0.000659
195 0.000619
196 0.000579
197 0.000542
198 0.000545
199 0.000538
200 0.000567
201 0.000589
202 0.000604
203 0.000599
204 0.000587
205 0.000600
206 0.000586
207 0.000554
208 0.000523
209 0.000523
210 0.000542
211 0.000558
212 0.000608
213 0.000664
214 0.000693
215 0.000727
216 0.000761
217 0.000804
218 0.000812
219 0.000795
220 0.000773
221 0.000746
222 0.000741
223 0.000734
224 0.000713
225 0.000697
226 0.000696
227 0.000662
228 0.000652
229 0.000627
230 0.000620
231 0.000625
232 0.000628
233 0.000619
234 0.000612
235 0.000614
236 0.000625
237 0.000609
238 0.000585
239 0.000566
240 0.000580
241 0.000608
242 0.000622
243 0.000629
244 0.000652
245 0.000677
246 0.000688
247 0.000702
248 0.000728
249 0.000724
250 0.000716
251 0.000706
252 0.000683
253 0.000700
254 0.000693
255 0.000674
256 0.000673
257 0.000672
258 0.000660
259 0.000667
260 0.000693
261 0.000705
262 0.000715
263 0.000710
264 0.000686
265 0.000666
266 0.000643
267 0.000626
268 0.000618
269 0.000595
270 0.000577
271 0.000572
272 0.000575
273 0.000593
274 0.000631
275 0.000667
276 0.000712
277 0.000755
278 0.000744
279 0.000739
280 0.000706
281 0.000684
282 0.000680
283 0.000683
284 0.000682
285 0.000667
286 0.000670
287 0.000687
288 0.000725
289 0.000732
290 0.000749
291 0.000780
292 0.000763
293 0.000739
294 0.000707
295 0.000679
296 0.000684
297 0.000681
298 0.000663
299 0.000654
300 0.000647
301 0.000615
302 0.000619
303 0.000639
304 0.000669
305 0.000688
306 0.000685
307 0.000648
308 0.000602
309 0.000545
310 0.000535
311 0.000520
312 0.000501
313 0.000481
314 0.000466
315 0.000475
316 0.000487
317 0.000495
318 0.000516
319 0.000516
320 0.000535
321 0.000534
322 0.000529
323 0.000515
324 0.000491
325 0.000488
326 0.000506
327 0.000528
328 0.000525
329 0.000515
330 0.000502
331 0.000494
332 0.000477
333 0.000467
334 0.000428
335 0.000398
336 0.000332
337 0.000286
338 0.000271
339 0.000255
340 0.000228
341 0.000197
342 0.000179
343 0.000127
344 0.000110
345 0.000140
346 0.000170
347 0.000203
348 0.000226
349 0.000241
350 0.000274
351 0.000295
352 0.000303
353 0.000333
354 0.000376
355 0.000400
356 0.000427
357 0.000456
358 0.000456
359 0.000460
360 0.000469
361 0.000473
362 0.000472
363 0.000466
364 0.000450
365 0.000461
366 0.000454
367 0.000469
368 0.000496
369 0.000526
370 0.000524
371 0.000524
372 0.000524
373 0.000533
374 0.000550
375 0.000576
376 0.000592
377 0.000607
378 0.000599
379 0.000578
380 0.000570
381 0.000578
382 0.000586
383 0.000583
384 0.000574
385 0.000564
386 0.000547
387 0.000517
388 0.000522
389 0.000534
390 0.000529
391 0.000514
392 0.000470
393 0.000442
394 0.000411
395 0.000395
396 0.000375
397 0.000378
398 0.000375
399 0.000373
400 0.000383
401 0.000391
402 0.000383
403 0.000394
404 0.000397
405 0.000390
406 0.000394
407 0.000407
408 0.000387
409 0.000381
410 0.000372
411 0.000383
412 0.000384
413 0.000374
414 0.000344
415 0.000333
416 0.000366
417 0.000379
418 0.000389
419 0.000395
420 0.000373
421 0.000353
422 0.000333
423 0.000326
424 0.000334
425 0.000315
426 0.000306
427 0.000320
428 0.000332
429 0.000343
430 0.000366
431 0.000379
432 0.000412
433 0.000451
434 0.000475
435 0.000486
436 0.000533
437 0.000549
438 0.000561
439 0.000578
440 0.000591
441 0.000596
442 0.000588
443 0.000587
444 0.000570
445 0.000549
446 0.000541
447 0.000541
448 0.000557
449 0.000543
450 0.000572
451 0.000576
452 0.000551
453 0.000532
454 0.000517
455 0.000507
456 0.000489
457 0.000471
458 0.000465
459 0.000464
460 0.000471
461 0.000460
462 0.000477
463 0.000504
464 0.000525
465 0.000532
466 0.000527
467 0.000515
468 0.000509
469 0.000493
470 0.000483
471 0.000474
472 0.000472
473 0.000480
474 0.000504
475 0.000498
476 0.000491
477 0.000486
478 0.000483
479 0.000481
480 0.000459
481 0.000446
482 0.000451
483 0.000433
484 0.000415
485 0.000418
486 0.000433
487 0.000432
488 0.000435
489 0.000448
490 0.000445
491 0.000431
492 0.000420
493 0.000411
494 0.000418
495 0.000409
496 0.000415
497 0.000429
498 0.000449
499 0.000451
500 0.000456
501 0.000470
502 0.000474
503 0.000474
504 0.000492
505 0.000490
506 0.000501
507 0.000494
508 0.000508
509 0.000513
510 0.000514
511 0.000510
512 0.000533
513 0.000551
514 0.000558
515 0.000544
516 0.000525
517 0.000520
518 0.000506
519 0.000504
520 0.000480
521 0.000472
522 0.000471
523 0.000446
524 0.000422
525 0.000420
526 0.000418
527 0.000429
528 0.000465
529 0.000459
530 0.000460
531 0.000451
532 0.000443
533 0.000448
534 0.000447
535 0.000454
536 0.000486
537 0.000497
538 0.000501
539 0.000481
540 0.000478
541 0.000481
542 0.000481
543 0.000485
544 0.000475
545 0.000453
546 0.000424
547 0.000391
548 0.000359
549 0.000314
550 0.000296
551 0.000287
552 0.000290
553 0.000300
554 0.000294
555 0.000273
556 0.000289
557 0.000301
558 0.000323
559 0.000353
560 0.000367
561 0.000386
562 0.000397
563 0.000423
564 0.000438
565 0.000442
566 0.000451
567 0.000454
568 0.000453
569 0.000437
570 0.000422
571 0.000422
572 0.000423
573 0.000429
574 0.000445
575 0.000437
576 0.000411
577 0.000399
578 0.000397
579 0.000409
580 0.000426
581 0.000422
582 0.000411
583 0.000400
584 0.000376
585 0.000322
586 0.000270
587 0.000236
588 0.000200
589 0.000163
590 0.000131
591 0.000095
592 0.000065
593 0.000055
594 0.000054
595 0.000055
596 0.000047
597 0.000040
598 0.000036
599 0.000037
600 0.000009
601 -0.000003
602 -0.000005
603 -0.000004
604 0.000004
605 0.000001
606 0.000010
607 0.000019
608 0.000034
609 0.000049
610 0.000050
611 0.000040
612 0.000030
613 0.000013
614 -0.000001
615 -0.000021
616 -0.000028
617 -0.000032
618 -0.000030
619 -0.000016
620 -0.000013
621 -0.000009
622 0.000004
623 0.000008
624 0.000016
625 0.000017
626 0.000021
627 0.000006
628 0.000001
629 0.000008
630 0.000007
631 0.000005
632 0.000004
633 0.000014
634 0.000013
635 0.000009
636 0.000006
637 -0.000005
638 -0.000018
639 -0.000029
640 -0.000038
641 -0.000035
642 -0.000020
643 -0.000003
644 0.000020
645 0.000065
646 0.000099
647 0.000101
648 0.000119
649 0.000140
650 0.000159
651 0.000187
652 0.000203
653 0.000224
654 0.000238
655 0.000244
656 0.000252
657 0.000259
658 0.000263
659 0.000278
660 0.000285
661 0.000277
662 0.000263
663 0.000253
664 0.000248
665 0.000259
666 0.000268
667 0.000285
668 0.000297
669 0.000297
670 0.000290
671 0.000266
672 0.000247
673 0.000224
674 0.000216
675 0.000212
676 0.000207
677 0.000206
678 0.000197
679 0.000195
680 0.000211
681 0.000209
682 0.000211
683 0.000216
684 0.000222
685 0.000231
686 0.000250
687 0.000286
688 0.000321
689 0.000356
690 0.000369
691 0.000384
692 0.000387
693 0.000376
694 0.000363
695 0.000348
696 0.000326
697 0.000296
698 0.000274
699 0.000245
700 0.000221
701 0.000202
702 0.000184
703 0.000167
704 0.000177
705 0.000178
706 0.000182
707 0.000189
708 0.000193
709 0.000189
710 0.000184
711 0.000184
712 0.000164
713 0.000161
714 0.000167
715 0.000173
716 0.000169
717 0.000177
718 0.000182
719 0.000182
720 0.000181
721 0.000177
722 0.000179
723 0.000180
724 0.000177
725 0.000177
726 0.000180
727 0.000185
728 0.000197
729 0.000216
730 0.000240
731 0.000262
732 0.000277
733 0.000283
734 0.000291
735 0.000296
736 0.000303
737 0.000303
738 0.000311
739 0.000316
740 0.000318
741 0.000311
742 0.000309
743 0.000301
744 0.000286
745 0.000288
746 0.000290
747 0.000276
748 0.000272
749 0.000268
750 0.000259
751 0.000264
752 0.000269
753 0.000280
754 0.000302
755 0.000311
756 0.000315
757 0.000320
758 0.000326
759 0.000326
760 0.000317
761 0.000308
762 0.000289
763 0.000268
764 0.000247
765 0.000228
766 0.000218
767 0.000197
768 0.000176
769 0.000158
770 0.000144
771 0.000115
772 0.000102
773 0.000089
774 0.000083
775 0.000088
776 0.000094
777 0.000091
778 0.000082
779 0.000077
780 0.000069
781 0.000059
782 0.000048
783 0.000033
784 0.000015
785 -0.000003
786 -0.000007
787 -0.000015
788 -0.000021
789 -0.000017
790 -0.000022
791 -0.000029
792 -0.000023
793 -0.000023
794 -0.000014
795 -0.000007
796 0.000009
797 0.000017
798 0.000024
799 0.000032
800 0.000041
801 0.000048
802 0.000052
803 0.000048
804 0.000047
805 0.000042
806 0.000028
807 0.000022
808 0.000007
809 -0.000002
