# i correlation
1 0.004348
2 0.004027
3 0.003780
4 0.003581
5 0.003424
6 0.003257
7 0.003117
8 0.002999
9 0.002916
10 0.002808
11 0.002735
12 0.002688
13 0.002658
14 0.002655
15 0.002640
16 0.002602
17 0.002552
18 0.002523
19 0.002503
20 0.002483
21 0.002434
22 0.002410
23 0.002417
24 0.002464
25 0.002466
26 0.002475
27 0.002522
28 0.002536
29 0.002534
30 0.002533
31 0.002520
32 0.002532
33 0.002518
34 0.002548
35 0.002545
36 0.002521
37 0.002489
38 0.002431
39 0.002384
40 0.002327
41 0.002231
42 0.002156
43 0.002104
44 0.002062
45 0.002037
46 0.002009
47 0.001985
48 0.002003
49 0.002037
50 0.002070
51 0.002083
52 0.002091
53 0.002075
54 0.002087
55 0.002057
56 0.002024
57 0.002016
58 0.002048
59 0.002052
60 0.002009
61 0.001983
62 0.001984
63 0.001991
64 0.002021
65 0.002045
66 0.002046
67 0.002048
68 0.002047
69 0.002015
70 0.002009
71 0.001971
72 0.001955
73 0.001947
74 0.001937
75 0.001937
76 0.001935
77 0.001941
78 0.001918
79 0.001907
80 0.001879
81 0.001897
82 0.001904
83 0.001929
84 0.001955
85 0.001988
86 0.002019
87 0.002010
88 0.002021
89 0.002034
90 0.002028
91 0.002020
92 0.002003
93 0.001965
94 0.001959
95 0.001963
96 0.001973
97 0.001976
98 0.001991
99 0.002005
100 0.002043
101 0.002079
102 0.002092
103 0.002083
104 0.002071
105 0.002056
106 0.002024
107 0.001977
108 0.001973
109 0.001937
110 0.001950
111 0.001945
112 0.001985
113 0.002004
114 0.002018
115 0.002021
116 0.002024
117 0.002027
118 0.002057
119 0.002049
120 0.002017
121 0.002004
122 0.001957
123 0.001928
124 0.001910
125 0.001861
126 0.001824
127 0.001821
128 0.001852
129 0.001888
130 0.001909
131 0.001921
132 0.001914
133 0.001884
134 0.001838
135 0.001774
136 0.001750
137 0.001763
138 0.001791
139 0.001793
140 0.001805
141 0.001815
142 0.001835
143 0.001833
144 0.001804
145 0.001760
146 0.001694
147 0.001633
148 0.001600
149 0.001564
150 0.001547
151 0.001530
152 0.001489
153 0.001471
154 0.001425
155 0.001402
156 0.001409
157 0.001404
158 0.001442
159 0.001454
160 0.001438
161 0.001382
162 0.001345
163 0.001314
164 0.001320
165 0.001352
166 0.001383
167 0.001440
168 0.001462
169 0.001474
170 0.001483
171 0.001455
172 0.001417
173 0.001399
174 0.001345
175 0.001310
176 0.001293
177 0.001320
178 0.001359
179 0.001364
180 0.001377
181 0.001395
182 0.001398
183 0.001411
184 0.001405
185 0.001416
186 0.001392
187 0.001382
188 0.001367
189 0.001369
190 0.001365
191 0.001383
192 0.001402
193 0.001435
194 0.001477
195 0.001484
196 0.001496
197 0.001497
198 0.001506
199 0.001520
200 0.001533
201 0.001549
202 0.001519
203 0.001484
204 0.001489
205 0.001509
206 0.001499
207 0.001484
208 0.001444
209 0.001393
210 0.001316
211 0.001244
212 0.001224
213 0.001200
214 0.001171
215 0.001169
216 0.001171
217 0.001177
218 0.001188
219 0.001201
220 0.001195
221 0.001213
222 0.001243
223 0.001242
224 0.001223
225 0.001195
226 0.001195
227 0.001198
228 0.001258
229 0.001300
230 0.001293
231 0.001294
232 0.001312
233 0.001333
234 0.001331
235 0.001339
236 0.001340
237 0.001322
238 0.001283
239 0.001246
240 0.001203
241 0.001165
242 0.001141
243 0.001130
244 0.001111
245 0.001080
246 0.001053
247 0.001030
248 0.001009
249 0.000985
250 0.000945
251 0.000930
252 0.000941
253 0.000939
254 0.000952
255 0.000979
256 0.001033
257 0.001054
258 0.001082
259 0.001119
260 0.001107
261 0.001096
262 0.001092
263 0.001097
264 0.001086
265 0.001053
266 0.001038
267 0.001029
268 0.001024
269 0.001015
270 0.001007
271 0.001017
272 0.001038
273 0.001054
274 0.001031
275 0.000977
276 0.000936
277 0.000884
278 0.000850
279 0.000824
280 0.000800
281 0.000824
282 0.000832
283 0.000866
284 0.000862
285 0.000835
286 0.000842
287 0.000870
288 0.000896
289 0.000912
290 0.000926
291 0.000945
292 0.000941
293 0.000941
294 0.000926
295 0.000935
296 0.000962
297 0.001016
298 0.001055
299 0.001081
300 0.001057
301 0.001073
302 0.001083
303 0.001081
304 0.001082
305 0.001099
306 0.001122
307 0.001122
308 0.001120
309 0.001112
310 0.001109
311 0.001128
312 0.001118
313 0.001104
314 0.001074
315 0.001049
316 0.000997
317 0.000986
318 0.000979
319 0.000969
320 0.000963
321 0.000984
322 0.000998
323 0.001023
324 0.001048
325 0.001046
326 0.001036
327 0.001044
328 0.001035
329 0.001032
330 0.001027
331 0.001012
332 0.000993
333 0.000997
334 0.000999
335 0.001006
336 0.001026
337 0.001051
338 0.001080
339 0.001066
340 0.001051
341 0.001053
342 0.001015
343 0.000983
344 0.000945
345 0.000911
346 0.000884
347 0.000861
348 0.000863
349 0.000872
350 0.000856
351 0.000830
352 0.000789
353 0.000771
354 0.000743
355 0.000712
356 0.000694
357 0.000687
358 0.000649
359 0.000649
360 0.000647
361 0.000653
362 0.000657
363 0.000665
364 0.000689
365 0.000710
366 0.000744
367 0.000790
368 0.000819
369 0.000822
370 0.000825
371 0.000826
372 0.000848
373 0.000861
374 0.000874
375 0.000859
376 0.000835
377 0.000832
378 0.000826
379 0.000819
380 0.000802
381 0.000779
382 0.000755
383 0.000735
384 0.000707
385 0.000693
386 0.000714
387 0.000728
388 0.000730
389 0.000731
390 0.000708
391 0.000689
392 0.000666
393 0.000652
394 0.000655
395 0.000641
396 0.000646
397 0.000659
398 0.000650
399 0.000674
400 0.000719
401 0.000792
402 0.000854
403 0.000870
404 0.000879
405 0.000908
406 0.000950
407 0.001007
408 0.001013
409 0.001004
410 0.001007
411 0.001017
412 0.001020
413 0.001072
414 0.001060
415 0.001043
416 0.001029
417 0.001015
418 0.000998
419 0.001001
420 0.000988
421 0.000983
422 0.000987
423 0.000987
424 0.001021
425 0.001054
426 0.001095
427 0.001128
428 0.001128
429 0.001164
430 0.001171
431 0.001171
432 0.001151
433 0.001147
434 0.001159
435 0.001176
436 0.001185
437 0.001185
438 0.001181
439 0.001177
440 0.001189
441 0.001199
442 0.001204
443 0.001214
444 0.001207
445 0.001190
446 0.001131
447 0.001084
448 0.001039
449 0.001011
450 0.000984
451 0.000968
452 0.000940
453 0.000927
454 0.000918
455 0.000917
456 0.000939
457 0.000950
458 0.000966
459 0.001004
460 0.001025
461 0.001063
462 0.001075
463 0.001085
464 0.001106
465 0.001099
466 0.001079
467 0.001100
468 0.001129
469 0.001149
470 0.001142
471 0.001140
472 0.001130
473 0.001092
474 0.001062
475 0.001031
476 0.000980
477 0.000949
478 0.000945
479 0.000914
480 0.000891
481 0.000852
482 0.000824
483 0.000823
484 0.000799
485 0.000764
486 0.000746
487 0.000743
488 0.000743
489 0.000739
490 0.000739
491 0.000764
492 0.000794
493 0.000782
494 0.000786
495 0.000812
496 0.000838
497 0.000844
498 0.000858
499 0.000875
500 0.000873
501 0.000875
502 0.000863
503 0.000848
504 0.000848
505 0.000837
506 0.000829
507 0.000816
508 0.000814
509 0.000802
510 0.000799
511 0.000806
512 0.000808
513 0.000812
514 0.000827
515 0.000876
516 0.000886
517 0.000886
518 0.000910
519 0.000961
520 0.000998
521 0.001018
522 0.001000
523 0.000977
524 0.000946
525 0.000944
526 0.000943
527 0.000963
528 0.000979
529 0.000990
530 0.000995
531 0.000983
532 0.000985
533 0.000966
534 0.000975
535 0.000979
536 0.000968
537 0.000977
538 0.000951
539 0.000939
540 0.000944
541 0.000944
542 0.000958
543 0.000965
544 0.000983
545 0.001037
546 0.001071
547 0.001088
548 0.001087
549 0.001096
550 0.001108
551 0.001103
552 0.001077
553 0.001081
554 0.001086
555 0.001107
556 0.001106
557 0.001106
558 0.001103
559 0.001120
560 0.001132
561 0.001111
562 0.001095
563 0.001074
564 0.001068
565 0.001060
566 0.001046
567 0.001036
568 0.001031
569 0.001067
570 0.001097
571 0.001138
572 0.001187
573 0.001221
574 0.001250
575 0.001243
576 0.001199
577 0.001175
578 0.001149
579 0.001148
580 0.001157
581 0.001140
582 0.001117
583 0.001095
584 0.001072
585 0.001068
586 0.001083
587 0.001091
588 0.001067
589 0.001047
590 0.001022
591 0.001012
592 0.001010
593 0.001030
594 0.001060
595 0.001084
596 0.001107
597 0.001090
598 0.001066
599 0.001058
600 0.001063
601 0.001084
602 0.001113
603 0.001121
604 0.001132
605 0.001137
606 0.001152
607 0.001162
608 0.001179
609 0.001200
610 0.001220
611 0.001253
612 0.001289
613 0.001304
614 0.001317
615 0.001304
616 0.001282
617 0.001253
618 0.001222
619 0.001191
620 0.001180
621 0.001156
622 0.001120
623 0.001122
624 0.001090
625 0.001066
626 0.001058
627 0.001045
628 0.001060
629 0.001100
630 0.001140
631 0.001142
632 0.001130
633 0.001107
634 0.001099
635 0.001096
636 0.001107
637 0.001105
638 0.001118
639 0.001147
640 0.001155
641 0.001157
642 0.001170
643 0.001182
644 0.001190
645 0.001198
646 0.001188
647 0.001180
648 0.001170
649 0.001157
650 0.001145
651 0.001142
652 0.001135
653 0.001118
654 0.001094
655 0.001085
656 0.001088
657 0.001091
658 0.001118
659 0.001135
660 0.001138
661 0.001148
662 0.001142
663 0.001133
664 0.001120
665 0.001106
666 0.001097
667 0.001071
668 0.001063
669 0.001041
670 0.001039
671 0.001050
672 0.001057
673 0.001069
674 0.001070
675 0.001062
676 0.001052
677 0.001053
678 0.001056
679 0.001054
680 0.001026
681 0.000977
682 0.000936
683 0.000904
684 0.000865
685 0.000850
686 0.000826
687 0.000821
688 0.000839
689 0.000840
690 0.000834
691 0.000829
692 0.000830
693 0.000837
694 0.000834
695 0.000818
696 0.000806
697 0.000803
698 0.000795
699 0.000765
700 0.000743
701 0.000726
702 0.000715
703 0.000705
704 0.000710
705 0.000715
706 0.000698
707 0.000698
708 0.000695
709 0.000681
710 0.000683
711 0.000682
712 0.000703
713 0.000726
714 0.000748
715 0.000756
716 0.000767
717 0.000776
718 0.000764
719 0.000747
720 0.000726
721 0.000701
722 0.000697
723 0.000702
724 0.000715
725 0.000717
726 0.000732
727 0.000738
728 0.000740
729 0.000736
730 0.000737
731 0.000745
732 0.000762
733 0.000753
734 0.000735
735 0.000722
736 0.000712
737 0.000717
738 0.000713
739 0.000698
740 0.000692
741 0.000698
742 0.000726
743 0.000744
744 0.000757
745 0.000744
746 0.000731
747 0.000720
748 0.000691
749 0.000664
750 0.000647
751 0.000641
752 0.000616
753 0.000596
754 0.000586
755 0.000573
756 0.000574
757 0.000563
758 0.000554
759 0.000541
760 0.000532
761 0.000524
762 0.000516
763 0.000505
764 0.000493
765 0.000470
766 0.000450
767 0.000429
768 0.000427
769 0.000414
770 0.000416
771 0.000420
772 0.000422
773 0.000444
774 0.000473
775 0.000491
776 0.000502
777 0.000508
778 0.000504
779 0.000504
780 0.000498
781 0.000476
782 0.000459
783 0.000423
784 0.000387
785 0.000370
786 0.000341
787 0.000329
788 0.000317
789 0.000299
790 0.000278
791 0.000247
792 0.000235
793 0.000245
794 0.000242
795 0.000238
796 0.000234
797 0.000223
798 0.000211
799 0.000199
800 0.000196
801 0.000200
802 0.000207
803 0.000202
804 0.000196
805 0.000193
806 0.000196
807 0.000196
808 0.000207
809 0.000232
