# i correlation
1 0.004036
2 0.003736
3 0.003506
4 0.003324
5 0.003170
6 0.003024
7 0.002920
8 0.002785
9 0.002666
10 0.002502
11 0.002396
12 0.002282
13 0.002215
14 0.002147
15 0.002072
16 0.002024
17 0.001948
18 0.001909
19 0.001857
20 0.001875
21 0.001881
22 0.001871
23 0.001864
24 0.001855
25 0.001851
26 0.001835
27 0.001813
28 0.001757
29 0.001732
30 0.001706
31 0.001684
32 0.001656
33 0.001615
34 0.001622
35 0.001626
36 0.001621
37 0.001612
38 0.001610
39 0.001589
40 0.001566
41 0.001535
42 0.001489
43 0.001484
44 0.001495
45 0.001529
46 0.001549
47 0.001557
48 0.001558
49 0.001552
50 0.001560
51 0.001570
52 0.001553
53 0.001521
54 0.001490
55 0.001464
56 0.001465
57 0.001426
58 0.001385
59 0.001393
60 0.001411
61 0.001429
62 0.001414
63 0.001401
64 0.001386
65 0.001357
66 0.001364
67 0.001349
68 0.001347
69 0.001335
70 0.001331
71 0.001323
72 0.001315
73 0.001295
74 0.001275
75 0.001288
76 0.001272
77 0.001254
78 0.001221
79 0.001169
80 0.001124
81 0.001102
82 0.001083
83 0.001071
84 0.001061
85 0.001076
86 0.001060
87 0.001030
88 0.000973
89 0.000905
90 0.000840
91 0.000810
92 0.000816
93 0.000824
94 0.000817
95 0.000801
96 0.000798
97 0.000728
98 0.000670
99 0.000662
100 0.000617
101 0.000590
102 0.000540
103 0.000487
104 0.000451
105 0.000441
106 0.000411
107 0.000380
108 0.000397
109 0.000413
110 0.000429
111 0.000450
112 0.000508
113 0.000551
114 0.000595
115 0.000606
116 0.000631
117 0.000690
118 0.000710
119 0.000754
120 0.000784
121 0.000870
122 0.000942
123 0.000982
124 0.001034
125 0.001097
126 0.001154
127 0.001167
128 0.001162
129 0.001156
130 0.001166
131 0.001198
132 0.001229
133 0.001239
134 0.001225
135 0.001220
136 0.001211
137 0.001221
138 0.001215
139 0.001216
140 0.001215
141 0.001182
142 0.001155
143 0.001122
144 0.001084
145 0.001050
146 0.001012
147 0.000964
148 0.000937
149 0.000922
150 0.000898
151 0.000864
152 0.000793
153 0.000749
154 0.000709
155 0.000719
156 0.000721
157 0.000729
158 0.000729
159 0.000738
160 0.000769
161 0.000793
162 0.000841
163 0.000873
164 0.000867
165 0.000871
166 0.000854
167 0.000819
168 0.000805
169 0.000823
170 0.000819
171 0.000838
172 0.000838
173 0.000851
174 0.000831
175 0.000815
176 0.000830
177 0.000867
178 0.000913
179 0.000902
180 0.000925
181 0.000951
182 0.000985
183 0.001005
184 0.001004
185 0.001019
186 0.001050
187 0.001107
188 0.001127
189 0.001143
190 0.001133
191 0.001143
192 0.001174
193 0.001198
194 0.001208
195 0.001212
196 0.001200
197 0.001162
198 0.001121
199 0.001083
200 0.001074
201 0.001066
202 0.001065
203 0.001031
204 0.001009
205 0.000976
206 0.000979
207 0.001010
208 0.001036
209 0.001063
210 0.001085
211 0.001063
212 0.001064
213 0.001043
214 0.000996
215 0.000965
216 0.000947
217 0.000921
218 0.000897
219 0.000840
220 0.000782
221 0.000774
222 0.000752
223 0.000733
224 0.000694
225 0.000640
226 0.000597
227 0.000540
228 0.000499
229 0.000476
230 0.000470
231 0.000468
232 0.000462
233 0.000441
234 0.000406
235 0.000380
236 0.000372
237 0.000391
238 0.000418
239 0.000417
240 0.000416
241 0.000390
242 0.000374
243 0.000379
244 0.000413
245 0.000420
246 0.000429
247 0.000439
248 0.000447
249 0.000433
250 0.000428
251 0.000438
252 0.000435
253 0.000443
254 0.000454
255 0.000515
256 0.000547
257 0.000570
258 0.000617
259 0.000646
260 0.000656
261 0.000658
262 0.000653
263 0.000648
264 0.000659
265 0.000651
266 0.000643
267 0.000667
268 0.000700
269 0.000728
270 0.000729
271 0.000759
272 0.000844
273 0.000874
274 0.000893
275 0.000881
276 0.000865
277 0.000854
278 0.000807
279 0.000776
280 0.000741
281 0.000754
282 0.000749
283 0.000742
284 0.000730
285 0.000678
286 0.000637
287 0.000617
288 0.000626
289 0.000607
290 0.000581
291 0.000549
292 0.000530
293 0.000510
294 0.000492
295 0.000510
296 0.000497
297 0.000447
298 0.000403
299 0.000379
300 0.000376
301 0.000353
302 0.000329
303 0.000319
304 0.000360
305 0.000385
306 0.000455
307 0.000490
308 0.000520
309 0.000566
310 0.000563
311 0.000569
312 0.000585
313 0.000628
314 0.000634
315 0.000640
316 0.000632
317 0.000605
318 0.000573
319 0.000527
320 0.000513
321 0.000530
322 0.000558
323 0.000546
324 0.000529
325 0.000519
326 0.000525
327 0.000541
328 0.000542
329 0.000548
330 0.000541
331 0.000541
332 0.000557
333 0.000608
334 0.000647
335 0.000660
336 0.000657
337 0.000642
338 0.000656
339 0.000632
340 0.000648
341 0.000642
342 0.000640
343 0.000667
344 0.000670
345 0.000651
346 0.000594
347 0.000597
348 0.000586
349 0.000578
350 0.000587
351 0.000603
352 0.000617
353 0.000608
354 0.000596
355 0.000573
356 0.000566
357 0.000556
358 0.000539
359 0.000520
360 0.000521
361 0.000504
362 0.000449
363 0.000420
364 0.000406
365 0.000402
366 0.000384
367 0.000370
368 0.000383
369 0.000406
370 0.000387
371 0.000371
372 0.000377
373 0.000375
374 0.000346
375 0.000319
376 0.000298
377 0.000286
378 0.000266
379 0.000247
380 0.000231
381 0.000230
382 0.000207
383 0.000172
384 0.000145
385 0.000137
386 0.000147
387 0.000149
388 0.000167
389 0.000198
390 0.000210
391 0.000234
392 0.000244
393 0.000254
394 0.000287
395 0.000305
396 0.000316
397 0.000342
398 0.000382
399 0.000411
400 0.000443
401 0.000474
402 0.000475
403 0.000471
404 0.000465
405 0.000464
406 0.000463
407 0.000461
408 0.000478
409 0.000507
410 0.000509
411 0.000488
412 0.000477
413 0.000480
414 0.000482
415 0.000483
416 0.000466
417 0.000458
418 0.000449
419 0.000433
420 0.000418
421 0.000424
422 0.000402
423 0.000374
424 0.000324
425 0.000277
426 0.000222
427 0.000162
428 0.000126
429 0.000066
430 0.000039
431 0.000012
432 -0.000007
433 0.000005
434 -0.000011
435 -0.000012
436 -0.000005
437 0.000023
438 0.000040
439 0.000070
440 0.000069
441 0.000038
442 0.000022
443 0.000009
444 0.000027
445 0.000027
446 0.000072
447 0.000107
448 0.000148
449 0.000172
450 0.000187
451 0.000204
452 0.000206
453 0.000232
454 0.000234
455 0.000245
456 0.000250
457 0.000269
458 0.000260
459 0.000262
460 0.000266
461 0.000281
462 0.000281
463 0.000243
464 0.000255
465 0.000274
466 0.000287
467 0.000270
468 0.000261
469 0.000300
470 0.000326
471 0.000364
472 0.000383
473 0.000409
474 0.000429
475 0.000433
476 0.000424
477 0.000435
478 0.000459
479 0.000451
480 0.000426
481 0.000403
482 0.000408
483 0.000433
484 0.000453
485 0.000478
486 0.000486
487 0.000482
488 0.000442
489 0.000409
490 0.000411
491 0.000409
492 0.000383
493 0.000413
494 0.000418
495 0.000402
496 0.000409
497 0.000400
498 0.000401
499 0.000421
500 0.000444
501 0.000422
502 0.000424
503 0.000432
504 0.000440
505 0.000461
506 0.000498
507 0.000523
508 0.000524
509 0.000513
510 0.000503
511 0.000476
512 0.000421
513 0.000405
514 0.000404
515 0.000391
516 0.000382
517 0.000379
518 0.000376
519 0.000374
520 0.000353
521 0.000336
522 0.000323
523 0.000308
524 0.000308
525 0.000322
526 0.000326
527 0.000333
528 0.000332
529 0.000344
530 0.000367
531 0.000377
532 0.000408
533 0.000417
534 0.000439
535 0.000447
536 0.000447
537 0.000441
538 0.000432
539 0.000414
540 0.000404
541 0.000370
542 0.000346
543 0.000328
544 0.000331
545 0.000351
546 0.000359
547 0.000343
548 0.000307
549 0.000280
550 0.000242
551 0.000221
552 0.000206
553 0.000196
554 0.000168
555 0.000120
556 0.000092
557 0.000053
558 0.000027
559 0.000001
560 -0.000003
561 -0.000023
562 -0.000058
563 -0.000109
564 -0.000155
565 -0.000184
566 -0.000229
567 -0.000258
568 -0.000290
569 -0.000317
570 -0.000334
571 -0.000341
572 -0.000331
573 -0.000322
574 -0.000318
575 -0.000333
576 -0.000339
577 -0.000333
578 -0.000301
579 -0.000265
580 -0.000225
581 -0.000178
582 -0.000147
583 -0.000127
584 -0.000132
585 -0.000131
586 -0.000120
587 -0.000111
588 -0.000092
589 -0.000081
590 -0.000085
591 -0.000068
592 -0.000077
593 -0.000077
594 -0.000084
595 -0.000084
596 -0.000063
597 -0.000060
598 -0.000047
599 -0.000032
600 -0.000044
601 -0.000043
602 -0.000039
603 -0.000065
604 -0.000062
605 -0.000071
606 -0.000085
607 -0.000090
608 -0.000086
609 -0.000093
610 -0.000095
611 -0.000094
612 -0.000083
613 -0.000098
614 -0.000131
615 -0.000139
616 -0.000140
617 -0.000133
618 -0.000145
619 -0.000128
620 -0.000126
621 -0.000121
622 -0.000101
623 -0.000099
624 -0.000090
625 -0.000088
626 -0.000076
627 -0.000084
628 -0.000065
629 -0.000046
630 -0.000025
631 0.000006
632 0.000019
633 0.000034
634 0.000012
635 -0.000006
636 -0.000028
637 -0.000052
638 -0.000066
639 -0.000069
640 -0.000083
641 -0.000109
642 -0.000108
643 -0.000120
644 -0.000127
645 -0.000139
646 -0.000132
647 -0.000112
648 -0.000109
649 -0.000093
650 -0.000088
651 -0.000081
652 -0.000075
653 -0.000063
654 -0.000049
655 -0.000024
656 0.000014
657 0.000045
658 0.000057
659 0.000085
660 0.000113
661 0.000140
662 0.000145
663 0.000162
664 0.000183
665 0.000219
666 0.000250
667 0.000276
668 0.000317
669 0.000361
670 0.000393
671 0.000404
672 0.000428
673 0.000439
674 0.000442
675 0.000432
676 0.000438
677 0.000444
678 0.000447
679 0.000449
680 0.000444
681 0.000446
682 0.000443
683 0.000434
684 0.000409
685 0.000402
686 0.000387
687 0.000387
688 0.000365
689 0.000327
690 0.000294
691 0.000254
692 0.000250
693 0.000253
694 0.000275
695 0.000298
696 0.000302
697 0.000300
698 0.000281
699 0.000263
700 0.000258
701 0.000263
702 0.000267
703 0.000282
704 0.000276
705 0.000274
706 0.000274
707 0.000287
708 0.000301
709 0.000309
710 0.000319
711 0.000324
712 0.000331
713 0.000321
714 0.000311
715 0.000320
716 0.000325
717 0.000326
718 0.000318
719 0.000315
720 0.000318
721 0.000325
722 0.000333
723 0.000348
724 0.000344
725 0.000354
726 0.000352
727 0.000354
728 0.000355
729 0.000362
730 0.000366
731 0.000375
732 0.000386
733 0.000384
734 0.000377
735 0.000347
736 0.000311
737 0.000267
738 0.000240
739 0.000204
740 0.000177
741 0.000174
742 0.000170
743 0.000160
744 0.000146
745 0.000136
746 0.000142
747 0.000138
748 0.000145
749 0.000128
750 0.000113
751 0.000109
752 0.000112
753 0.000116
754 0.000131
755 0.000153
756 0.000155
757 0.000158
758 0.000171
759 0.000180
760 0.000173
761 0.000167
762 0.000175
763 0.000167
764 0.000158
765 0.000164
766 0.000171
767 0.000170
768 0.000166
769 0.000162
770 0.000160
771 0.000164
772 0.000142
773 0.000121
774 0.000111
775 0.000106
776 0.000092
777 0.000079
778 0.000086
779 0.000080
780 0.000075
781 0.000071
782 0.000090
783 0.000091
784 0.000096
785 0.000084
786 0.000082
787 0.000081
788 0.000091
789 0.000102
790 0.000110
791 0.000130
792 0.000135
793 0.000147
794 0.000153
795 0.000157
796 0.000155
797 0.000152
798 0.000153
799 0.000143
800 0.000143
801 0.000134
802 0.000136
803 0.000127
804 0.000139
805 0.000139
806 0.000152
807 0.000149
808 0.000145
809 0.000157
