# i correlation
1 0.004387
2 0.004078
3 0.003791
4 0.003544
5 0.003303
6 0.003111
7 0.002920
8 0.002730
9 0.002602
10 0.002484
11 0.002385
12 0.002317
13 0.002286
14 0.002290
15 0.002312
16 0.002334
17 0.002318
18 0.002271
19 0.002233
20 0.002149
21 0.002096
22 0.002054
23 0.001981
24 0.001901
25 0.001880
26 0.001871
27 0.001874
28 0.001851
29 0.001819
30 0.001769
31 0.001725
32 0.001732
33 0.001733
34 0.001737
35 0.001751
36 0.001759
37 0.001753
38 0.001737
39 0.001704
40 0.001700
41 0.001726
42 0.001751
43 0.001804
44 0.001863
45 0.001891
46 0.001916
47 0.001919
48 0.001934
49 0.001933
50 0.001926
51 0.001890
52 0.001865
53 0.001829
54 0.001791
55 0.001784
56 0.001736
57 0.001685
58 0.001631
59 0.001636
60 0.001624
61 0.001629
62 0.001625
63 0.001621
64 0.001576
65 0.001602
66 0.001580
67 0.001563
68 0.001553
69 0.001555
70 0.001556
71 0.001554
72 0.001556
73 0.001534
74 0.001529
75 0.001534
76 0.001530
77 0.001534
78 0.001564
79 0.001551
80 0.001531
81 0.001515
82 0.001512
83 0.001497
84 0.001462
85 0.001432
86 0.001397
87 0.001375
88 0.001355
89 0.001374
90 0.001403
91 0.001461
92 0.001461
93 0.001425
94 0.001411
95 0.001431
96 0.001436
97 0.001459
98 0.001509
99 0.001540
100 0.001559
101 0.001589
102 0.001591
103 0.001580
104 0.001558
105 0.001543
106 0.001519
107 0.001491
108 0.001481
109 0.001492
110 0.001486
111 0.001497
112 0.001472
113 0.001487
114 0.001524
115 0.001564
116 0.001589
117 0.001602
118 0.001634
119 0.001620
120 0.001631
121 0.001632
122 0.001605
123 0.001595
124 0.001574
125 0.001553
126 0.001529
127 0.001528
128 0.001494
129 0.001415
130 0.001388
131 0.001322
132 0.001244
133 0.001150
134 0.001099
135 0.001051
136 0.001004
137 0.000988
138 0.000987
139 0.000958
140 0.000996
141 0.001018
142 0.001023
143 0.001032
144 0.001033
145 0.001019
146 0.001017
147 0.000991
148 0.000978
149 0.000965
150 0.000972
151 0.000977
152 0.001015
153 0.001015
154 0.001037
155 0.001049
156 0.001072
157 0.001122
158 0.001150
159 0.001174
160 0.001208
161 0.001227
162 0.001211
163 0.001183
164 0.001162
165 0.001148
166 0.001134
167 0.001103
168 0.001080
169 0.001084
170 0.001099
171 0.001095
172 0.001092
173 0.001106
174 0.001103
175 0.001120
176 0.001147
177 0.001161
178 0.001170
179 0.001158
180 0.001146
181 0.001138
182 0.001128
183 0.001136
184 0.001140
185 0.001134
186 0.001161
187 0.001188
188 0.001193
189 0.001208
190 0.001214
191 0.001168
192 0.001147
193 0.001142
194 0.001132
195 0.001114
196 0.001103
197 0.001067
198 0.001030
199 0.001018
200 0.001040
201 0.001075
202 0.001099
203 0.001123
204 0.001125
205 0.001152
206 0.001175
207 0.001130
208 0.001099
209 0.001109
210 0.001087
211 0.001058
212 0.001008
213 0.000970
214 0.000911
215 0.000864
216 0.000832
217 0.000835
218 0.000821
219 0.000812
220 0.000797
221 0.000841
222 0.000879
223 0.000903
224 0.000884
225 0.000873
226 0.000872
227 0.000917
228 0.000935
229 0.000928
230 0.000939
231 0.000962
232 0.000998
233 0.001010
234 0.001008
235 0.001024
236 0.001075
237 0.001108
238 0.001150
239 0.001174
240 0.001150
241 0.001150
242 0.001155
243 0.001168
244 0.001189
245 0.001200
246 0.001192
247 0.001166
248 0.001113
249 0.001114
250 0.001106
251 0.001097
252 0.001095
253 0.001079
254 0.001046
255 0.001074
256 0.001065
257 0.001018
258 0.001022
259 0.001000
260 0.000976
261 0.000964
262 0.000937
263 0.000908
264 0.000878
265 0.000880
266 0.000906
267 0.000934
268 0.001004
269 0.001040
270 0.001063
271 0.001111
272 0.001147
273 0.001153
274 0.001170
275 0.001169
276 0.001160
277 0.001144
278 0.001146
279 0.001142
280 0.001143
281 0.001114
282 0.001091
283 0.001052
284 0.001064
285 0.001075
286 0.001092
287 0.001108
288 0.001099
289 0.001063
290 0.001025
291 0.000994
292 0.000998
293 0.001001
294 0.001003
295 0.001001
296 0.001002
297 0.001022
298 0.001010
299 0.001013
300 0.001029
301 0.001046
302 0.001056
303 0.001053
304 0.001050
305 0.001037
306 0.001023
307 0.000987
308 0.000980
309 0.000950
310 0.000909
311 0.000854
312 0.000828
313 0.000820
314 0.000806
315 0.000796
316 0.000774
317 0.000766
318 0.000765
319 0.000760
320 0.000769
321 0.000798
322 0.000807
323 0.000798
324 0.000782
325 0.000727
326 0.000645
327 0.000612
328 0.000567
329 0.000503
330 0.000465
331 0.000438
332 0.000389
333 0.000356
334 0.000341
335 0.000338
336 0.000374
337 0.000423
338 0.000474
339 0.000499
340 0.000547
341 0.000599
342 0.000621
343 0.000647
344 0.000664
345 0.000672
346 0.000716
347 0.000769
348 0.000780
349 0.000791
350 0.000815
351 0.000804
352 0.000799
353 0.000812
354 0.000805
355 0.000789
356 0.000785
357 0.000802
358 0.000817
359 0.000872
360 0.000911
361 0.000923
362 0.000933
363 0.000946
364 0.000954
365 0.000988
366 0.001005
367 0.001025
368 0.001028
369 0.001019
370 0.000992
371 0.000957
372 0.000917
373 0.000882
374 0.000826
375 0.000778
376 0.000743
377 0.000682
378 0.000630
379 0.000597
380 0.000547
381 0.000501
382 0.000505
383 0.000520
384 0.000543
385 0.000570
386 0.000624
387 0.000684
388 0.000729
389 0.000777
390 0.000820
391 0.000838
392 0.000829
393 0.000823
394 0.000775
395 0.000741
396 0.000729
397 0.000702
398 0.000693
399 0.000685
400 0.000695
401 0.000713
402 0.000733
403 0.000756
404 0.000770
405 0.000785
406 0.000773
407 0.000762
408 0.000746
409 0.000727
410 0.000694
411 0.000675
412 0.000669
413 0.000635
414 0.000604
415 0.000598
416 0.000592
417 0.000579
418 0.000586
419 0.000598
420 0.000586
421 0.000542
422 0.000535
423 0.000509
424 0.000492
425 0.000450
426 0.000417
427 0.000377
428 0.000393
429 0.000379
430 0.000368
431 0.000339
432 0.000323
433 0.000314
434 0.000302
435 0.000295
436 0.000268
437 0.000264
438 0.000267
439 0.000278
440 0.000276
441 0.000279
442 0.000273
443 0.000248
444 0.000243
445 0.000253
446 0.000243
447 0.000205
448 0.000204
449 0.000206
450 0.000192
451 0.000192
452 0.000197
453 0.000171
454 0.000141
455 0.000148
456 0.000160
457 0.000181
458 0.000225
459 0.000244
460 0.000270
461 0.000310
462 0.000350
463 0.000392
464 0.000431
465 0.000483
466 0.000515
467 0.000551
468 0.000570
469 0.000566
470 0.000542
471 0.000510
472 0.000468
473 0.000440
474 0.000429
475 0.000408
476 0.000388
477 0.000393
478 0.000408
479 0.000420
480 0.000437
481 0.000472
482 0.000501
483 0.000556
484 0.000583
485 0.000595
486 0.000567
487 0.000562
488 0.000570
489 0.000575
490 0.000584
491 0.000575
492 0.000542
493 0.000525
494 0.000491
495 0.000454
496 0.000429
497 0.000412
498 0.000407
499 0.000396
500 0.000390
501 0.000382
502 0.000399
503 0.000409
504 0.000395
505 0.000390
506 0.000390
507 0.000414
508 0.000433
509 0.000433
510 0.000453
511 0.000486
512 0.000489
513 0.000500
514 0.000492
515 0.000451
516 0.000408
517 0.000394
518 0.000391
519 0.000392
520 0.000390
521 0.000371
522 0.000341
523 0.000312
524 0.000313
525 0.000304
526 0.000295
527 0.000269
528 0.000267
529 0.000258
530 0.000256
531 0.000250
532 0.000224
533 0.000211
534 0.000199
535 0.000195
536 0.000206
537 0.000210
538 0.000194
539 0.000192
540 0.000199
541 0.000191
542 0.000199
543 0.000223
544 0.000233
545 0.000245
546 0.000264
547 0.000287
548 0.000299
549 0.000315
550 0.000320
551 0.000323
552 0.000331
553 0.000335
554 0.000340
555 0.000361
556 0.000369
557 0.000351
558 0.000360
559 0.000360
560 0.000371
561 0.000370
562 0.000368
563 0.000365
564 0.000355
565 0.000348
566 0.000321
567 0.000291
568 0.000284
569 0.000278
570 0.000255
571 0.000234
572 0.000214
573 0.000190
574 0.000194
575 0.000176
576 0.000186
577 0.000169
578 0.000168
579 0.000172
580 0.000200
581 0.000214
582 0.000216
583 0.000233
584 0.000236
585 0.000240
586 0.000245
587 0.000259
588 0.000285
589 0.000325
590 0.000378
591 0.000415
592 0.000464
593 0.000507
594 0.000546
595 0.000584
596 0.000600
597 0.000602
598 0.000594
599 0.000585
600 0.000542
601 0.000511
602 0.000476
603 0.000457
604 0.000432
605 0.000425
606 0.000431
607 0.000435
608 0.000450
609 0.000462
610 0.000492
611 0.000513
612 0.000501
613 0.000468
614 0.000447
615 0.000426
616 0.000396
617 0.000373
618 0.000352
619 0.000306
620 0.000270
621 0.000259
622 0.000263
623 0.000286
624 0.000304
625 0.000339
626 0.000384
627 0.000413
628 0.000467
629 0.000487
630 0.000495
631 0.000489
632 0.000479
633 0.000469
634 0.000438
635 0.000421
636 0.000399
637 0.000394
638 0.000401
639 0.000427
640 0.000452
641 0.000491
642 0.000519
643 0.000543
644 0.000553
645 0.000588
646 0.000597
647 0.000601
648 0.000573
649 0.000527
650 0.000471
651 0.000430
652 0.000393
653 0.000359
654 0.000334
655 0.000310
656 0.000291
657 0.000264
658 0.000262
659 0.000256
660 0.000267
661 0.000277
662 0.000310
663 0.000341
664 0.000359
665 0.000369
666 0.000379
667 0.000390
668 0.000371
669 0.000371
670 0.000361
671 0.000359
672 0.000356
673 0.000359
674 0.000349
675 0.000341
676 0.000330
677 0.000318
678 0.000300
679 0.000280
680 0.000254
681 0.000236
682 0.000209
683 0.000176
684 0.000153
685 0.000135
686 0.000107
687 0.000086
688 0.000072
689 0.000070
690 0.000070
691 0.000059
692 0.000041
693 0.000022
694 0.000005
695 -0.000020
696 -0.000040
697 -0.000065
698 -0.000093
699 -0.000121
700 -0.000142
701 -0.000154
702 -0.000176
703 -0.000196
704 -0.000206
705 -0.000245
706 -0.000254
707 -0.000271
708 -0.000259
709 -0.000254
710 -0.000227
711 -0.000207
712 -0.000172
713 -0.000138
714 -0.000105
715 -0.000099
716 -0.000100
717 -0.000096
718 -0.000100
719 -0.000092
720 -0.000090
721 -0.000103
722 -0.000138
723 -0.000172
724 -0.000200
725 -0.000216
726 -0.000217
727 -0.000234
728 -0.000238
729 -0.000234
730 -0.000222
731 -0.000227
732 -0.000230
733 -0.000242
734 -0.000242
735 -0.000241
736 -0.000243
737 -0.000233
738 -0.000233
739 -0.000231
740 -0.000237
741 -0.000234
742 -0.000248
743 -0.000259
744 -0.000271
745 -0.000272
746 -0.000260
747 -0.000237
748 -0.000213
749 -0.000183
750 -0.000172
751 -0.000165
752 -0.000144
753 -0.000149
754 -0.000142
755 -0.000143
756 -0.000111
757 -0.000095
758 -0.000074
759 -0.000076
760 -0.000089
761 -0.000102
762 -0.000110
763 -0.000107
764 -0.000088
765 -0.000072
766 -0.000050
767 -0.000049
768 -0.000040
769 -0.000043
770 -0.000060
771 -0.000070
772 -0.000090
773 -0.000094
774 -0.000111
775 -0.000113
776 -0.000122
777 -0.000126
778 -0.000137
779 -0.000148
780 -0.000152
781 -0.000158
782 -0.000160
783 -0.000156
784 -0.000160
785 -0.000167
786 -0.000169
787 -0.000168
788 -0.000185
789 -0.000199
790 -0.000212
791 -0.000226
792 -0.000228
793 -0.000227
794 -0.000221
795 -0.000225
796 -0.000226
797 -0.000231
798 -0.000232
799 -0.000228
800 -0.000219
801 -0.000211
802 -0.000195
803 -0.000174
804 -0.000144
805 -0.000128
806 -0.000121
807 -0.000114
808 -0.000105
809 -0.000111
