# i correlation
1 0.002900
2 0.002595
3 0.002310
4 0.002066
5 0.001851
6 0.001687
7 0.001555
8 0.001428
9 0.001320
10 0.001200
11 0.001104
12 0.001030
13 0.000974
14 0.000929
15 0.000877
16 0.000834
17 0.000811
18 0.000798
19 0.000814
20 0.000830
21 0.000818
22 0.000777
23 0.000758
24 0.000744
25 0.000746
26 0.000740
27 0.000745
28 0.000747
29 0.000771
30 0.000780
31 0.000776
32 0.000786
33 0.000798
34 0.000804
35 0.000777
36 0.000773
37 0.000770
38 0.000751
39 0.000734
40 0.000701
41 0.000683
42 0.000640
43 0.000591
44 0.000517
45 0.000469
46 0.000415
47 0.000365
48 0.000329
49 0.000305
50 0.000320
51 0.000318
52 0.000290
53 0.000255
54 0.000259
55 0.000281
56 0.000313
57 0.000377
58 0.000429
59 0.000430
60 0.000440
61 0.000438
62 0.000466
63 0.000498
64 0.000542
65 0.000572
66 0.000586
67 0.000591
68 0.000590
69 0.000601
70 0.000588
71 0.000578
72 0.000538
73 0.000488
74 0.000455
75 0.000413
76 0.000385
77 0.000355
78 0.000369
79 0.000431
80 0.000455
81 0.000477
82 0.000464
83 0.000485
84 0.000497
85 0.000532
86 0.000553
87 0.000536
88 0.000502
89 0.000453
90 0.000382
91 0.000328
92 0.000253
93 0.000206
94 0.000177
95 0.000156
96 0.000142
97 0.000134
98 0.000145
99 0.000153
100 0.000134
101 0.000141
102 0.000127
103 0.000137
104 0.000141
105 0.000177
106 0.000203
107 0.000200
108 0.000230
109 0.000250
110 0.000302
111 0.000337
112 0.000383
113 0.000428
114 0.000435
115 0.000407
116 0.000372
117 0.000315
118 0.000269
119 0.000253
120 0.000272
121 0.000290
122 0.000357
123 0.000387
124 0.000446
125 0.000511
126 0.000571
127 0.000599
128 0.000606
129 0.000657
130 0.000689
131 0.000735
132 0.000753
133 0.000762
134 0.000740
135 0.000722
136 0.000725
137 0.000730
138 0.000707
139 0.000694
140 0.000674
141 0.000625
142 0.000587
143 0.000546
144 0.000517
145 0.000495
146 0.000473
147 0.000435
148 0.000426
149 0.000426
150 0.000439
151 0.000431
152 0.000425
153 0.000424
154 0.000412
155 0.000367
156 0.000326
157 0.000277
158 0.000240
159 0.000184
160 0.000161
161 0.000150
162 0.000136
163 0.000131
164 0.000139
165 0.000149
166 0.000160
167 0.000199
168 0.000245
169 0.000308
170 0.000339
171 0.000319
172 0.000310
173 0.000296
174 0.000241
175 0.000154
176 0.000081
177 0.000016
178 -0.000032
179 -0.000084
180 -0.000099
181 -0.000115
182 -0.000116
183 -0.000134
184 -0.000144
185 -0.000160
186 -0.000181
187 -0.000166
188 -0.000127
189 -0.000080
190 -0.000045
191 -0.000011
192 0.000040
193 0.000101
194 0.000140
195 0.000202
196 0.000256
197 0.000283
198 0.000304
199 0.000337
200 0.000373
201 0.000402
202 0.000416
203 0.000422
204 0.000386
205 0.000344
206 0.000285
207 0.000214
208 0.000156
209 0.000125
210 0.000127
211 0.000124
212 0.000128
213 0.000114
214 0.000100
215 0.000089
216 0.000076
217 0.000055
218 0.000077
219 0.000090
220 0.000073
221 0.000059
222 0.000044
223 0.000071
224 0.000113
225 0.000154
226 0.000148
227 0.000131
228 0.000117
229 0.000093
230 0.000103
231 0.000086
232 0.000078
233 0.000078
234 0.000074
235 0.000087
236 0.000104
237 0.000125
238 0.000148
239 0.000169
240 0.000173
241 0.000159
242 0.000152
243 0.000134
244 0.000108
245 0.000097
246 0.000073
247 0.000065
248 0.000054
249 0.000040
250 0.000043
251 0.000074
252 0.000126
253 0.000205
254 0.000272
255 0.000352
256 0.000428
257 0.000473
258 0.000505
259 0.000542
260 0.000558
261 0.000589
262 0.000616
263 0.000625
264 0.000633
265 0.000641
266 0.000637
267 0.000643
268 0.000643
269 0.000622
270 0.000619
271 0.000611
272 0.000598
273 0.000601
274 0.000602
275 0.000616
276 0.000626
277 0.000622
278 0.000597
279 0.000590
280 0.000578
281 0.000591
282 0.000606
283 0.000626
284 0.000621
285 0.000598
286 0.000598
287 0.000565
288 0.000511
289 0.000454
290 0.000421
291 0.000377
292 0.000346
293 0.000325
294 0.000318
295 0.000314
296 0.000277
297 0.000231
298 0.000207
299 0.000179
300 0.000171
301 0.000165
302 0.000157
303 0.000142
304 0.000163
305 0.000167
306 0.000187
307 0.000169
308 0.000122
309 0.000126
310 0.000127
311 0.000123
312 0.000117
313 0.000141
314 0.000154
315 0.000167
316 0.000156
317 0.000131
318 0.000115
319 0.000107
320 0.000083
321 0.000074
322 0.000083
323 0.000081
324 0.000093
325 0.000105
326 0.000117
327 0.000124
328 0.000122
329 0.000126
330 0.000122
331 0.000119
332 0.000117
333 0.000115
334 0.000123
335 0.000116
336 0.000124
337 0.000110
338 0.000135
339 0.000156
340 0.000165
341 0.000197
342 0.000226
343 0.000265
344 0.000270
345 0.000295
346 0.000305
347 0.000325
348 0.000356
349 0.000384
350 0.000428
351 0.000457
352 0.000488
353 0.000489
354 0.000470
355 0.000447
356 0.000432
357 0.000394
358 0.000347
359 0.000292
360 0.000243
361 0.000203
362 0.000185
363 0.000173
364 0.000167
365 0.000154
366 0.000151
367 0.000161
368 0.000179
369 0.000213
370 0.000234
371 0.000225
372 0.000228
373 0.000215
374 0.000189
375 0.000182
376 0.000152
377 0.000118
378 0.000076
379 0.000039
380 0.000024
381 0.000027
382 0.000047
383 0.000067
384 0.000089
385 0.000116
386 0.000144
387 0.000157
388 0.000200
389 0.000238
390 0.000275
391 0.000309
392 0.000347
393 0.000378
394 0.000395
395 0.000401
396 0.000402
397 0.000407
398 0.000431
399 0.000447
400 0.000451
401 0.000437
402 0.000389
403 0.000342
404 0.000294
405 0.000261
406 0.000252
407 0.000270
408 0.000285
409 0.000275
410 0.000280
411 0.000287
412 0.000287
413 0.000270
414 0.000257
415 0.000229
416 0.000187
417 0.000166
418 0.000155
419 0.000150
420 0.000169
421 0.000161
422 0.000133
423 0.000096
424 0.000083
425 0.000086
426 0.000116
427 0.000150
428 0.000175
429 0.000197
430 0.000195
431 0.000204
432 0.000181
433 0.000166
434 0.000127
435 0.000099
436 0.000060
437 0.000025
438 -0.000021
439 -0.000051
440 -0.000073
441 -0.000096
442 -0.000137
443 -0.000162
444 -0.000194
445 -0.000230
446 -0.000257
447 -0.000306
448 -0.000344
449 -0.000348
450 -0.000364
451 -0.000360
452 -0.000359
453 -0.000348
454 -0.000325
455 -0.000273
456 -0.000192
457 -0.000137
458 -0.000076
459 -0.000058
460 -0.000041
461 -0.000026
462 -0.000015
463 -0.000003
464 -0.000004
465 0.000010
466 0.000003
467 0.000008
468 0.000008
469 -0.000014
470 -0.000028
471 -0.000017
472 -0.000017
473 -0.000036
474 -0.000036
475 -0.000029
476 -0.000030
477 -0.000030
478 0.000006
479 0.000038
480 0.000070
481 0.000100
482 0.000133
483 0.000179
484 0.000198
485 0.000204
486 0.000218
487 0.000226
488 0.000212
489 0.000203
490 0.000169
491 0.000151
492 0.000132
493 0.000104
494 0.000058
495 0.000047
496 0.000046
497 0.000047
498 0.000050
499 0.000065
500 0.000064
501 0.000050
502 0.000029
503 -0.000000
504 -0.000022
505 -0.000035
506 -0.000019
507 0.000003
508 0.000014
509 0.000014
510 0.000010
511 -0.000003
512 -0.000015
513 -0.000029
514 -0.000031
515 -0.000036
516 -0.000027
517 -0.000028
518 -0.000015
519 0.000011
520 0.000049
521 0.000087
522 0.000120
523 0.000152
524 0.000187
525 0.000241
526 0.000273
527 0.000263
528 0.000231
529 0.000195
530 0.000160
531 0.000123
532 0.000127
533 0.000093
534 0.000054
535 -0.000009
536 -0.000047
537 -0.000073
538 -0.000081
539 -0.000061
540 -0.000018
541 0.000035
542 0.000074
543 0.000104
544 0.000117
545 0.000119
546 0.000127
547 0.000124
548 0.000104
549 0.000100
550 0.000066
551 0.000055
552 0.000059
553 0.000080
554 0.000096
555 0.000101
556 0.000087
557 0.000090
558 0.000094
559 0.000085
560 0.000071
561 0.000067
562 0.000071
563 0.000064
564 0.000041
565 0.000024
566 0.000033
567 0.000030
568 0.000023
569 0.000015
570 0.000009
571 -0.000002
572 -0.000017
573 -0.000044
574 -0.000070
575 -0.000096
576 -0.000104
577 -0.000117
578 -0.000124
579 -0.000144
580 -0.000157
581 -0.000164
582 -0.000171
583 -0.000161
584 -0.000165
585 -0.000186
586 -0.000211
587 -0.000205
588 -0.000202
589 -0.000199
590 -0.000187
591 -0.000155
592 -0.000134
593 -0.000106
594 -0.000094
595 -0.000083
596 -0.000087
597 -0.000083
598 -0.000109
599 -0.000144
600 -0.000179
601 -0.000209
602 -0.000253
603 -0.000284
604 -0.000296
605 -0.000301
606 -0.000313
607 -0.000314
608 -0.000304
609 -0.000286
610 -0.000261
611 -0.000217
612 -0.000174
613 -0.000133
614 -0.000132
615 -0.000150
616 -0.000169
617 -0.000178
618 -0.000195
619 -0.000211
620 -0.000206
621 -0.000207
622 -0.000197
623 -0.000191
624 -0.000166
625 -0.000135
626 -0.000116
627 -0.000094
628 -0.000065
629 -0.000032
630 -0.000016
631 -0.000004
632 0.000012
633 0.000013
634 -0.000006
635 -0.000032
636 -0.000048
637 -0.000060
638 -0.000069
639 -0.000096
640 -0.000109
641 -0.000131
642 -0.000169
643 -0.000179
644 -0.000202
645 -0.000191
646 -0.000207
647 -0.000208
648 -0.000223
649 -0.000226
650 -0.000226
651 -0.000221
652 -0.000194
653 -0.000175
654 -0.000124
655 -0.000081
656 -0.000033
657 -0.000000
658 0.000034
659 0.000055
660 0.000053
661 0.000062
662 0.000075
663 0.000094
664 0.000097
665 0.000095
666 0.000083
667 0.000079
668 0.000075
669 0.000083
670 0.000092
671 0.000101
672 0.000084
673 0.000065
674 0.000063
675 0.000049
676 0.000051
677 0.000040
678 0.000038
679 0.000034
680 0.000034
681 0.000031
682 0.000034
683 0.000014
684 -0.000001
685 -0.000040
686 -0.000059
687 -0.000098
688 -0.000119
689 -0.000126
690 -0.000113
691 -0.000094
692 -0.000083
693 -0.000077
694 -0.000061
695 -0.000047
696 -0.000042
697 -0.000032
698 -0.000032
699 -0.000041
700 -0.000054
701 -0.000050
702 -0.000048
703 -0.000035
704 -0.000042
705 -0.000059
706 -0.000082
707 -0.000087
708 -0.000107
709 -0.000122
710 -0.000112
711 -0.000107
712 -0.000107
713 -0.000098
714 -0.000086
715 -0.000085
716 -0.000072
717 -0.000079
718 -0.000097
719 -0.000107
720 -0.000117
721 -0.000112
722 -0.000115
723 -0.000109
724 -0.000113
725 -0.000126
726 -0.000140
727 -0.000146
728 -0.000149
729 -0.000170
730 -0.000178
731 -0.000191
732 -0.000198
733 -0.000194
734 -0.000191
735 -0.000177
736 -0.000159
737 -0.000146
738 -0.000129
739 -0.000097
740 -0.000077
741 -0.000066
742 -0.000050
743 -0.000035
744 0.000002
745 0.000020
746 0.000047
747 0.000057
748 0.000082
749 0.000096
750 0.000106
751 0.000104
752 0.000094
753 0.000084
754 0.000067
755 0.000063
756 0.000050
757 0.000041
758 0.000027
759 0.000026
760 0.000023
761 0.000034
762 0.000055
763 0.000057
764 0.000064
765 0.000082
766 0.000091
767 0.000095
768 0.000079
769 0.000066
770 0.000047
771 0.000030
772 0.000022
773 0.000017
774 0.000002
775 -0.000004
776 -0.000008
777 -0.000005
778 0.000006
779 0.000025
780 0.000052
781 0.000088
782 0.000119
783 0.000143
784 0.000147
785 0.000162
786 0.000169
787 0.000171
788 0.000159
789 0.000152
790 0.000149
791 0.000140
792 0.000131
793 0.000130
794 0.000142
795 0.000148
796 0.000161
797 0.000173
798 0.000177
799 0.000179
800 0.000186
801 0.000194
802 0.000202
803 0.000196
804 0.000178
805 0.000158
806 0.000142
807 0.000122
808 0.000110
809 0.000100
