# i correlation
1 0.004440
2 0.004119
3 0.003840
4 0.003617
5 0.003411
6 0.003243
7 0.003065
8 0.002908
9 0.002791
10 0.002704
11 0.002618
12 0.002559
13 0.002539
14 0.002480
15 0.002436
16 0.002399
17 0.002362
18 0.002329
19 0.002336
20 0.002338
21 0.002307
22 0.002249
23 0.002191
24 0.002148
25 0.002122
26 0.002102
27 0.002086
28 0.002080
29 0.002096
30 0.002126
31 0.002145
32 0.002168
33 0.002174
34 0.002193
35 0.002256
36 0.002289
37 0.002318
38 0.002348
39 0.002406
40 0.002465
41 0.002496
42 0.002423
43 0.002396
44 0.002356
45 0.002316
46 0.002263
47 0.002225
48 0.002191
49 0.002155
50 0.002147
51 0.002186
52 0.002207
53 0.002206
54 0.002163
55 0.002138
56 0.002123
57 0.002115
58 0.002076
59 0.002058
60 0.002026
61 0.001996
62 0.001925
63 0.001871
64 0.001807
65 0.001779
66 0.001757
67 0.001708
68 0.001686
69 0.001646
70 0.001635
71 0.001645
72 0.001673
73 0.001640
74 0.001622
75 0.001619
76 0.001623
77 0.001605
78 0.001586
79 0.001566
80 0.001607
81 0.001663
82 0.001677
83 0.001646
84 0.001653
85 0.001660
86 0.001660
87 0.001684
88 0.001720
89 0.001750
90 0.001781
91 0.001833
92 0.001917
93 0.001983
94 0.002038
95 0.002066
96 0.002104
97 0.002134
98 0.002122
99 0.002108
100 0.002097
101 0.002091
102 0.002079
103 0.002063
104 0.002029
105 0.001984
106 0.001949
107 0.001920
108 0.001868
109 0.001840
110 0.001806
111 0.001782
112 0.001801
113 0.001779
114 0.001740
115 0.001732
116 0.001729
117 0.001702
118 0.001669
119 0.001609
120 0.001540
121 0.001507
122 0.001502
123 0.001502
124 0.001501
125 0.001506
126 0.001489
127 0.001501
128 0.001538
129 0.001592
130 0.001601
131 0.001638
132 0.001671
133 0.001715
134 0.001761
135 0.001819
136 0.001869
137 0.001899
138 0.001935
139 0.001918
140 0.001857
141 0.001799
142 0.001769
143 0.001727
144 0.001709
145 0.001685
146 0.001663
147 0.001657
148 0.001641
149 0.001591
150 0.001564
151 0.001559
152 0.001547
153 0.001567
154 0.001548
155 0.001545
156 0.001528
157 0.001530
158 0.001560
159 0.001549
160 0.001523
161 0.001450
162 0.001407
163 0.001378
164 0.001351
165 0.001335
166 0.001291
167 0.001242
168 0.001240
169 0.001229
170 0.001226
171 0.001219
172 0.001189
173 0.001178
174 0.001175
175 0.001189
176 0.001188
177 0.001199
178 0.001199
179 0.001212
180 0.001199
181 0.001164
182 0.001105
183 0.001052
184 0.001003
185 0.000964
186 0.000949
187 0.000961
188 0.000965
189 0.000962
190 0.000968
191 0.000981
192 0.000980
193 0.000982
194 0.000988
195 0.000978
196 0.001006
197 0.001045
198 0.001064
199 0.001051
200 0.001065
201 0.001058
202 0.001023
203 0.001043
204 0.001059
205 0.001070
206 0.001070
207 0.001072
208 0.001061
209 0.001046
210 0.001068
211 0.001088
212 0.001098
213 0.001091
214 0.001082
215 0.001060
216 0.001082
217 0.001076
218 0.001049
219 0.001014
220 0.000995
221 0.000967
222 0.000935
223 0.000941
224 0.000899
225 0.000873
226 0.000857
227 0.000892
228 0.000944
229 0.000993
230 0.001030
231 0.001070
232 0.001099
233 0.001126
234 0.001152
235 0.001183
236 0.001181
237 0.001174
238 0.001129
239 0.001099
240 0.001086
241 0.001096
242 0.001089
243 0.001079
244 0.001043
245 0.001000
246 0.000961
247 0.000948
248 0.000931
249 0.000925
250 0.000920
251 0.000917
252 0.000933
253 0.000932
254 0.000916
255 0.000892
256 0.000873
257 0.000862
258 0.000864
259 0.000874
260 0.000923
261 0.000964
262 0.001013
263 0.001061
264 0.001086
265 0.001080
266 0.001055
267 0.001049
268 0.001052
269 0.001063
270 0.001066
271 0.001071
272 0.001082
273 0.001105
274 0.001066
275 0.001050
276 0.001019
277 0.000969
278 0.000891
279 0.000793
280 0.000733
281 0.000694
282 0.000686
283 0.000655
284 0.000637
285 0.000615
286 0.000621
287 0.000598
288 0.000592
289 0.000575
290 0.000576
291 0.000562
292 0.000567
293 0.000583
294 0.000596
295 0.000593
296 0.000593
297 0.000615
298 0.000625
299 0.000616
300 0.000598
301 0.000581
302 0.000576
303 0.000602
304 0.000621
305 0.000603
306 0.000578
307 0.000567
308 0.000571
309 0.000601
310 0.000632
311 0.000655
312 0.000662
313 0.000676
314 0.000689
315 0.000720
316 0.000774
317 0.000816
318 0.000826
319 0.000816
320 0.000781
321 0.000781
322 0.000806
323 0.000815
324 0.000835
325 0.000845
326 0.000841
327 0.000840
328 0.000864
329 0.000879
330 0.000890
331 0.000919
332 0.000954
333 0.000965
334 0.000964
335 0.000976
336 0.000970
337 0.000946
338 0.000920
339 0.000883
340 0.000837
341 0.000833
342 0.000850
343 0.000853
344 0.000856
345 0.000869
346 0.000836
347 0.000816
348 0.000794
349 0.000778
350 0.000759
351 0.000778
352 0.000790
353 0.000783
354 0.000788
355 0.000782
356 0.000807
357 0.000842
358 0.000885
359 0.000899
360 0.000922
361 0.000946
362 0.000978
363 0.001008
364 0.001028
365 0.001054
366 0.001086
367 0.001114
368 0.001114
369 0.001125
370 0.001135
371 0.001124
372 0.001121
373 0.001129
374 0.001138
375 0.001139
376 0.001134
377 0.001108
378 0.001095
379 0.001091
380 0.001064
381 0.001036
382 0.001001
383 0.000979
384 0.000934
385 0.000890
386 0.000875
387 0.000876
388 0.000893
389 0.000913
390 0.000903
391 0.000904
392 0.000900
393 0.000904
394 0.000913
395 0.000907
396 0.000874
397 0.000835
398 0.000800
399 0.000789
400 0.000769
401 0.000748
402 0.000757
403 0.000767
404 0.000800
405 0.000825
406 0.000846
407 0.000855
408 0.000903
409 0.000934
410 0.000961
411 0.000985
412 0.001008
413 0.001050
414 0.001072
415 0.001077
416 0.001059
417 0.001042
418 0.001045
419 0.001039
420 0.001032
421 0.001029
422 0.001011
423 0.001005
424 0.001022
425 0.001031
426 0.001049
427 0.001054
428 0.001060
429 0.001055
430 0.001020
431 0.001026
432 0.001050
433 0.001056
434 0.001058
435 0.001056
436 0.001017
437 0.000952
438 0.000900
439 0.000880
440 0.000873
441 0.000874
442 0.000846
443 0.000821
444 0.000805
445 0.000814
446 0.000828
447 0.000846
448 0.000852
449 0.000857
450 0.000869
451 0.000875
452 0.000872
453 0.000850
454 0.000860
455 0.000858
456 0.000858
457 0.000869
458 0.000868
459 0.000868
460 0.000893
461 0.000929
462 0.000952
463 0.000993
464 0.001036
465 0.001054
466 0.001065
467 0.001083
468 0.001078
469 0.001088
470 0.001108
471 0.001112
472 0.001137
473 0.001155
474 0.001179
475 0.001189
476 0.001233
477 0.001225
478 0.001215
479 0.001210
480 0.001229
481 0.001222
482 0.001226
483 0.001208
484 0.001203
485 0.001183
486 0.001183
487 0.001171
488 0.001137
489 0.001128
490 0.001138
491 0.001130
492 0.001109
493 0.001094
494 0.001061
495 0.001046
496 0.001054
497 0.001054
498 0.001069
499 0.001078
500 0.001103
501 0.001114
502 0.001151
503 0.001166
504 0.001191
505 0.001185
506 0.001167
507 0.001152
508 0.001124
509 0.001103
510 0.001083
511 0.001053
512 0.001033
513 0.001029
514 0.001016
515 0.001032
516 0.001033
517 0.001041
518 0.001020
519 0.001000
520 0.000994
521 0.001006
522 0.001032
523 0.001060
524 0.001064
525 0.001087
526 0.001078
527 0.001086
528 0.001070
529 0.001076
530 0.001058
531 0.001052
532 0.001047
533 0.001049
534 0.001033
535 0.001028
536 0.001014
537 0.001016
538 0.001022
539 0.001028
540 0.001038
541 0.001045
542 0.001043
543 0.001032
544 0.001018
545 0.001001
546 0.000978
547 0.000953
548 0.000918
549 0.000875
550 0.000845
551 0.000817
552 0.000791
553 0.000772
554 0.000759
555 0.000740
556 0.000731
557 0.000734
558 0.000759
559 0.000801
560 0.000836
561 0.000868
562 0.000899
563 0.000930
564 0.000953
565 0.000967
566 0.000975
567 0.000971
568 0.000984
569 0.000954
570 0.000950
571 0.000935
572 0.000945
573 0.000972
574 0.001009
575 0.001035
576 0.001062
577 0.001044
578 0.001044
579 0.001048
580 0.001052
581 0.001046
582 0.001023
583 0.001015
584 0.001011
585 0.001018
586 0.001027
587 0.001006
588 0.000985
589 0.000975
590 0.000958
591 0.000929
592 0.000921
593 0.000904
594 0.000914
595 0.000935
596 0.000933
597 0.000943
598 0.000914
599 0.000920
600 0.000919
601 0.000905
602 0.000871
603 0.000847
604 0.000820
605 0.000806
606 0.000793
607 0.000782
608 0.000737
609 0.000714
610 0.000697
611 0.000692
612 0.000678
613 0.000668
614 0.000670
615 0.000683
616 0.000712
617 0.000703
618 0.000691
619 0.000686
620 0.000683
621 0.000665
622 0.000659
623 0.000631
624 0.000622
625 0.000642
626 0.000652
627 0.000658
628 0.000634
629 0.000642
630 0.000636
631 0.000630
632 0.000628
633 0.000619
634 0.000611
635 0.000617
636 0.000636
637 0.000646
638 0.000659
639 0.000674
640 0.000701
641 0.000715
642 0.000718
643 0.000704
644 0.000684
645 0.000641
646 0.000620
647 0.000591
648 0.000564
649 0.000530
650 0.000486
651 0.000460
652 0.000447
653 0.000416
654 0.000392
655 0.000377
656 0.000370
657 0.000365
658 0.000348
659 0.000322
660 0.000316
661 0.000319
662 0.000327
663 0.000336
664 0.000328
665 0.000315
666 0.000310
667 0.000325
668 0.000339
669 0.000341
670 0.000337
671 0.000313
672 0.000288
673 0.000279
674 0.000266
675 0.000276
676 0.000306
677 0.000378
678 0.000414
679 0.000427
680 0.000458
681 0.000487
682 0.000510
683 0.000533
684 0.000539
685 0.000514
686 0.000491
687 0.000482
688 0.000471
689 0.000458
690 0.000466
691 0.000464
692 0.000467
693 0.000468
694 0.000451
695 0.000426
696 0.000410
697 0.000414
698 0.000411
699 0.000390
700 0.000354
701 0.000325
702 0.000302
703 0.000301
704 0.000301
705 0.000304
706 0.000300
707 0.000317
708 0.000331
709 0.000341
710 0.000348
711 0.000345
712 0.000353
713 0.000333
714 0.000307
715 0.000268
716 0.000242
717 0.000225
718 0.000221
719 0.000226
720 0.000228
721 0.000249
722 0.000265
723 0.000285
724 0.000280
725 0.000284
726 0.000270
727 0.000270
728 0.000291
729 0.000296
730 0.000286
731 0.000280
732 0.000267
733 0.000274
734 0.000285
735 0.000286
736 0.000313
737 0.000326
738 0.000343
739 0.000343
740 0.000336
741 0.000313
742 0.000292
743 0.000285
744 0.000271
745 0.000264
746 0.000228
747 0.000195
748 0.000176
749 0.000190
750 0.000206
751 0.000202
752 0.000194
753 0.000186
754 0.000176
755 0.000168
756 0.000147
757 0.000114
758 0.000092
759 0.000066
760 0.000047
761 0.000014
762 0.000008
763 -0.000009
764 -0.000017
765 -0.000035
766 -0.000057
767 -0.000079
768 -0.000080
769 -0.000073
770 -0.000067
771 -0.000061
772 -0.000051
773 -0.000045
774 -0.000039
775 -0.000033
776 -0.000027
777 -0.000016
778 -0.000014
779 -0.000004
780 0.000015
781 0.000015
782 0.000005
783 -0.000007
784 -0.000004
785 -0.000004
786 -0.000014
787 -0.000030
788 -0.000043
789 -0.000056
790 -0.000056
791 -0.000068
792 -0.000078
793 -0.000074
794 -0.000076
795 -0.000083
796 -0.000095
797 -0.000110
798 -0.000141
799 -0.000158
800 -0.000173
801 -0.000189
802 -0.000198
803 -0.000216
804 -0.000239
805 -0.000244
806 -0.000242
807 -0.000238
808 -0.000235
809 -0.000235
