# i correlation
1 0.002847
2 0.002545
3 0.002301
4 0.002058
5 0.001853
6 0.001689
7 0.001543
8 0.001441
9 0.001336
10 0.001221
11 0.001119
12 0.001065
13 0.001012
14 0.000920
15 0.000838
16 0.000766
17 0.000722
18 0.000671
19 0.000645
20 0.000666
21 0.000683
22 0.000722
23 0.000749
24 0.000755
25 0.000756
26 0.000787
27 0.000845
28 0.000884
29 0.000886
30 0.000863
31 0.000812
32 0.000776
33 0.000723
34 0.000696
35 0.000692
36 0.000706
37 0.000720
38 0.000710
39 0.000718
40 0.000729
41 0.000738
42 0.000735
43 0.000748
44 0.000726
45 0.000693
46 0.000629
47 0.000550
48 0.000477
49 0.000446
50 0.000401
51 0.000363
52 0.000409
53 0.000449
54 0.000444
55 0.000411
56 0.000393
57 0.000428
58 0.000446
59 0.000418
60 0.000377
61 0.000335
62 0.000287
63 0.000259
64 0.000240
65 0.000259
66 0.000250
67 0.000248
68 0.000222
69 0.000218
70 0.000212
71 0.000172
72 0.000154
73 0.000120
74 0.000119
75 0.000145
76 0.000160
77 0.000196
78 0.000225
79 0.000250
80 0.000307
81 0.000387
82 0.000445
83 0.000451
84 0.000460
85 0.000449
86 0.000405
87 0.000385
88 0.000349
89 0.000314
90 0.000290
91 0.000266
92 0.000257
93 0.000232
94 0.000223
95 0.000257
96 0.000287
97 0.000322
98 0.000366
99 0.000369
100 0.000391
101 0.000386
102 0.000427
103 0.000446
104 0.000493
105 0.000521
106 0.000545
107 0.000560
108 0.000555
109 0.000526
110 0.000505
111 0.000477
112 0.000456
113 0.000431
114 0.000425
115 0.000394
116 0.000347
117 0.000309
118 0.000270
119 0.000278
120 0.000276
121 0.000265
122 0.000253
123 0.000221
124 0.000218
125 0.000255
126 0.000301
127 0.000370
128 0.000376
129 0.000341
130 0.000312
131 0.000267
132 0.000211
133 0.000189
134 0.000209
135 0.000199
136 0.000221
137 0.000219
138 0.000191
139 0.000192
140 0.000193
141 0.000210
142 0.000238
143 0.000230
144 0.000229
145 0.000218
146 0.000213
147 0.000225
148 0.000258
149 0.000289
150 0.000299
151 0.000291
152 0.000289
153 0.000285
154 0.000302
155 0.000340
156 0.000357
157 0.000376
158 0.000385
159 0.000360
160 0.000335
161 0.000309
162 0.000282
163 0.000279
164 0.000303
165 0.000342
166 0.000359
167 0.000379
168 0.000390
169 0.000377
170 0.000354
171 0.000312
172 0.000310
173 0.000287
174 0.000257
175 0.000234
176 0.000212
177 0.000213
178 0.000179
179 0.000194
180 0.000216
181 0.000200
182 0.000180
183 0.000164
184 0.000176
185 0.000213
186 0.000261
187 0.000285
188 0.000294
189 0.000337
190 0.000353
191 0.000383
192 0.000430
193 0.000461
194 0.000499
195 0.000509
196 0.000515
197 0.000517
198 0.000502
199 0.000492
200 0.000483
201 0.000494
202 0.000466
203 0.000452
204 0.000456
205 0.000451
206 0.000438
207 0.000443
208 0.000434
209 0.000456
210 0.000432
211 0.000448
212 0.000456
213 0.000471
214 0.000481
215 0.000428
216 0.000399
217 0.000389
218 0.000364
219 0.000358
220 0.000349
221 0.000336
222 0.000315
223 0.000304
224 0.000288
225 0.000263
226 0.000243
227 0.000244
228 0.000219
229 0.000220
230 0.000212
231 0.000214
232 0.000214
233 0.000245
234 0.000297
235 0.000330
236 0.000369
237 0.000410
238 0.000417
239 0.000427
240 0.000432
241 0.000429
242 0.000410
243 0.000382
244 0.000357
245 0.000330
246 0.000341
247 0.000344
248 0.000330
249 0.000329
250 0.000331
251 0.000326
252 0.000306
253 0.000280
254 0.000288
255 0.000270
256 0.000252
257 0.000202
258 0.000213
259 0.000209
260 0.000181
261 0.000215
262 0.000241
263 0.000256
264 0.000267
265 0.000279
266 0.000310
267 0.000333
268 0.000339
269 0.000349
270 0.000367
271 0.000374
272 0.000360
273 0.000336
274 0.000354
275 0.000362
276 0.000360
277 0.000341
278 0.000331
279 0.000332
280 0.000280
281 0.000247
282 0.000190
283 0.000125
284 0.000082
285 0.000025
286 -0.000021
287 -0.000043
288 -0.000068
289 -0.000079
290 -0.000091
291 -0.000070
292 -0.000023
293 0.000007
294 0.000091
295 0.000164
296 0.000192
297 0.000218
298 0.000269
299 0.000317
300 0.000333
301 0.000373
302 0.000388
303 0.000385
304 0.000386
305 0.000371
306 0.000378
307 0.000387
308 0.000378
309 0.000334
310 0.000258
311 0.000222
312 0.000180
313 0.000143
314 0.000140
315 0.000142
316 0.000152
317 0.000141
318 0.000131
319 0.000162
320 0.000185
321 0.000191
322 0.000188
323 0.000200
324 0.000220
325 0.000185
326 0.000174
327 0.000190
328 0.000226
329 0.000242
330 0.000235
331 0.000239
332 0.000251
333 0.000256
334 0.000252
335 0.000256
336 0.000259
337 0.000258
338 0.000226
339 0.000205
340 0.000203
341 0.000228
342 0.000235
343 0.000250
344 0.000248
345 0.000239
346 0.000241
347 0.000251
348 0.000292
349 0.000323
350 0.000388
351 0.000445
352 0.000454
353 0.000442
354 0.000445
355 0.000417
356 0.000415
357 0.000428
358 0.000426
359 0.000447
360 0.000471
361 0.000515
362 0.000539
363 0.000552
364 0.000547
365 0.000539
366 0.000515
367 0.000466
368 0.000413
369 0.000383
370 0.000341
371 0.000315
372 0.000295
373 0.000314
374 0.000305
375 0.000296
376 0.000304
377 0.000333
378 0.000360
379 0.000369
380 0.000381
381 0.000374
382 0.000351
383 0.000334
384 0.000313
385 0.000291
386 0.000285
387 0.000256
388 0.000216
389 0.000228
390 0.000231
391 0.000220
392 0.000217
393 0.000232
394 0.000252
395 0.000278
396 0.000321
397 0.000330
398 0.000343
399 0.000362
400 0.000368
401 0.000357
402 0.000369
403 0.000386
404 0.000415
405 0.000415
406 0.000427
407 0.000423
408 0.000411
409 0.000392
410 0.000335
411 0.000293
412 0.000289
413 0.000263
414 0.000274
415 0.000288
416 0.000290
417 0.000296
418 0.000284
419 0.000279
420 0.000289
421 0.000279
422 0.000259
423 0.000231
424 0.000196
425 0.000181
426 0.000202
427 0.000220
428 0.000235
429 0.000228
430 0.000219
431 0.000216
432 0.000211
433 0.000198
434 0.000196
435 0.000217
436 0.000238
437 0.000208
438 0.000204
439 0.000185
440 0.000156
441 0.000163
442 0.000181
443 0.000214
444 0.000237
445 0.000242
446 0.000235
447 0.000235
448 0.000242
449 0.000223
450 0.000211
451 0.000191
452 0.000161
453 0.000141
454 0.000150
455 0.000177
456 0.000225
457 0.000267
458 0.000281
459 0.000295
460 0.000306
461 0.000340
462 0.000333
463 0.000340
464 0.000333
465 0.000334
466 0.000300
467 0.000298
468 0.000288
469 0.000288
470 0.000295
471 0.000337
472 0.000355
473 0.000369
474 0.000354
475 0.000333
476 0.000309
477 0.000297
478 0.000278
479 0.000256
480 0.000234
481 0.000234
482 0.000206
483 0.000181
484 0.000198
485 0.000224
486 0.000227
487 0.000230
488 0.000227
489 0.000215
490 0.000185
491 0.000146
492 0.000113
493 0.000111
494 0.000094
495 0.000113
496 0.000125
497 0.000115
498 0.000122
499 0.000147
500 0.000164
501 0.000187
502 0.000189
503 0.000183
504 0.000188
505 0.000184
506 0.000181
507 0.000174
508 0.000191
509 0.000220
510 0.000225
511 0.000206
512 0.000210
513 0.000213
514 0.000212
515 0.000223
516 0.000227
517 0.000227
518 0.000229
519 0.000217
520 0.000210
521 0.000214
522 0.000224
523 0.000222
524 0.000214
525 0.000199
526 0.000190
527 0.000169
528 0.000160
529 0.000158
530 0.000170
531 0.000167
532 0.000146
533 0.000148
534 0.000106
535 0.000082
536 0.000057
537 0.000038
538 0.000027
539 0.000019
540 0.000026
541 0.000047
542 0.000091
543 0.000102
544 0.000091
545 0.000107
546 0.000114
547 0.000103
548 0.000113
549 0.000099
550 0.000088
551 0.000070
552 0.000057
553 0.000076
554 0.000101
555 0.000120
556 0.000116
557 0.000110
558 0.000095
559 0.000093
560 0.000053
561 0.000026
562 0.000027
563 0.000043
564 0.000030
565 0.000021
566 -0.000009
567 -0.000029
568 -0.000041
569 -0.000022
570 0.000004
571 0.000011
572 0.000026
573 0.000041
574 0.000046
575 0.000051
576 0.000063
577 0.000064
578 0.000066
579 0.000054
580 0.000014
581 -0.000017
582 -0.000025
583 -0.000050
584 -0.000071
585 -0.000053
586 -0.000032
587 -0.000027
588 -0.000044
589 -0.000047
590 -0.000024
591 -0.000005
592 -0.000011
593 -0.000029
594 -0.000041
595 -0.000049
596 -0.000067
597 -0.000059
598 -0.000027
599 0.000008
600 0.000036
601 0.000075
602 0.000102
603 0.000138
604 0.000163
605 0.000174
606 0.000185
607 0.000180
608 0.000188
609 0.000182
610 0.000170
611 0.000189
612 0.000216
613 0.000259
614 0.000273
615 0.000303
616 0.000335
617 0.000360
618 0.000367
619 0.000362
620 0.000355
621 0.000342
622 0.000349
623 0.000346
624 0.000325
625 0.000313
626 0.000324
627 0.000333
628 0.000354
629 0.000379
630 0.000395
631 0.000423
632 0.000429
633 0.000423
634 0.000406
635 0.000406
636 0.000398
637 0.000368
638 0.000331
639 0.000314
640 0.000300
641 0.000265
642 0.000235
643 0.000239
644 0.000258
645 0.000257
646 0.000232
647 0.000192
648 0.000166
649 0.000152
650 0.000145
651 0.000133
652 0.000131
653 0.000118
654 0.000117
655 0.000118
656 0.000134
657 0.000158
658 0.000180
659 0.000201
660 0.000218
661 0.000233
662 0.000247
663 0.000253
664 0.000248
665 0.000249
666 0.000239
667 0.000238
668 0.000229
669 0.000225
670 0.000238
671 0.000252
672 0.000278
673 0.000293
674 0.000303
675 0.000303
676 0.000292
677 0.000262
678 0.000248
679 0.000217
680 0.000182
681 0.000173
682 0.000152
683 0.000118
684 0.000088
685 0.000067
686 0.000031
687 -0.000020
688 -0.000061
689 -0.000091
690 -0.000109
691 -0.000145
692 -0.000189
693 -0.000212
694 -0.000206
695 -0.000221
696 -0.000218
697 -0.000191
698 -0.000162
699 -0.000149
700 -0.000138
701 -0.000125
702 -0.000106
703 -0.000084
704 -0.000077
705 -0.000071
706 -0.000047
707 -0.000024
708 -0.000005
709 0.000019
710 0.000047
711 0.000060
712 0.000067
713 0.000093
714 0.000109
715 0.000134
716 0.000140
717 0.000138
718 0.000138
719 0.000129
720 0.000126
721 0.000111
722 0.000092
723 0.000079
724 0.000071
725 0.000046
726 0.000036
727 0.000034
728 0.000030
729 0.000009
730 -0.000006
731 -0.000012
732 -0.000022
733 -0.000033
734 -0.000041
735 -0.000043
736 -0.000034
737 -0.000025
738 -0.000033
739 -0.000016
740 0.000014
741 0.000038
742 0.000069
743 0.000098
744 0.000117
745 0.000104
746 0.000094
747 0.000092
748 0.000080
749 0.000071
750 0.000075
751 0.000070
752 0.000064
753 0.000052
754 0.000054
755 0.000067
756 0.000084
757 0.000078
758 0.000086
759 0.000099
760 0.000119
761 0.000112
762 0.000108
763 0.000111
764 0.000105
765 0.000095
766 0.000092
767 0.000092
768 0.000082
769 0.000068
770 0.000059
771 0.000051
772 0.000042
773 0.000024
774 0.000011
775 -0.000005
776 -0.000003
777 -0.000001
778 0.000016
779 0.000040
780 0.000061
781 0.000065
782 0.000058
783 0.000055
784 0.000052
785 0.000059
786 0.000051
787 0.000043
788 0.000031
789 0.000019
790 0.000003
791 -0.000011
792 -0.000015
793 -0.000015
794 -0.000020
795 -0.000031
796 -0.000034
797 -0.000041
798 -0.000038
799 -0.000038
800 -0.000030
801 -0.000024
802 -0.000017
803 -0.000019
804 -0.000006
805 0.000003
806 0.000007
807 0.000012
808 0.000029
809 0.000036
