# i correlation
1 0.003459
2 0.003145
3 0.002892
4 0.002665
5 0.002470
6 0.002283
7 0.002093
8 0.001932
9 0.001776
10 0.001669
11 0.001573
12 0.001488
13 0.001443
14 0.001432
15 0.001413
16 0.001440
17 0.001434
18 0.001464
19 0.001499
20 0.001500
21 0.001491
22 0.001452
23 0.001403
24 0.001401
25 0.001371
26 0.001320
27 0.001280
28 0.001291
29 0.001286
30 0.001257
31 0.001228
32 0.001206
33 0.001185
34 0.001178
35 0.001188
36 0.001172
37 0.001140
38 0.001129
39 0.001134
40 0.001144
41 0.001131
42 0.001105
43 0.001096
44 0.001087
45 0.001072
46 0.001021
47 0.000955
48 0.000882
49 0.000854
50 0.000863
51 0.000874
52 0.000859
53 0.000863
54 0.000853
55 0.000856
56 0.000861
57 0.000883
58 0.000909
59 0.000958
60 0.001007
61 0.001037
62 0.001063
63 0.001091
64 0.001119
65 0.001084
66 0.001053
67 0.001040
68 0.001025
69 0.001010
70 0.000980
71 0.000972
72 0.000963
73 0.000953
74 0.000951
75 0.000988
76 0.000995
77 0.000988
78 0.001008
79 0.000979
80 0.000974
81 0.000966
82 0.000956
83 0.000939
84 0.000939
85 0.000953
86 0.000972
87 0.000930
88 0.000922
89 0.000895
90 0.000841
91 0.000823
92 0.000819
93 0.000833
94 0.000861
95 0.000920
96 0.000977
97 0.001029
98 0.001026
99 0.001035
100 0.001038
101 0.001022
102 0.001031
103 0.001043
104 0.001041
105 0.001014
106 0.000978
107 0.000972
108 0.000948
109 0.000928
110 0.000922
111 0.000902
112 0.000891
113 0.000919
114 0.000966
115 0.000978
116 0.001002
117 0.001020
118 0.001057
119 0.001070
120 0.001060
121 0.001063
122 0.001079
123 0.001086
124 0.001047
125 0.000999
126 0.000963
127 0.000942
128 0.000956
129 0.000947
130 0.000932
131 0.000948
132 0.000941
133 0.000936
134 0.000911
135 0.000898
136 0.000887
137 0.000917
138 0.000965
139 0.000998
140 0.000970
141 0.000949
142 0.000924
143 0.000909
144 0.000905
145 0.000897
146 0.000911
147 0.000925
148 0.000939
149 0.000964
150 0.001005
151 0.001026
152 0.001036
153 0.001029
154 0.001025
155 0.000994
156 0.000966
157 0.000991
158 0.001011
159 0.001058
160 0.001096
161 0.001112
162 0.001094
163 0.001099
164 0.001103
165 0.001088
166 0.001084
167 0.001087
168 0.001083
169 0.001079
170 0.001053
171 0.001044
172 0.001002
173 0.000977
174 0.000932
175 0.000865
176 0.000758
177 0.000677
178 0.000637
179 0.000601
180 0.000577
181 0.000578
182 0.000630
183 0.000672
184 0.000710
185 0.000780
186 0.000804
187 0.000837
188 0.000877
189 0.000927
190 0.000977
191 0.001009
192 0.001045
193 0.001084
194 0.001132
195 0.001153
196 0.001154
197 0.001143
198 0.001125
199 0.001109
200 0.001107
201 0.001116
202 0.001112
203 0.001107
204 0.001100
205 0.001080
206 0.001061
207 0.001051
208 0.001040
209 0.001036
210 0.001057
211 0.001098
212 0.001113
213 0.001126
214 0.001150
215 0.001142
216 0.001128
217 0.001115
218 0.001114
219 0.001158
220 0.001138
221 0.001106
222 0.001070
223 0.001058
224 0.001058
225 0.001057
226 0.001051
227 0.001033
228 0.001024
229 0.001013
230 0.001008
231 0.000978
232 0.000961
233 0.000958
234 0.000939
235 0.000930
236 0.000905
237 0.000848
238 0.000782
239 0.000713
240 0.000661
241 0.000621
242 0.000591
243 0.000574
244 0.000578
245 0.000603
246 0.000629
247 0.000660
248 0.000679
249 0.000720
250 0.000732
251 0.000744
252 0.000755
253 0.000767
254 0.000791
255 0.000818
256 0.000825
257 0.000825
258 0.000809
259 0.000802
260 0.000812
261 0.000824
262 0.000832
263 0.000799
264 0.000799
265 0.000790
266 0.000793
267 0.000789
268 0.000774
269 0.000752
270 0.000775
271 0.000823
272 0.000860
273 0.000888
274 0.000911
275 0.000910
276 0.000882
277 0.000856
278 0.000842
279 0.000857
280 0.000866
281 0.000852
282 0.000847
283 0.000822
284 0.000757
285 0.000727
286 0.000716
287 0.000720
288 0.000727
289 0.000742
290 0.000761
291 0.000759
292 0.000746
293 0.000726
294 0.000681
295 0.000658
296 0.000640
297 0.000621
298 0.000581
299 0.000551
300 0.000540
301 0.000532
302 0.000489
303 0.000447
304 0.000418
305 0.000390
306 0.000374
307 0.000374
308 0.000385
309 0.000396
310 0.000363
311 0.000355
312 0.000352
313 0.000332
314 0.000311
315 0.000308
316 0.000337
317 0.000354
318 0.000360
319 0.000389
320 0.000412
321 0.000431
322 0.000419
323 0.000398
324 0.000387
325 0.000368
326 0.000337
327 0.000289
328 0.000234
329 0.000216
330 0.000230
331 0.000238
332 0.000259
333 0.000279
334 0.000282
335 0.000305
336 0.000314
337 0.000317
338 0.000318
339 0.000314
340 0.000317
341 0.000331
342 0.000345
343 0.000337
344 0.000333
345 0.000305
346 0.000284
347 0.000245
348 0.000228
349 0.000206
350 0.000197
351 0.000201
352 0.000207
353 0.000211
354 0.000239
355 0.000272
356 0.000298
357 0.000331
358 0.000368
359 0.000414
360 0.000455
361 0.000475
362 0.000473
363 0.000460
364 0.000442
365 0.000445
366 0.000445
367 0.000441
368 0.000425
369 0.000416
370 0.000432
371 0.000426
372 0.000393
373 0.000362
374 0.000339
375 0.000349
376 0.000370
377 0.000357
378 0.000359
379 0.000362
380 0.000371
381 0.000375
382 0.000386
383 0.000405
384 0.000441
385 0.000477
386 0.000502
387 0.000500
388 0.000494
389 0.000501
390 0.000507
391 0.000471
392 0.000466
393 0.000466
394 0.000485
395 0.000497
396 0.000473
397 0.000466
398 0.000463
399 0.000462
400 0.000458
401 0.000458
402 0.000424
403 0.000397
404 0.000390
405 0.000382
406 0.000380
407 0.000345
408 0.000353
409 0.000348
410 0.000348
411 0.000369
412 0.000383
413 0.000381
414 0.000391
415 0.000399
416 0.000412
417 0.000435
418 0.000481
419 0.000535
420 0.000583
421 0.000625
422 0.000645
423 0.000663
424 0.000695
425 0.000715
426 0.000724
427 0.000737
428 0.000746
429 0.000754
430 0.000758
431 0.000740
432 0.000711
433 0.000684
434 0.000656
435 0.000632
436 0.000611
437 0.000593
438 0.000571
439 0.000586
440 0.000609
441 0.000610
442 0.000597
443 0.000590
444 0.000574
445 0.000553
446 0.000539
447 0.000533
448 0.000545
449 0.000562
450 0.000531
451 0.000477
452 0.000436
453 0.000392
454 0.000372
455 0.000338
456 0.000326
457 0.000308
458 0.000303
459 0.000308
460 0.000308
461 0.000324
462 0.000333
463 0.000324
464 0.000319
465 0.000309
466 0.000290
467 0.000286
468 0.000307
469 0.000299
470 0.000312
471 0.000291
472 0.000278
473 0.000291
474 0.000307
475 0.000320
476 0.000322
477 0.000299
478 0.000279
479 0.000254
480 0.000237
481 0.000226
482 0.000207
483 0.000200
484 0.000200
485 0.000180
486 0.000167
487 0.000159
488 0.000129
489 0.000150
490 0.000197
491 0.000213
492 0.000254
493 0.000309
494 0.000380
495 0.000407
496 0.000415
497 0.000406
498 0.000398
499 0.000406
500 0.000410
501 0.000399
502 0.000383
503 0.000380
504 0.000375
505 0.000364
506 0.000345
507 0.000321
508 0.000309
509 0.000291
510 0.000257
511 0.000216
512 0.000191
513 0.000163
514 0.000145
515 0.000134
516 0.000114
517 0.000088
518 0.000080
519 0.000078
520 0.000085
521 0.000092
522 0.000084
523 0.000088
524 0.000091
525 0.000110
526 0.000129
527 0.000113
528 0.000113
529 0.000094
530 0.000061
531 0.000050
532 0.000054
533 0.000041
534 0.000050
535 0.000042
536 0.000048
537 0.000053
538 0.000063
539 0.000069
540 0.000063
541 0.000029
542 0.000018
543 0.000015
544 0.000016
545 0.000031
546 0.000041
547 0.000044
548 0.000025
549 0.000018
550 0.000020
551 0.000008
552 0.000021
553 0.000047
554 0.000065
555 0.000064
556 0.000074
557 0.000067
558 0.000068
559 0.000052
560 0.000031
561 0.000034
562 0.000045
563 0.000064
564 0.000082
565 0.000116
566 0.000137
567 0.000160
568 0.000185
569 0.000190
570 0.000214
571 0.000246
572 0.000272
573 0.000269
574 0.000241
575 0.000208
576 0.000163
577 0.000138
578 0.000120
579 0.000115
580 0.000124
581 0.000136
582 0.000141
583 0.000155
584 0.000161
585 0.000163
586 0.000190
587 0.000216
588 0.000244
589 0.000287
590 0.000315
591 0.000370
592 0.000397
593 0.000419
594 0.000441
595 0.000456
596 0.000464
597 0.000454
598 0.000443
599 0.000425
600 0.000391
601 0.000375
602 0.000354
603 0.000337
604 0.000321
605 0.000292
606 0.000273
607 0.000263
608 0.000257
609 0.000269
610 0.000276
611 0.000282
612 0.000311
613 0.000325
614 0.000339
615 0.000340
616 0.000339
617 0.000349
618 0.000349
619 0.000319
620 0.000306
621 0.000298
622 0.000314
623 0.000319
624 0.000306
625 0.000296
626 0.000260
627 0.000241
628 0.000242
629 0.000221
630 0.000208
631 0.000208
632 0.000203
633 0.000214
634 0.000236
635 0.000247
636 0.000257
637 0.000252
638 0.000266
639 0.000285
640 0.000286
641 0.000319
642 0.000342
643 0.000351
644 0.000351
645 0.000345
646 0.000330
647 0.000321
648 0.000305
649 0.000285
650 0.000278
651 0.000261
652 0.000244
653 0.000232
654 0.000211
655 0.000202
656 0.000185
657 0.000183
658 0.000157
659 0.000131
660 0.000112
661 0.000095
662 0.000086
663 0.000085
664 0.000077
665 0.000083
666 0.000092
667 0.000114
668 0.000120
669 0.000126
670 0.000107
671 0.000084
672 0.000050
673 0.000023
674 -0.000001
675 -0.000016
676 -0.000048
677 -0.000066
678 -0.000089
679 -0.000092
680 -0.000110
681 -0.000122
682 -0.000126
683 -0.000107
684 -0.000095
685 -0.000063
686 -0.000028
687 0.000008
688 0.000031
689 0.000061
690 0.000083
691 0.000101
692 0.000113
693 0.000131
694 0.000143
695 0.000157
696 0.000163
697 0.000167
698 0.000169
699 0.000173
700 0.000184
701 0.000205
702 0.000211
703 0.000225
704 0.000228
705 0.000220
706 0.000230
707 0.000235
708 0.000245
709 0.000260
710 0.000270
711 0.000279
712 0.000265
713 0.000245
714 0.000245
715 0.000226
716 0.000209
717 0.000197
718 0.000185
719 0.000175
720 0.000187
721 0.000197
722 0.000214
723 0.000217
724 0.000224
725 0.000230
726 0.000247
727 0.000265
728 0.000279
729 0.000282
730 0.000284
731 0.000261
732 0.000242
733 0.000205
734 0.000171
735 0.000149
736 0.000130
737 0.000090
738 0.000050
739 0.000003
740 -0.000011
741 -0.000016
742 -0.000022
743 -0.000036
744 -0.000046
745 -0.000038
746 -0.000028
747 -0.000030
748 -0.000028
749 -0.000025
750 -0.000016
751 -0.000012
752 -0.000013
753 -0.000014
754 -0.000011
755 0.000004
756 0.000021
757 0.000025
758 0.000016
759 0.000000
760 -0.000017
761 -0.000015
762 -0.000010
763 -0.000021
764 -0.000021
765 -0.000013
766 -0.000006
767 0.000000
768 -0.000005
769 -0.000007
770 -0.000014
771 -0.000031
772 -0.000059
773 -0.000081
774 -0.000110
775 -0.000137
776 -0.000151
777 -0.000171
778 -0.000173
779 -0.000179
780 -0.000172
781 -0.000143
782 -0.000113
783 -0.000080
784 -0.000052
785 -0.000021
786 0.000021
787 0.000058
788 0.000079
789 0.000090
790 0.000093
791 0.000079
792 0.000068
793 0.000043
794 0.000019
795 -0.000004
796 -0.000027
797 -0.000052
798 -0.000069
799 -0.000083
800 -0.000087
801 -0.000093
802 -0.000086
803 -0.000078
804 -0.000078
805 -0.000075
806 -0.000051
807 -0.000024
808 -0.000001
809 0.000012
