# i correlation
1 0.003050
2 0.002728
3 0.002425
4 0.002195
5 0.001984
6 0.001840
7 0.001765
8 0.001719
9 0.001651
10 0.001587
11 0.001521
12 0.001435
13 0.001353
14 0.001266
15 0.001168
16 0.001056
17 0.000956
18 0.000826
19 0.000731
20 0.000657
21 0.000620
22 0.000605
23 0.000579
24 0.000595
25 0.000593
26 0.000583
27 0.000595
28 0.000593
29 0.000562
30 0.000531
31 0.000514
32 0.000508
33 0.000467
34 0.000422
35 0.000391
36 0.000371
37 0.000350
38 0.000360
39 0.000381
40 0.000393
41 0.000417
42 0.000424
43 0.000449
44 0.000468
45 0.000489
46 0.000517
47 0.000566
48 0.000581
49 0.000577
50 0.000555
51 0.000533
52 0.000502
53 0.000493
54 0.000510
55 0.000529
56 0.000580
57 0.000600
58 0.000632
59 0.000642
60 0.000638
61 0.000629
62 0.000651
63 0.000706
64 0.000713
65 0.000708
66 0.000737
67 0.000744
68 0.000738
69 0.000756
70 0.000775
71 0.000822
72 0.000847
73 0.000858
74 0.000860
75 0.000881
76 0.000903
77 0.000898
78 0.000909
79 0.000869
80 0.000878
81 0.000862
82 0.000885
83 0.000894
84 0.000897
85 0.000872
86 0.000845
87 0.000799
88 0.000756
89 0.000726
90 0.000733
91 0.000754
92 0.000732
93 0.000681
94 0.000651
95 0.000596
96 0.000544
97 0.000545
98 0.000536
99 0.000536
100 0.000513
101 0.000528
102 0.000547
103 0.000543
104 0.000571
105 0.000586
106 0.000583
107 0.000551
108 0.000522
109 0.000418
110 0.000331
111 0.000268
112 0.000230
113 0.000225
114 0.000249
115 0.000277
116 0.000333
117 0.000363
118 0.000377
119 0.000391
120 0.000401
121 0.000391
122 0.000369
123 0.000338
124 0.000293
125 0.000305
126 0.000318
127 0.000336
128 0.000340
129 0.000360
130 0.000402
131 0.000399
132 0.000386
133 0.000369
134 0.000360
135 0.000320
136 0.000276
137 0.000214
138 0.000198
139 0.000178
140 0.000153
141 0.000095
142 0.000025
143 -0.000050
144 -0.000090
145 -0.000117
146 -0.000108
147 -0.000091
148 -0.000024
149 0.000005
150 0.000007
151 -0.000012
152 0.000011
153 0.000064
154 0.000105
155 0.000127
156 0.000112
157 0.000094
158 0.000042
159 -0.000045
160 -0.000092
161 -0.000110
162 -0.000054
163 0.000022
164 0.000106
165 0.000167
166 0.000200
167 0.000207
168 0.000178
169 0.000118
170 0.000091
171 0.000038
172 0.000004
173 0.000023
174 0.000083
175 0.000126
176 0.000152
177 0.000204
178 0.000229
179 0.000279
180 0.000327
181 0.000346
182 0.000360
183 0.000376
184 0.000404
185 0.000411
186 0.000390
187 0.000355
188 0.000336
189 0.000329
190 0.000312
191 0.000345
192 0.000380
193 0.000402
194 0.000421
195 0.000432
196 0.000450
197 0.000423
198 0.000408
199 0.000402
200 0.000380
201 0.000344
202 0.000347
203 0.000373
204 0.000387
205 0.000426
206 0.000489
207 0.000521
208 0.000557
209 0.000576
210 0.000575
211 0.000595
212 0.000612
213 0.000600
214 0.000541
215 0.000456
216 0.000396
217 0.000334
218 0.000296
219 0.000277
220 0.000281
221 0.000299
222 0.000292
223 0.000286
224 0.000286
225 0.000219
226 0.000157
227 0.000082
228 0.000018
229 -0.000030
230 -0.000036
231 -0.000019
232 -0.000001
233 0.000045
234 0.000048
235 0.000056
236 0.000051
237 0.000036
238 0.000055
239 0.000066
240 0.000083
241 0.000084
242 0.000070
243 0.000071
244 0.000068
245 0.000050
246 0.000068
247 0.000089
248 0.000120
249 0.000126
250 0.000144
251 0.000166
252 0.000216
253 0.000273
254 0.000343
255 0.000425
256 0.000495
257 0.000543
258 0.000566
259 0.000595
260 0.000625
261 0.000611
262 0.000587
263 0.000556
264 0.000530
265 0.000502
266 0.000491
267 0.000500
268 0.000504
269 0.000538
270 0.000545
271 0.000566
272 0.000573
273 0.000552
274 0.000526
275 0.000480
276 0.000421
277 0.000374
278 0.000349
279 0.000342
280 0.000350
281 0.000384
282 0.000460
283 0.000521
284 0.000577
285 0.000591
286 0.000601
287 0.000607
288 0.000583
289 0.000542
290 0.000522
291 0.000509
292 0.000477
293 0.000478
294 0.000479
295 0.000470
296 0.000487
297 0.000530
298 0.000536
299 0.000514
300 0.000498
301 0.000490
302 0.000483
303 0.000459
304 0.000469
305 0.000482
306 0.000497
307 0.000497
308 0.000484
309 0.000451
310 0.000436
311 0.000443
312 0.000455
313 0.000485
314 0.000533
315 0.000589
316 0.000612
317 0.000584
318 0.000564
319 0.000552
320 0.000542
321 0.000526
322 0.000521
323 0.000516
324 0.000519
325 0.000529
326 0.000531
327 0.000535
328 0.000552
329 0.000586
330 0.000646
331 0.000691
332 0.000743
333 0.000769
334 0.000759
335 0.000734
336 0.000687
337 0.000653
338 0.000649
339 0.000629
340 0.000622
341 0.000633
342 0.000622
343 0.000595
344 0.000571
345 0.000542
346 0.000521
347 0.000508
348 0.000457
349 0.000414
350 0.000365
351 0.000305
352 0.000236
353 0.000190
354 0.000165
355 0.000102
356 0.000059
357 0.000041
358 0.000051
359 0.000069
360 0.000089
361 0.000119
362 0.000154
363 0.000194
364 0.000223
365 0.000269
366 0.000306
367 0.000315
368 0.000328
369 0.000331
370 0.000308
371 0.000293
372 0.000279
373 0.000300
374 0.000333
375 0.000367
376 0.000395
377 0.000410
378 0.000438
379 0.000453
380 0.000426
381 0.000381
382 0.000361
383 0.000333
384 0.000272
385 0.000247
386 0.000262
387 0.000303
388 0.000356
389 0.000409
390 0.000473
391 0.000494
392 0.000485
393 0.000464
394 0.000449
395 0.000415
396 0.000365
397 0.000342
398 0.000360
399 0.000378
400 0.000379
401 0.000365
402 0.000330
403 0.000306
404 0.000283
405 0.000276
406 0.000271
407 0.000259
408 0.000239
409 0.000232
410 0.000227
411 0.000211
412 0.000222
413 0.000240
414 0.000235
415 0.000230
416 0.000230
417 0.000248
418 0.000254
419 0.000257
420 0.000253
421 0.000263
422 0.000260
423 0.000234
424 0.000198
425 0.000161
426 0.000141
427 0.000137
428 0.000108
429 0.000092
430 0.000078
431 0.000070
432 0.000071
433 0.000045
434 0.000017
435 -0.000006
436 -0.000021
437 -0.000028
438 -0.000038
439 -0.000048
440 -0.000056
441 -0.000063
442 -0.000077
443 -0.000111
444 -0.000121
445 -0.000111
446 -0.000064
447 -0.000045
448 -0.000020
449 0.000025
450 0.000065
451 0.000108
452 0.000136
453 0.000159
454 0.000168
455 0.000162
456 0.000161
457 0.000148
458 0.000119
459 0.000112
460 0.000121
461 0.000158
462 0.000193
463 0.000218
464 0.000250
465 0.000272
466 0.000290
467 0.000291
468 0.000285
469 0.000275
470 0.000259
471 0.000244
472 0.000224
473 0.000211
474 0.000171
475 0.000119
476 0.000084
477 0.000061
478 0.000049
479 0.000051
480 0.000043
481 0.000056
482 0.000056
483 0.000040
484 0.000026
485 0.000003
486 -0.000032
487 -0.000061
488 -0.000079
489 -0.000082
490 -0.000056
491 -0.000037
492 -0.000032
493 0.000006
494 0.000032
495 0.000071
496 0.000117
497 0.000134
498 0.000150
499 0.000166
500 0.000179
501 0.000155
502 0.000129
503 0.000118
504 0.000129
505 0.000131
506 0.000132
507 0.000148
508 0.000156
509 0.000176
510 0.000192
511 0.000215
512 0.000226
513 0.000253
514 0.000264
515 0.000274
516 0.000275
517 0.000297
518 0.000310
519 0.000301
520 0.000294
521 0.000300
522 0.000295
523 0.000287
524 0.000271
525 0.000238
526 0.000215
527 0.000205
528 0.000201
529 0.000187
530 0.000160
531 0.000139
532 0.000126
533 0.000114
534 0.000083
535 0.000053
536 0.000020
537 0.000023
538 0.000045
539 0.000062
540 0.000060
541 0.000045
542 0.000037
543 0.000042
544 0.000054
545 0.000055
546 0.000055
547 0.000061
548 0.000067
549 0.000071
550 0.000069
551 0.000078
552 0.000086
553 0.000123
554 0.000156
555 0.000167
556 0.000172
557 0.000167
558 0.000139
559 0.000117
560 0.000109
561 0.000086
562 0.000072
563 0.000047
564 0.000029
565 0.000031
566 0.000035
567 0.000059
568 0.000081
569 0.000109
570 0.000127
571 0.000132
572 0.000112
573 0.000098
574 0.000101
575 0.000103
576 0.000121
577 0.000138
578 0.000164
579 0.000185
580 0.000211
581 0.000236
582 0.000261
583 0.000265
584 0.000282
585 0.000300
586 0.000333
587 0.000362
588 0.000367
589 0.000365
590 0.000357
591 0.000340
592 0.000328
593 0.000311
594 0.000308
595 0.000319
596 0.000329
597 0.000323
598 0.000316
599 0.000314
600 0.000303
601 0.000315
602 0.000324
603 0.000329
604 0.000340
605 0.000330
606 0.000322
607 0.000315
608 0.000293
609 0.000289
610 0.000270
611 0.000251
612 0.000247
613 0.000246
614 0.000237
615 0.000229
616 0.000226
617 0.000229
618 0.000239
619 0.000239
620 0.000250
621 0.000260
622 0.000247
623 0.000233
624 0.000203
625 0.000185
626 0.000177
627 0.000157
628 0.000130
629 0.000114
630 0.000099
631 0.000102
632 0.000087
633 0.000076
634 0.000074
635 0.000071
636 0.000069
637 0.000061
638 0.000046
639 0.000036
640 0.000023
641 0.000010
642 -0.000002
643 -0.000012
644 -0.000026
645 -0.000015
646 -0.000016
647 0.000003
648 0.000034
649 0.000063
650 0.000094
651 0.000103
652 0.000127
653 0.000159
654 0.000177
655 0.000186
656 0.000180
657 0.000173
658 0.000173
659 0.000179
660 0.000191
661 0.000204
662 0.000228
663 0.000237
664 0.000254
665 0.000263
666 0.000267
667 0.000266
668 0.000253
669 0.000247
670 0.000240
671 0.000230
672 0.000230
673 0.000252
674 0.000280
675 0.000305
676 0.000319
677 0.000332
678 0.000322
679 0.000320
680 0.000318
681 0.000324
682 0.000325
683 0.000322
684 0.000331
685 0.000338
686 0.000329
687 0.000323
688 0.000306
689 0.000277
690 0.000251
691 0.000232
692 0.000208
693 0.000169
694 0.000136
695 0.000104
696 0.000079
697 0.000050
698 0.000032
699 0.000011
700 0.000004
701 -0.000004
702 -0.000005
703 -0.000005
704 -0.000008
705 -0.000007
706 0.000004
707 0.000019
708 0.000032
709 0.000031
710 0.000017
711 0.000001
712 -0.000004
713 -0.000003
714 -0.000016
715 -0.000025
716 -0.000036
717 -0.000024
718 -0.000023
719 -0.000017
720 -0.000016
721 -0.000015
722 -0.000013
723 0.000003
724 0.000026
725 0.000040
726 0.000038
727 0.000014
728 -0.000006
729 -0.000014
730 -0.000013
731 -0.000018
732 -0.000010
733 0.000000
734 0.000011
735 0.000018
736 0.000027
737 0.000028
738 0.000010
739 -0.000012
740 -0.000027
741 -0.000041
742 -0.000055
743 -0.000061
744 -0.000051
745 -0.000040
746 -0.000028
747 -0.000008
748 0.000014
749 0.000027
750 0.000044
751 0.000061
752 0.000070
753 0.000083
754 0.000086
755 0.000076
756 0.000072
757 0.000082
758 0.000087
759 0.000101
760 0.000108
761 0.000123
762 0.000132
763 0.000131
764 0.000118
765 0.000114
766 0.000116
767 0.000114
768 0.000111
769 0.000107
770 0.000114
771 0.000116
772 0.000123
773 0.000127
774 0.000124
775 0.000122
776 0.000116
777 0.000120
778 0.000126
779 0.000122
780 0.000113
781 0.000111
782 0.000111
783 0.000106
784 0.000096
785 0.000082
786 0.000079
787 0.000073
788 0.000082
789 0.000086
790 0.000086
791 0.000081
792 0.000079
793 0.000074
794 0.000070
795 0.000062
796 0.000046
797 0.000031
798 0.000032
799 0.000037
800 0.000037
801 0.000031
802 0.000019
803 0.000012
804 0.000008
805 0.000004
806 -0.000010
807 -0.000025
808 -0.000036
809 -0.000054
