# i correlation
1 0.004354
2 0.004054
3 0.003785
4 0.003584
5 0.003381
6 0.003204
7 0.003069
8 0.003000
9 0.002943
10 0.002918
11 0.002884
12 0.002857
13 0.002865
14 0.002880
15 0.002878
16 0.002850
17 0.002853
18 0.002854
19 0.002854
20 0.002804
21 0.002817
22 0.002801
23 0.002805
24 0.002768
25 0.002726
26 0.002665
27 0.002590
28 0.002512
29 0.002431
30 0.002375
31 0.002359
32 0.002357
33 0.002330
34 0.002329
35 0.002305
36 0.002279
37 0.002265
38 0.002249
39 0.002220
40 0.002183
41 0.002173
42 0.002149
43 0.002087
44 0.002048
45 0.002007
46 0.002011
47 0.001989
48 0.001959
49 0.001893
50 0.001857
51 0.001848
52 0.001850
53 0.001853
54 0.001828
55 0.001792
56 0.001762
57 0.001777
58 0.001823
59 0.001856
60 0.001875
61 0.001917
62 0.001948
63 0.001959
64 0.001917
65 0.001910
66 0.001876
67 0.001825
68 0.001746
69 0.001717
70 0.001691
71 0.001670
72 0.001681
73 0.001698
74 0.001669
75 0.001648
76 0.001599
77 0.001558
78 0.001526
79 0.001526
80 0.001528
81 0.001511
82 0.001506
83 0.001472
84 0.001456
85 0.001438
86 0.001430
87 0.001430
88 0.001427
89 0.001429
90 0.001433
91 0.001476
92 0.001519
93 0.001540
94 0.001555
95 0.001564
96 0.001591
97 0.001551
98 0.001526
99 0.001511
100 0.001456
101 0.001391
102 0.001300
103 0.001284
104 0.001256
105 0.001253
106 0.001232
107 0.001213
108 0.001218
109 0.001255
110 0.001292
111 0.001306
112 0.001311
113 0.001351
114 0.001403
115 0.001405
116 0.001425
117 0.001431
118 0.001427
119 0.001413
120 0.001401
121 0.001382
122 0.001368
123 0.001369
124 0.001374
125 0.001377
126 0.001394
127 0.001432
128 0.001445
129 0.001411
130 0.001424
131 0.001446
132 0.001444
133 0.001452
134 0.001443
135 0.001439
136 0.001409
137 0.001376
138 0.001389
139 0.001366
140 0.001367
141 0.001366
142 0.001382
143 0.001382
144 0.001401
145 0.001450
146 0.001487
147 0.001505
148 0.001525
149 0.001582
150 0.001591
151 0.001613
152 0.001620
153 0.001623
154 0.001620
155 0.001617
156 0.001581
157 0.001558
158 0.001544
159 0.001567
160 0.001558
161 0.001546
162 0.001558
163 0.001569
164 0.001590
165 0.001607
166 0.001595
167 0.001591
168 0.001615
169 0.001651
170 0.001683
171 0.001727
172 0.001746
173 0.001766
174 0.001775
175 0.001769
176 0.001754
177 0.001716
178 0.001688
179 0.001671
180 0.001661
181 0.001645
182 0.001620
183 0.001615
184 0.001606
185 0.001633
186 0.001665
187 0.001658
188 0.001651
189 0.001638
190 0.001661
191 0.001632
192 0.001601
193 0.001577
194 0.001555
195 0.001518
196 0.001521
197 0.001509
198 0.001473
199 0.001433
200 0.001388
201 0.001360
202 0.001306
203 0.001253
204 0.001243
205 0.001253
206 0.001287
207 0.001354
208 0.001419
209 0.001465
210 0.001507
211 0.001525
212 0.001559
213 0.001585
214 0.001589
215 0.001594
216 0.001554
217 0.001533
218 0.001532
219 0.001505
220 0.001499
221 0.001474
222 0.001488
223 0.001476
224 0.001464
225 0.001425
226 0.001398
227 0.001383
228 0.001352
229 0.001335
230 0.001338
231 0.001355
232 0.001363
233 0.001370
234 0.001367
235 0.001339
236 0.001335
237 0.001335
238 0.001359
239 0.001355
240 0.001378
241 0.001418
242 0.001410
243 0.001415
244 0.001426
245 0.001418
246 0.001399
247 0.001370
248 0.001359
249 0.001358
250 0.001354
251 0.001352
252 0.001340
253 0.001293
254 0.001230
255 0.001179
256 0.001126
257 0.001053
258 0.000992
259 0.000949
260 0.000897
261 0.000880
262 0.000872
263 0.000856
264 0.000831
265 0.000819
266 0.000837
267 0.000883
268 0.000908
269 0.000905
270 0.000871
271 0.000849
272 0.000839
273 0.000800
274 0.000772
275 0.000748
276 0.000755
277 0.000732
278 0.000693
279 0.000662
280 0.000656
281 0.000632
282 0.000622
283 0.000590
284 0.000591
285 0.000583
286 0.000566
287 0.000535
288 0.000503
289 0.000497
290 0.000509
291 0.000480
292 0.000469
293 0.000456
294 0.000440
295 0.000434
296 0.000399
297 0.000361
298 0.000334
299 0.000351
300 0.000358
301 0.000359
302 0.000358
303 0.000422
304 0.000495
305 0.000534
306 0.000557
307 0.000561
308 0.000551
309 0.000564
310 0.000544
311 0.000520
312 0.000463
313 0.000460
314 0.000470
315 0.000477
316 0.000446
317 0.000418
318 0.000415
319 0.000386
320 0.000371
321 0.000367
322 0.000372
323 0.000363
324 0.000377
325 0.000397
326 0.000395
327 0.000390
328 0.000418
329 0.000454
330 0.000492
331 0.000511
332 0.000554
333 0.000572
334 0.000611
335 0.000626
336 0.000643
337 0.000658
338 0.000638
339 0.000620
340 0.000621
341 0.000631
342 0.000642
343 0.000633
344 0.000622
345 0.000630
346 0.000604
347 0.000615
348 0.000592
349 0.000589
350 0.000595
351 0.000581
352 0.000559
353 0.000563
354 0.000562
355 0.000615
356 0.000638
357 0.000665
358 0.000664
359 0.000645
360 0.000632
361 0.000637
362 0.000661
363 0.000693
364 0.000706
365 0.000729
366 0.000753
367 0.000790
368 0.000798
369 0.000781
370 0.000746
371 0.000751
372 0.000767
373 0.000769
374 0.000746
375 0.000740
376 0.000762
377 0.000771
378 0.000775
379 0.000796
380 0.000804
381 0.000820
382 0.000827
383 0.000839
384 0.000842
385 0.000818
386 0.000796
387 0.000779
388 0.000764
389 0.000778
390 0.000790
391 0.000805
392 0.000811
393 0.000819
394 0.000840
395 0.000899
396 0.000924
397 0.000931
398 0.000959
399 0.000967
400 0.000979
401 0.000956
402 0.000938
403 0.000929
404 0.000922
405 0.000885
406 0.000843
407 0.000795
408 0.000778
409 0.000770
410 0.000768
411 0.000743
412 0.000727
413 0.000728
414 0.000750
415 0.000756
416 0.000781
417 0.000810
418 0.000821
419 0.000816
420 0.000813
421 0.000804
422 0.000760
423 0.000751
424 0.000729
425 0.000725
426 0.000724
427 0.000716
428 0.000705
429 0.000678
430 0.000691
431 0.000701
432 0.000688
433 0.000641
434 0.000611
435 0.000581
436 0.000556
437 0.000533
438 0.000514
439 0.000499
440 0.000496
441 0.000498
442 0.000488
443 0.000452
444 0.000399
445 0.000367
446 0.000346
447 0.000309
448 0.000281
449 0.000271
450 0.000262
451 0.000239
452 0.000211
453 0.000194
454 0.000193
455 0.000205
456 0.000208
457 0.000175
458 0.000195
459 0.000212
460 0.000225
461 0.000227
462 0.000230
463 0.000244
464 0.000268
465 0.000271
466 0.000244
467 0.000217
468 0.000195
469 0.000147
470 0.000110
471 0.000075
472 0.000040
473 0.000035
474 0.000043
475 0.000054
476 0.000074
477 0.000112
478 0.000140
479 0.000135
480 0.000131
481 0.000114
482 0.000118
483 0.000126
484 0.000136
485 0.000155
486 0.000162
487 0.000158
488 0.000154
489 0.000172
490 0.000190
491 0.000187
492 0.000184
493 0.000201
494 0.000210
495 0.000192
496 0.000173
497 0.000142
498 0.000109
499 0.000087
500 0.000068
501 0.000054
502 0.000024
503 0.000001
504 -0.000043
505 -0.000050
506 -0.000058
507 -0.000030
508 -0.000003
509 0.000018
510 0.000024
511 0.000019
512 0.000017
513 0.000002
514 -0.000006
515 -0.000012
516 -0.000001
517 0.000018
518 0.000038
519 0.000058
520 0.000081
521 0.000089
522 0.000112
523 0.000114
524 0.000113
525 0.000101
526 0.000117
527 0.000116
528 0.000124
529 0.000121
530 0.000135
531 0.000152
532 0.000141
533 0.000147
534 0.000131
535 0.000123
536 0.000113
537 0.000109
538 0.000074
539 0.000056
540 0.000043
541 0.000038
542 0.000028
543 0.000019
544 0.000032
545 0.000025
546 0.000030
547 0.000034
548 0.000052
549 0.000067
550 0.000072
551 0.000086
552 0.000107
553 0.000111
554 0.000149
555 0.000192
556 0.000219
557 0.000242
558 0.000251
559 0.000265
560 0.000256
561 0.000237
562 0.000218
563 0.000209
564 0.000174
565 0.000159
566 0.000132
567 0.000106
568 0.000103
569 0.000108
570 0.000116
571 0.000114
572 0.000142
573 0.000171
574 0.000207
575 0.000220
576 0.000243
577 0.000255
578 0.000246
579 0.000241
580 0.000261
581 0.000284
582 0.000309
583 0.000325
584 0.000326
585 0.000348
586 0.000370
587 0.000383
588 0.000379
589 0.000388
590 0.000399
591 0.000419
592 0.000419
593 0.000431
594 0.000444
595 0.000459
596 0.000468
597 0.000463
598 0.000459
599 0.000465
600 0.000460
601 0.000461
602 0.000452
603 0.000446
604 0.000457
605 0.000477
606 0.000504
607 0.000524
608 0.000553
609 0.000565
610 0.000569
611 0.000562
612 0.000534
613 0.000527
614 0.000526
615 0.000503
616 0.000489
617 0.000476
618 0.000478
619 0.000462
620 0.000429
621 0.000410
622 0.000385
623 0.000365
624 0.000358
625 0.000340
626 0.000327
627 0.000315
628 0.000304
629 0.000305
630 0.000287
631 0.000273
632 0.000277
633 0.000302
634 0.000306
635 0.000308
636 0.000314
637 0.000317
638 0.000296
639 0.000298
640 0.000303
641 0.000287
642 0.000248
643 0.000214
644 0.000178
645 0.000165
646 0.000149
647 0.000166
648 0.000193
649 0.000200
650 0.000207
651 0.000207
652 0.000210
653 0.000213
654 0.000211
655 0.000201
656 0.000198
657 0.000177
658 0.000164
659 0.000154
660 0.000161
661 0.000171
662 0.000185
663 0.000183
664 0.000190
665 0.000182
666 0.000174
667 0.000159
668 0.000149
669 0.000124
670 0.000110
671 0.000118
672 0.000146
673 0.000147
674 0.000126
675 0.000110
676 0.000072
677 0.000045
678 0.000035
679 0.000040
680 0.000051
681 0.000058
682 0.000065
683 0.000060
684 0.000042
685 0.000025
686 0.000012
687 0.000005
688 -0.000002
689 -0.000024
690 -0.000035
691 -0.000035
692 -0.000053
693 -0.000061
694 -0.000078
695 -0.000082
696 -0.000093
697 -0.000094
698 -0.000090
699 -0.000076
700 -0.000064
701 -0.000051
702 -0.000036
703 -0.000027
704 -0.000013
705 0.000004
706 0.000037
707 0.000071
708 0.000095
709 0.000113
710 0.000117
711 0.000092
712 0.000073
713 0.000043
714 0.000029
715 0.000003
716 -0.000009
717 -0.000026
718 -0.000026
719 -0.000023
720 -0.000009
721 0.000019
722 0.000037
723 0.000058
724 0.000073
725 0.000097
726 0.000113
727 0.000137
728 0.000137
729 0.000152
730 0.000161
731 0.000167
732 0.000180
733 0.000196
734 0.000213
735 0.000233
736 0.000234
737 0.000226
738 0.000203
739 0.000192
740 0.000197
741 0.000195
742 0.000189
743 0.000173
744 0.000184
745 0.000215
746 0.000253
747 0.000275
748 0.000295
749 0.000290
750 0.000283
751 0.000265
752 0.000252
753 0.000261
754 0.000270
755 0.000265
756 0.000267
757 0.000274
758 0.000273
759 0.000286
760 0.000294
761 0.000293
762 0.000285
763 0.000277
764 0.000268
765 0.000268
766 0.000262
767 0.000278
768 0.000287
769 0.000304
770 0.000329
771 0.000367
772 0.000398
773 0.000422
774 0.000430
775 0.000435
776 0.000422
777 0.000397
778 0.000373
779 0.000355
780 0.000345
781 0.000349
782 0.000350
783 0.000359
784 0.000349
785 0.000331
786 0.000322
787 0.000314
788 0.000304
789 0.000282
790 0.000253
791 0.000230
792 0.000219
793 0.000207
794 0.000212
795 0.000227
796 0.000233
797 0.000239
798 0.000264
799 0.000289
800 0.000310
801 0.000300
802 0.000281
803 0.000256
804 0.000232
805 0.000208
806 0.000186
807 0.000173
808 0.000167
809 0.000166
