# i correlation
1 0.002632
2 0.002353
3 0.002129
4 0.001923
5 0.001798
6 0.001681
7 0.001615
8 0.001557
9 0.001479
10 0.001420
11 0.001398
12 0.001364
13 0.001334
14 0.001274
15 0.001260
16 0.001248
17 0.001255
18 0.001231
19 0.001208
20 0.001186
21 0.001166
22 0.001150
23 0.001144
24 0.001111
25 0.001082
26 0.001102
27 0.001106
28 0.001108
29 0.001138
30 0.001152
31 0.001146
32 0.001155
33 0.001174
34 0.001191
35 0.001180
36 0.001146
37 0.001113
38 0.001089
39 0.001056
40 0.001033
41 0.001019
42 0.001032
43 0.001049
44 0.001042
45 0.001040
46 0.001063
47 0.001071
48 0.001052
49 0.001027
50 0.000991
51 0.000925
52 0.000889
53 0.000837
54 0.000801
55 0.000823
56 0.000818
57 0.000817
58 0.000861
59 0.000886
60 0.000941
61 0.001010
62 0.001020
63 0.001040
64 0.001059
65 0.001080
66 0.001092
67 0.001099
68 0.001060
69 0.001020
70 0.000966
71 0.000965
72 0.000990
73 0.001014
74 0.001047
75 0.001048
76 0.001010
77 0.000957
78 0.000949
79 0.000955
80 0.000965
81 0.000958
82 0.000945
83 0.000934
84 0.000894
85 0.000840
86 0.000811
87 0.000754
88 0.000727
89 0.000715
90 0.000705
91 0.000724
92 0.000738
93 0.000752
94 0.000767
95 0.000758
96 0.000749
97 0.000720
98 0.000724
99 0.000701
100 0.000688
101 0.000710
102 0.000725
103 0.000755
104 0.000731
105 0.000720
106 0.000686
107 0.000716
108 0.000744
109 0.000774
110 0.000797
111 0.000805
112 0.000804
113 0.000801
114 0.000809
115 0.000836
116 0.000876
117 0.000899
118 0.000911
119 0.000923
120 0.000957
121 0.000983
122 0.000984
123 0.000962
124 0.000955
125 0.000939
126 0.000910
127 0.000876
128 0.000840
129 0.000804
130 0.000767
131 0.000759
132 0.000773
133 0.000783
134 0.000793
135 0.000827
136 0.000858
137 0.000890
138 0.000945
139 0.000977
140 0.000978
141 0.000993
142 0.000965
143 0.000944
144 0.000954
145 0.000977
146 0.000995
147 0.001010
148 0.001002
149 0.001012
150 0.000994
151 0.000954
152 0.000891
153 0.000838
154 0.000834
155 0.000840
156 0.000868
157 0.000874
158 0.000867
159 0.000848
160 0.000806
161 0.000758
162 0.000718
163 0.000701
164 0.000689
165 0.000689
166 0.000685
167 0.000697
168 0.000719
169 0.000702
170 0.000673
171 0.000638
172 0.000639
173 0.000630
174 0.000642
175 0.000672
176 0.000712
177 0.000737
178 0.000746
179 0.000739
180 0.000756
181 0.000766
182 0.000803
183 0.000851
184 0.000899
185 0.000935
186 0.000936
187 0.000929
188 0.000900
189 0.000866
190 0.000819
191 0.000800
192 0.000797
193 0.000810
194 0.000789
195 0.000776
196 0.000769
197 0.000758
198 0.000765
199 0.000773
200 0.000776
201 0.000758
202 0.000743
203 0.000717
204 0.000700
205 0.000671
206 0.000671
207 0.000644
208 0.000623
209 0.000611
210 0.000637
211 0.000636
212 0.000629
213 0.000602
214 0.000592
215 0.000601
216 0.000595
217 0.000591
218 0.000590
219 0.000586
220 0.000567
221 0.000547
222 0.000519
223 0.000534
224 0.000520
225 0.000511
226 0.000497
227 0.000475
228 0.000456
229 0.000451
230 0.000444
231 0.000439
232 0.000429
233 0.000389
234 0.000340
235 0.000329
236 0.000337
237 0.000341
238 0.000364
239 0.000373
240 0.000433
241 0.000490
242 0.000506
243 0.000535
244 0.000547
245 0.000528
246 0.000507
247 0.000493
248 0.000515
249 0.000522
250 0.000518
251 0.000510
252 0.000522
253 0.000517
254 0.000506
255 0.000479
256 0.000483
257 0.000515
258 0.000546
259 0.000587
260 0.000602
261 0.000629
262 0.000642
263 0.000626
264 0.000590
265 0.000558
266 0.000548
267 0.000550
268 0.000519
269 0.000474
270 0.000468
271 0.000456
272 0.000431
273 0.000440
274 0.000450
275 0.000473
276 0.000470
277 0.000469
278 0.000480
279 0.000480
280 0.000447
281 0.000425
282 0.000411
283 0.000419
284 0.000460
285 0.000493
286 0.000526
287 0.000537
288 0.000534
289 0.000520
290 0.000515
291 0.000488
292 0.000473
293 0.000455
294 0.000421
295 0.000402
296 0.000414
297 0.000400
298 0.000361
299 0.000317
300 0.000287
301 0.000279
302 0.000252
303 0.000249
304 0.000252
305 0.000279
306 0.000287
307 0.000307
308 0.000330
309 0.000354
310 0.000355
311 0.000353
312 0.000379
313 0.000412
314 0.000396
315 0.000390
316 0.000380
317 0.000394
318 0.000417
319 0.000448
320 0.000479
321 0.000494
322 0.000496
323 0.000502
324 0.000508
325 0.000502
326 0.000525
327 0.000505
328 0.000468
329 0.000439
330 0.000425
331 0.000430
332 0.000432
333 0.000427
334 0.000432
335 0.000443
336 0.000446
337 0.000438
338 0.000432
339 0.000442
340 0.000425
341 0.000422
342 0.000428
343 0.000429
344 0.000402
345 0.000398
346 0.000392
347 0.000382
348 0.000378
349 0.000356
350 0.000352
351 0.000333
352 0.000309
353 0.000296
354 0.000274
355 0.000260
356 0.000255
357 0.000258
358 0.000275
359 0.000302
360 0.000322
361 0.000361
362 0.000382
363 0.000371
364 0.000376
365 0.000378
366 0.000382
367 0.000384
368 0.000392
369 0.000411
370 0.000421
371 0.000406
372 0.000395
373 0.000385
374 0.000363
375 0.000323
376 0.000302
377 0.000289
378 0.000278
379 0.000285
380 0.000294
381 0.000297
382 0.000322
383 0.000324
384 0.000338
385 0.000328
386 0.000312
387 0.000336
388 0.000342
389 0.000319
390 0.000288
391 0.000296
392 0.000330
393 0.000374
394 0.000396
395 0.000417
396 0.000421
397 0.000426
398 0.000431
399 0.000458
400 0.000472
401 0.000463
402 0.000438
403 0.000437
404 0.000463
405 0.000484
406 0.000513
407 0.000518
408 0.000534
409 0.000522
410 0.000510
411 0.000496
412 0.000463
413 0.000450
414 0.000415
415 0.000371
416 0.000358
417 0.000339
418 0.000311
419 0.000268
420 0.000249
421 0.000256
422 0.000277
423 0.000287
424 0.000320
425 0.000342
426 0.000345
427 0.000335
428 0.000323
429 0.000318
430 0.000309
431 0.000297
432 0.000270
433 0.000260
434 0.000279
435 0.000289
436 0.000287
437 0.000282
438 0.000266
439 0.000257
440 0.000249
441 0.000257
442 0.000270
443 0.000270
444 0.000276
445 0.000249
446 0.000235
447 0.000209
448 0.000191
449 0.000159
450 0.000140
451 0.000132
452 0.000137
453 0.000148
454 0.000182
455 0.000222
456 0.000252
457 0.000287
458 0.000314
459 0.000350
460 0.000381
461 0.000403
462 0.000435
463 0.000436
464 0.000417
465 0.000391
466 0.000362
467 0.000360
468 0.000367
469 0.000364
470 0.000366
471 0.000387
472 0.000396
473 0.000412
474 0.000381
475 0.000359
476 0.000362
477 0.000363
478 0.000349
479 0.000340
480 0.000326
481 0.000296
482 0.000277
483 0.000251
484 0.000240
485 0.000268
486 0.000288
487 0.000301
488 0.000318
489 0.000332
490 0.000334
491 0.000322
492 0.000316
493 0.000297
494 0.000280
495 0.000277
496 0.000275
497 0.000267
498 0.000243
499 0.000240
500 0.000217
501 0.000174
502 0.000178
503 0.000188
504 0.000207
505 0.000241
506 0.000258
507 0.000262
508 0.000254
509 0.000248
510 0.000218
511 0.000176
512 0.000118
513 0.000060
514 0.000013
515 0.000008
516 0.000014
517 0.000036
518 0.000058
519 0.000075
520 0.000087
521 0.000083
522 0.000096
523 0.000111
524 0.000127
525 0.000159
526 0.000176
527 0.000193
528 0.000229
529 0.000254
530 0.000252
531 0.000234
532 0.000220
533 0.000188
534 0.000167
535 0.000138
536 0.000117
537 0.000135
538 0.000162
539 0.000153
540 0.000128
541 0.000101
542 0.000083
543 0.000074
544 0.000065
545 0.000086
546 0.000094
547 0.000095
548 0.000082
549 0.000095
550 0.000100
551 0.000114
552 0.000133
553 0.000116
554 0.000108
555 0.000092
556 0.000073
557 0.000066
558 0.000052
559 0.000030
560 0.000023
561 0.000013
562 0.000011
563 0.000012
564 0.000015
565 0.000035
566 0.000033
567 0.000031
568 0.000016
569 0.000004
570 0.000000
571 0.000026
572 0.000049
573 0.000056
574 0.000064
575 0.000062
576 0.000047
577 0.000015
578 0.000016
579 0.000011
580 0.000031
581 0.000041
582 0.000034
583 0.000039
584 0.000042
585 0.000028
586 0.000020
587 0.000003
588 -0.000004
589 -0.000006
590 -0.000012
591 -0.000007
592 -0.000009
593 0.000002
594 -0.000009
595 -0.000007
596 -0.000003
597 0.000019
598 0.000042
599 0.000061
600 0.000067
601 0.000066
602 0.000056
603 0.000064
604 0.000095
605 0.000108
606 0.000110
607 0.000101
608 0.000088
609 0.000095
610 0.000123
611 0.000140
612 0.000156
613 0.000160
614 0.000164
615 0.000146
616 0.000108
617 0.000087
618 0.000076
619 0.000055
620 0.000056
621 0.000061
622 0.000055
623 0.000058
624 0.000065
625 0.000051
626 0.000043
627 0.000046
628 0.000043
629 0.000021
630 0.000005
631 -0.000006
632 -0.000008
633 -0.000014
634 -0.000013
635 -0.000014
636 0.000003
637 0.000006
638 -0.000003
639 0.000015
640 0.000030
641 0.000059
642 0.000049
643 0.000056
644 0.000105
645 0.000140
646 0.000177
647 0.000207
648 0.000222
649 0.000222
650 0.000214
651 0.000201
652 0.000183
653 0.000173
654 0.000182
655 0.000187
656 0.000188
657 0.000185
658 0.000176
659 0.000160
660 0.000136
661 0.000125
662 0.000120
663 0.000110
664 0.000112
665 0.000115
666 0.000119
667 0.000129
668 0.000117
669 0.000098
670 0.000088
671 0.000071
672 0.000071
673 0.000075
674 0.000079
675 0.000077
676 0.000069
677 0.000066
678 0.000073
679 0.000091
680 0.000089
681 0.000078
682 0.000070
683 0.000070
684 0.000080
685 0.000105
686 0.000113
687 0.000123
688 0.000138
689 0.000146
690 0.000133
691 0.000123
692 0.000104
693 0.000084
694 0.000059
695 0.000033
696 0.000027
697 0.000011
698 -0.000017
699 -0.000050
700 -0.000069
701 -0.000088
702 -0.000097
703 -0.000105
704 -0.000133
705 -0.000142
706 -0.000150
707 -0.000162
708 -0.000160
709 -0.000172
710 -0.000189
711 -0.000194
712 -0.000191
713 -0.000178
714 -0.000162
715 -0.000154
716 -0.000162
717 -0.000165
718 -0.000164
719 -0.000155
720 -0.000132
721 -0.000123
722 -0.000118
723 -0.000111
724 -0.000120
725 -0.000112
726 -0.000122
727 -0.000132
728 -0.000130
729 -0.000117
730 -0.000094
731 -0.000083
732 -0.000074
733 -0.000086
734 -0.000094
735 -0.000086
736 -0.000089
737 -0.000083
738 -0.000089
739 -0.000101
740 -0.000110
741 -0.000124
742 -0.000146
743 -0.000150
744 -0.000157
745 -0.000170
746 -0.000161
747 -0.000148
748 -0.000125
749 -0.000101
750 -0.000087
751 -0.000078
752 -0.000082
753 -0.000078
754 -0.000078
755 -0.000073
756 -0.000066
757 -0.000064
758 -0.000046
759 -0.000040
760 -0.000040
761 -0.000038
762 -0.000044
763 -0.000046
764 -0.000048
765 -0.000053
766 -0.000055
767 -0.000040
768 -0.000028
769 -0.000011
770 0.000009
771 0.000008
772 0.000015
773 0.000019
774 0.000001
775 -0.000006
776 -0.000013
777 -0.000017
778 -0.000007
779 0.000003
780 0.000016
781 0.000034
782 0.000045
783 0.000061
784 0.000059
785 0.000059
786 0.000060
787 0.000052
788 0.000051
789 0.000053
790 0.000062
791 0.000079
792 0.000095
793 0.000107
794 0.000114
795 0.000112
796 0.000126
797 0.000128
798 0.000135
799 0.000149
800 0.000147
801 0.000144
802 0.000138
803 0.000142
804 0.000149
805 0.000157
806 0.000159
807 0.000149
808 0.000142
809 0.000130
