# i correlation
1 0.003292
2 0.003024
3 0.002789
4 0.002594
5 0.002467
6 0.002336
7 0.002211
8 0.002085
9 0.001988
10 0.001908
11 0.001803
12 0.001737
13 0.001697
14 0.001625
15 0.001607
16 0.001550
17 0.001487
18 0.001457
19 0.001431
20 0.001426
21 0.001435
22 0.001405
23 0.001373
24 0.001349
25 0.001339
26 0.001360
27 0.001374
28 0.001397
29 0.001407
30 0.001432
31 0.001429
32 0.001421
33 0.001414
34 0.001398
35 0.001432
36 0.001454
37 0.001472
38 0.001458
39 0.001419
40 0.001413
41 0.001414
42 0.001430
43 0.001406
44 0.001350
45 0.001320
46 0.001286
47 0.001276
48 0.001257
49 0.001230
50 0.001209
51 0.001177
52 0.001143
53 0.001136
54 0.001151
55 0.001161
56 0.001192
57 0.001213
58 0.001248
59 0.001291
60 0.001337
61 0.001382
62 0.001402
63 0.001406
64 0.001425
65 0.001423
66 0.001400
67 0.001380
68 0.001398
69 0.001439
70 0.001482
71 0.001518
72 0.001502
73 0.001502
74 0.001480
75 0.001442
76 0.001420
77 0.001403
78 0.001396
79 0.001408
80 0.001420
81 0.001410
82 0.001391
83 0.001355
84 0.001336
85 0.001321
86 0.001309
87 0.001279
88 0.001266
89 0.001230
90 0.001202
91 0.001193
92 0.001169
93 0.001125
94 0.001086
95 0.001039
96 0.001012
97 0.001007
98 0.000986
99 0.000986
100 0.000984
101 0.000994
102 0.001023
103 0.001055
104 0.001080
105 0.001054
106 0.001054
107 0.001044
108 0.001063
109 0.001073
110 0.001077
111 0.001070
112 0.001072
113 0.001081
114 0.001093
115 0.001100
116 0.001113
117 0.001120
118 0.001136
119 0.001159
120 0.001186
121 0.001201
122 0.001193
123 0.001193
124 0.001186
125 0.001178
126 0.001165
127 0.001157
128 0.001144
129 0.001155
130 0.001134
131 0.001091
132 0.001024
133 0.000983
134 0.000933
135 0.000908
136 0.000877
137 0.000868
138 0.000877
139 0.000897
140 0.000922
141 0.000955
142 0.000972
143 0.000976
144 0.000995
145 0.001015
146 0.001036
147 0.001002
148 0.000969
149 0.000960
150 0.000991
151 0.001020
152 0.000997
153 0.000978
154 0.000941
155 0.000922
156 0.000902
157 0.000852
158 0.000827
159 0.000839
160 0.000838
161 0.000817
162 0.000782
163 0.000749
164 0.000728
165 0.000716
166 0.000702
167 0.000691
168 0.000684
169 0.000630
170 0.000569
171 0.000554
172 0.000533
173 0.000555
174 0.000572
175 0.000596
176 0.000602
177 0.000589
178 0.000568
179 0.000529
180 0.000519
181 0.000545
182 0.000601
183 0.000658
184 0.000692
185 0.000694
186 0.000707
187 0.000721
188 0.000742
189 0.000758
190 0.000795
191 0.000821
192 0.000848
193 0.000868
194 0.000887
195 0.000885
196 0.000881
197 0.000865
198 0.000811
199 0.000785
200 0.000796
201 0.000806
202 0.000800
203 0.000792
204 0.000794
205 0.000787
206 0.000775
207 0.000732
208 0.000686
209 0.000637
210 0.000601
211 0.000572
212 0.000559
213 0.000526
214 0.000506
215 0.000478
216 0.000451
217 0.000415
218 0.000369
219 0.000332
220 0.000322
221 0.000310
222 0.000318
223 0.000332
224 0.000369
225 0.000363
226 0.000322
227 0.000298
228 0.000253
229 0.000249
230 0.000251
231 0.000269
232 0.000328
233 0.000363
234 0.000385
235 0.000398
236 0.000416
237 0.000468
238 0.000487
239 0.000533
240 0.000525
241 0.000526
242 0.000535
243 0.000526
244 0.000540
245 0.000554
246 0.000567
247 0.000619
248 0.000641
249 0.000641
250 0.000650
251 0.000620
252 0.000618
253 0.000641
254 0.000666
255 0.000710
256 0.000716
257 0.000696
258 0.000649
259 0.000617
260 0.000597
261 0.000552
262 0.000545
263 0.000533
264 0.000508
265 0.000510
266 0.000520
267 0.000537
268 0.000549
269 0.000560
270 0.000567
271 0.000564
272 0.000532
273 0.000503
274 0.000503
275 0.000545
276 0.000544
277 0.000534
278 0.000505
279 0.000481
280 0.000467
281 0.000483
282 0.000490
283 0.000497
284 0.000490
285 0.000486
286 0.000460
287 0.000419
288 0.000407
289 0.000390
290 0.000371
291 0.000342
292 0.000346
293 0.000350
294 0.000353
295 0.000363
296 0.000364
297 0.000354
298 0.000345
299 0.000300
300 0.000273
301 0.000235
302 0.000226
303 0.000204
304 0.000195
305 0.000212
306 0.000205
307 0.000189
308 0.000178
309 0.000187
310 0.000215
311 0.000225
312 0.000240
313 0.000236
314 0.000241
315 0.000238
316 0.000214
317 0.000223
318 0.000228
319 0.000242
320 0.000270
321 0.000297
322 0.000283
323 0.000300
324 0.000325
325 0.000362
326 0.000416
327 0.000456
328 0.000465
329 0.000450
330 0.000440
331 0.000428
332 0.000422
333 0.000435
334 0.000425
335 0.000438
336 0.000455
337 0.000448
338 0.000417
339 0.000409
340 0.000393
341 0.000377
342 0.000380
343 0.000381
344 0.000361
345 0.000335
346 0.000313
347 0.000315
348 0.000270
349 0.000253
350 0.000255
351 0.000250
352 0.000274
353 0.000292
354 0.000288
355 0.000291
356 0.000291
357 0.000293
358 0.000291
359 0.000307
360 0.000312
361 0.000310
362 0.000331
363 0.000351
364 0.000338
365 0.000322
366 0.000304
367 0.000280
368 0.000293
369 0.000278
370 0.000280
371 0.000290
372 0.000285
373 0.000299
374 0.000312
375 0.000322
376 0.000309
377 0.000313
378 0.000318
379 0.000309
380 0.000315
381 0.000292
382 0.000257
383 0.000265
384 0.000266
385 0.000264
386 0.000239
387 0.000218
388 0.000215
389 0.000222
390 0.000235
391 0.000228
392 0.000247
393 0.000261
394 0.000279
395 0.000302
396 0.000325
397 0.000360
398 0.000427
399 0.000452
400 0.000485
401 0.000502
402 0.000478
403 0.000424
404 0.000386
405 0.000361
406 0.000363
407 0.000349
408 0.000347
409 0.000316
410 0.000309
411 0.000292
412 0.000279
413 0.000279
414 0.000288
415 0.000305
416 0.000312
417 0.000301
418 0.000297
419 0.000271
420 0.000253
421 0.000258
422 0.000246
423 0.000249
424 0.000274
425 0.000300
426 0.000319
427 0.000326
428 0.000336
429 0.000347
430 0.000370
431 0.000411
432 0.000417
433 0.000408
434 0.000413
435 0.000416
436 0.000423
437 0.000448
438 0.000479
439 0.000517
440 0.000535
441 0.000567
442 0.000583
443 0.000605
444 0.000608
445 0.000592
446 0.000575
447 0.000555
448 0.000527
449 0.000509
450 0.000494
451 0.000480
452 0.000451
453 0.000436
454 0.000430
455 0.000418
456 0.000423
457 0.000433
458 0.000431
459 0.000448
460 0.000448
461 0.000460
462 0.000453
463 0.000432
464 0.000402
465 0.000350
466 0.000326
467 0.000308
468 0.000274
469 0.000241
470 0.000226
471 0.000228
472 0.000244
473 0.000224
474 0.000226
475 0.000213
476 0.000217
477 0.000225
478 0.000215
479 0.000204
480 0.000210
481 0.000205
482 0.000216
483 0.000234
484 0.000220
485 0.000225
486 0.000230
487 0.000261
488 0.000273
489 0.000289
490 0.000286
491 0.000274
492 0.000288
493 0.000283
494 0.000290
495 0.000308
496 0.000318
497 0.000338
498 0.000359
499 0.000372
500 0.000396
501 0.000427
502 0.000475
503 0.000514
504 0.000549
505 0.000576
506 0.000578
507 0.000585
508 0.000589
509 0.000604
510 0.000607
511 0.000584
512 0.000550
513 0.000504
514 0.000496
515 0.000493
516 0.000473
517 0.000482
518 0.000504
519 0.000519
520 0.000530
521 0.000543
522 0.000569
523 0.000587
524 0.000604
525 0.000602
526 0.000602
527 0.000617
528 0.000623
529 0.000628
530 0.000655
531 0.000671
532 0.000672
533 0.000676
534 0.000666
535 0.000652
536 0.000651
537 0.000656
538 0.000629
539 0.000624
540 0.000601
541 0.000577
542 0.000559
543 0.000557
544 0.000557
545 0.000570
546 0.000567
547 0.000553
548 0.000538
549 0.000520
550 0.000486
551 0.000477
552 0.000478
553 0.000466
554 0.000436
555 0.000402
556 0.000390
557 0.000384
558 0.000400
559 0.000419
560 0.000439
561 0.000433
562 0.000418
563 0.000407
564 0.000422
565 0.000443
566 0.000476
567 0.000509
568 0.000525
569 0.000538
570 0.000541
571 0.000547
572 0.000539
573 0.000530
574 0.000538
575 0.000542
576 0.000563
577 0.000571
578 0.000560
579 0.000553
580 0.000565
581 0.000571
582 0.000573
583 0.000567
584 0.000565
585 0.000554
586 0.000541
587 0.000510
588 0.000493
589 0.000479
590 0.000458
591 0.000445
592 0.000435
593 0.000422
594 0.000403
595 0.000398
596 0.000384
597 0.000371
598 0.000373
599 0.000363
600 0.000350
601 0.000342
602 0.000360
603 0.000378
604 0.000367
605 0.000355
606 0.000348
607 0.000378
608 0.000390
609 0.000401
610 0.000399
611 0.000371
612 0.000370
613 0.000377
614 0.000396
615 0.000384
616 0.000377
617 0.000370
618 0.000389
619 0.000397
620 0.000411
621 0.000407
622 0.000411
623 0.000393
624 0.000366
625 0.000353
626 0.000327
627 0.000307
628 0.000315
629 0.000320
630 0.000320
631 0.000339
632 0.000340
633 0.000344
634 0.000349
635 0.000352
636 0.000336
637 0.000330
638 0.000336
639 0.000337
640 0.000351
641 0.000343
642 0.000340
643 0.000346
644 0.000362
645 0.000389
646 0.000400
647 0.000414
648 0.000420
649 0.000446
650 0.000478
651 0.000496
652 0.000505
653 0.000496
654 0.000496
655 0.000514
656 0.000516
657 0.000503
658 0.000476
659 0.000443
660 0.000422
661 0.000403
662 0.000384
663 0.000376
664 0.000352
665 0.000338
666 0.000317
667 0.000304
668 0.000317
669 0.000319
670 0.000330
671 0.000314
672 0.000281
673 0.000285
674 0.000280
675 0.000273
676 0.000258
677 0.000252
678 0.000259
679 0.000257
680 0.000260
681 0.000257
682 0.000269
683 0.000293
684 0.000302
685 0.000288
686 0.000271
687 0.000265
688 0.000266
689 0.000256
690 0.000256
691 0.000260
692 0.000263
693 0.000280
694 0.000296
695 0.000306
696 0.000308
697 0.000316
698 0.000337
699 0.000372
700 0.000403
701 0.000407
702 0.000395
703 0.000381
704 0.000385
705 0.000381
706 0.000391
707 0.000385
708 0.000369
709 0.000349
710 0.000336
711 0.000332
712 0.000316
713 0.000289
714 0.000265
715 0.000243
716 0.000238
717 0.000223
718 0.000198
719 0.000203
720 0.000212
721 0.000218
722 0.000221
723 0.000214
724 0.000211
725 0.000225
726 0.000239
727 0.000260
728 0.000248
729 0.000235
730 0.000231
731 0.000220
732 0.000210
733 0.000193
734 0.000180
735 0.000175
736 0.000177
737 0.000186
738 0.000165
739 0.000146
740 0.000131
741 0.000114
742 0.000120
743 0.000119
744 0.000111
745 0.000085
746 0.000045
747 0.000027
748 0.000001
749 -0.000010
750 -0.000042
751 -0.000043
752 -0.000043
753 -0.000021
754 -0.000012
755 -0.000008
756 -0.000007
757 0.000007
758 0.000052
759 0.000089
760 0.000124
761 0.000139
762 0.000149
763 0.000158
764 0.000185
765 0.000190
766 0.000193
767 0.000195
768 0.000201
769 0.000211
770 0.000229
771 0.000254
772 0.000280
773 0.000300
774 0.000312
775 0.000311
776 0.000313
777 0.000319
778 0.000317
779 0.000315
780 0.000317
781 0.000324
782 0.000327
783 0.000322
784 0.000317
785 0.000319
786 0.000319
787 0.000317
788 0.000312
789 0.000312
790 0.000318
791 0.000308
792 0.000308
793 0.000314
794 0.000307
795 0.000305
796 0.000306
797 0.000303
798 0.000300
799 0.000296
800 0.000293
801 0.000290
802 0.000279
803 0.000270
804 0.000256
805 0.000230
806 0.000220
807 0.000219
808 0.000223
809 0.000217
