# i correlation
1 0.002893
2 0.002607
3 0.002377
4 0.002165
5 0.001970
6 0.001823
7 0.001694
8 0.001576
9 0.001488
10 0.001403
11 0.001361
12 0.001298
13 0.001219
14 0.001154
15 0.001092
16 0.001055
17 0.001027
18 0.000992
19 0.000996
20 0.001025
21 0.001007
22 0.000975
23 0.000941
24 0.000899
25 0.000888
26 0.000890
27 0.000909
28 0.000941
29 0.000979
30 0.001049
31 0.001078
32 0.001088
33 0.001092
34 0.001119
35 0.001150
36 0.001197
37 0.001201
38 0.001166
39 0.001137
40 0.001135
41 0.001141
42 0.001148
43 0.001104
44 0.001062
45 0.001038
46 0.001013
47 0.000964
48 0.000938
49 0.000929
50 0.000910
51 0.000902
52 0.000928
53 0.000954
54 0.000965
55 0.000993
56 0.001000
57 0.000989
58 0.000973
59 0.000950
60 0.000948
61 0.000952
62 0.000977
63 0.000994
64 0.001000
65 0.000994
66 0.001023
67 0.001044
68 0.001053
69 0.001038
70 0.001017
71 0.001042
72 0.001058
73 0.001071
74 0.001035
75 0.001035
76 0.001035
77 0.001051
78 0.001021
79 0.001006
80 0.000978
81 0.000949
82 0.000933
83 0.000901
84 0.000878
85 0.000845
86 0.000813
87 0.000775
88 0.000751
89 0.000754
90 0.000717
91 0.000707
92 0.000700
93 0.000690
94 0.000683
95 0.000676
96 0.000706
97 0.000725
98 0.000748
99 0.000745
100 0.000748
101 0.000743
102 0.000747
103 0.000773
104 0.000786
105 0.000792
106 0.000772
107 0.000816
108 0.000868
109 0.000943
110 0.000956
111 0.000990
112 0.001037
113 0.001059
114 0.001075
115 0.001040
116 0.001010
117 0.000999
118 0.000997
119 0.000990
120 0.000986
121 0.000957
122 0.000942
123 0.000928
124 0.000928
125 0.000914
126 0.000908
127 0.000885
128 0.000859
129 0.000869
130 0.000860
131 0.000872
132 0.000880
133 0.000907
134 0.000886
135 0.000870
136 0.000807
137 0.000769
138 0.000726
139 0.000703
140 0.000638
141 0.000580
142 0.000498
143 0.000464
144 0.000450
145 0.000446
146 0.000480
147 0.000517
148 0.000545
149 0.000613
150 0.000661
151 0.000652
152 0.000678
153 0.000692
154 0.000679
155 0.000682
156 0.000679
157 0.000655
158 0.000639
159 0.000621
160 0.000602
161 0.000586
162 0.000588
163 0.000582
164 0.000637
165 0.000655
166 0.000661
167 0.000649
168 0.000676
169 0.000705
170 0.000687
171 0.000685
172 0.000651
173 0.000656
174 0.000668
175 0.000706
176 0.000720
177 0.000742
178 0.000713
179 0.000690
180 0.000705
181 0.000729
182 0.000747
183 0.000738
184 0.000746
185 0.000769
186 0.000798
187 0.000809
188 0.000822
189 0.000843
190 0.000867
191 0.000872
192 0.000875
193 0.000896
194 0.000929
195 0.000942
196 0.000939
197 0.000908
198 0.000858
199 0.000811
200 0.000738
201 0.000685
202 0.000589
203 0.000532
204 0.000488
205 0.000460
206 0.000461
207 0.000443
208 0.000432
209 0.000394
210 0.000413
211 0.000393
212 0.000376
213 0.000344
214 0.000327
215 0.000293
216 0.000301
217 0.000324
218 0.000356
219 0.000372
220 0.000423
221 0.000489
222 0.000531
223 0.000554
224 0.000559
225 0.000591
226 0.000626
227 0.000650
228 0.000648
229 0.000658
230 0.000693
231 0.000722
232 0.000730
233 0.000729
234 0.000731
235 0.000721
236 0.000720
237 0.000715
238 0.000718
239 0.000706
240 0.000658
241 0.000646
242 0.000627
243 0.000602
244 0.000578
245 0.000529
246 0.000471
247 0.000410
248 0.000365
249 0.000308
250 0.000308
251 0.000279
252 0.000263
253 0.000250
254 0.000206
255 0.000159
256 0.000148
257 0.000165
258 0.000204
259 0.000219
260 0.000227
261 0.000287
262 0.000340
263 0.000369
264 0.000387
265 0.000353
266 0.000322
267 0.000285
268 0.000229
269 0.000186
270 0.000131
271 0.000065
272 0.000056
273 0.000058
274 0.000061
275 0.000060
276 0.000065
277 0.000049
278 0.000096
279 0.000131
280 0.000163
281 0.000197
282 0.000208
283 0.000188
284 0.000194
285 0.000203
286 0.000210
287 0.000207
288 0.000218
289 0.000238
290 0.000213
291 0.000177
292 0.000161
293 0.000163
294 0.000178
295 0.000196
296 0.000184
297 0.000186
298 0.000189
299 0.000229
300 0.000250
301 0.000264
302 0.000255
303 0.000268
304 0.000253
305 0.000249
306 0.000279
307 0.000295
308 0.000328
309 0.000339
310 0.000349
311 0.000346
312 0.000329
313 0.000298
314 0.000303
315 0.000328
316 0.000346
317 0.000361
318 0.000364
319 0.000386
320 0.000384
321 0.000379
322 0.000336
323 0.000321
324 0.000285
325 0.000237
326 0.000158
327 0.000133
328 0.000117
329 0.000098
330 0.000127
331 0.000123
332 0.000099
333 0.000083
334 0.000103
335 0.000112
336 0.000120
337 0.000115
338 0.000105
339 0.000115
340 0.000132
341 0.000140
342 0.000154
343 0.000197
344 0.000195
345 0.000210
346 0.000233
347 0.000250
348 0.000235
349 0.000234
350 0.000255
351 0.000275
352 0.000277
353 0.000316
354 0.000346
355 0.000363
356 0.000376
357 0.000402
358 0.000423
359 0.000440
360 0.000423
361 0.000416
362 0.000376
363 0.000363
364 0.000359
365 0.000346
366 0.000333
367 0.000319
368 0.000291
369 0.000282
370 0.000333
371 0.000351
372 0.000388
373 0.000396
374 0.000413
375 0.000416
376 0.000444
377 0.000453
378 0.000457
379 0.000448
380 0.000439
381 0.000420
382 0.000371
383 0.000337
384 0.000300
385 0.000283
386 0.000263
387 0.000253
388 0.000246
389 0.000251
390 0.000276
391 0.000316
392 0.000328
393 0.000329
394 0.000344
395 0.000347
396 0.000363
397 0.000363
398 0.000361
399 0.000367
400 0.000376
401 0.000359
402 0.000347
403 0.000338
404 0.000312
405 0.000288
406 0.000271
407 0.000287
408 0.000310
409 0.000339
410 0.000372
411 0.000428
412 0.000472
413 0.000529
414 0.000576
415 0.000586
416 0.000598
417 0.000624
418 0.000659
419 0.000688
420 0.000694
421 0.000679
422 0.000665
423 0.000611
424 0.000573
425 0.000552
426 0.000544
427 0.000549
428 0.000562
429 0.000542
430 0.000540
431 0.000523
432 0.000531
433 0.000534
434 0.000503
435 0.000454
436 0.000421
437 0.000384
438 0.000372
439 0.000356
440 0.000340
441 0.000322
442 0.000291
443 0.000281
444 0.000281
445 0.000255
446 0.000210
447 0.000206
448 0.000188
449 0.000193
450 0.000189
451 0.000170
452 0.000184
453 0.000213
454 0.000248
455 0.000296
456 0.000356
457 0.000395
458 0.000413
459 0.000421
460 0.000431
461 0.000424
462 0.000391
463 0.000392
464 0.000377
465 0.000350
466 0.000344
467 0.000363
468 0.000377
469 0.000386
470 0.000397
471 0.000372
472 0.000371
473 0.000363
474 0.000379
475 0.000398
476 0.000419
477 0.000442
478 0.000426
479 0.000416
480 0.000408
481 0.000392
482 0.000361
483 0.000336
484 0.000340
485 0.000358
486 0.000370
487 0.000369
488 0.000386
489 0.000417
490 0.000431
491 0.000422
492 0.000440
493 0.000443
494 0.000439
495 0.000430
496 0.000437
497 0.000433
498 0.000441
499 0.000446
500 0.000448
501 0.000412
502 0.000397
503 0.000379
504 0.000349
505 0.000349
506 0.000352
507 0.000365
508 0.000356
509 0.000387
510 0.000410
511 0.000435
512 0.000430
513 0.000407
514 0.000377
515 0.000339
516 0.000309
517 0.000277
518 0.000251
519 0.000251
520 0.000257
521 0.000252
522 0.000260
523 0.000275
524 0.000253
525 0.000239
526 0.000237
527 0.000244
528 0.000282
529 0.000330
530 0.000381
531 0.000423
532 0.000438
533 0.000449
534 0.000448
535 0.000433
536 0.000425
537 0.000427
538 0.000424
539 0.000419
540 0.000457
541 0.000483
542 0.000498
543 0.000511
544 0.000520
545 0.000541
546 0.000556
547 0.000575
548 0.000584
549 0.000582
550 0.000577
551 0.000570
552 0.000570
553 0.000556
554 0.000525
555 0.000492
556 0.000457
557 0.000443
558 0.000431
559 0.000425
560 0.000430
561 0.000447
562 0.000429
563 0.000416
564 0.000415
565 0.000427
566 0.000422
567 0.000437
568 0.000460
569 0.000477
570 0.000470
571 0.000470
572 0.000448
573 0.000432
574 0.000424
575 0.000443
576 0.000458
577 0.000469
578 0.000475
579 0.000477
580 0.000476
581 0.000477
582 0.000501
583 0.000480
584 0.000477
585 0.000460
586 0.000450
587 0.000428
588 0.000422
589 0.000419
590 0.000424
591 0.000439
592 0.000439
593 0.000456
594 0.000474
595 0.000487
596 0.000502
597 0.000526
598 0.000511
599 0.000489
600 0.000461
601 0.000455
602 0.000457
603 0.000463
604 0.000463
605 0.000470
606 0.000477
607 0.000497
608 0.000519
609 0.000550
610 0.000560
611 0.000574
612 0.000588
613 0.000589
614 0.000592
615 0.000584
616 0.000572
617 0.000563
618 0.000560
619 0.000541
620 0.000508
621 0.000464
622 0.000433
623 0.000418
624 0.000425
625 0.000431
626 0.000426
627 0.000420
628 0.000420
629 0.000408
630 0.000385
631 0.000389
632 0.000396
633 0.000397
634 0.000411
635 0.000419
636 0.000425
637 0.000427
638 0.000443
639 0.000460
640 0.000458
641 0.000450
642 0.000452
643 0.000450
644 0.000448
645 0.000444
646 0.000428
647 0.000392
648 0.000371
649 0.000347
650 0.000329
651 0.000298
652 0.000276
653 0.000268
654 0.000288
655 0.000303
656 0.000310
657 0.000303
658 0.000297
659 0.000298
660 0.000290
661 0.000288
662 0.000294
663 0.000293
664 0.000315
665 0.000319
666 0.000329
667 0.000329
668 0.000322
669 0.000304
670 0.000308
671 0.000317
672 0.000295
673 0.000279
674 0.000268
675 0.000264
676 0.000261
677 0.000257
678 0.000258
679 0.000242
680 0.000248
681 0.000242
682 0.000232
683 0.000228
684 0.000223
685 0.000209
686 0.000197
687 0.000182
688 0.000172
689 0.000156
690 0.000144
691 0.000151
692 0.000133
693 0.000121
694 0.000130
695 0.000131
696 0.000142
697 0.000158
698 0.000160
699 0.000164
700 0.000182
701 0.000184
702 0.000193
703 0.000171
704 0.000161
705 0.000162
706 0.000167
707 0.000163
708 0.000173
709 0.000168
710 0.000171
711 0.000180
712 0.000163
713 0.000161
714 0.000151
715 0.000142
716 0.000148
717 0.000181
718 0.000193
719 0.000205
720 0.000210
721 0.000201
722 0.000195
723 0.000189
724 0.000173
725 0.000163
726 0.000151
727 0.000163
728 0.000178
729 0.000204
730 0.000222
731 0.000230
732 0.000236
733 0.000245
734 0.000258
735 0.000251
736 0.000249
737 0.000253
738 0.000264
739 0.000261
740 0.000255
741 0.000268
742 0.000275
743 0.000287
744 0.000289
745 0.000293
746 0.000293
747 0.000286
748 0.000287
749 0.000284
750 0.000284
751 0.000263
752 0.000246
753 0.000245
754 0.000219
755 0.000209
756 0.000190
757 0.000176
758 0.000161
759 0.000144
760 0.000123
761 0.000102
762 0.000092
763 0.000084
764 0.000083
765 0.000083
766 0.000076
767 0.000084
768 0.000093
769 0.000104
770 0.000118
771 0.000132
772 0.000152
773 0.000179
774 0.000197
775 0.000222
776 0.000238
777 0.000241
778 0.000238
779 0.000233
780 0.000228
781 0.000224
782 0.000217
783 0.000216
784 0.000212
785 0.000200
786 0.000184
787 0.000169
788 0.000156
789 0.000145
790 0.000149
791 0.000155
792 0.000149
793 0.000136
794 0.000125
795 0.000117
796 0.000105
797 0.000095
798 0.000088
799 0.000082
800 0.000078
801 0.000082
802 0.000080
803 0.000093
804 0.000098
805 0.000113
806 0.000121
807 0.000128
808 0.000137
809 0.000142
