# i correlation
1 0.003072
2 0.002747
3 0.002469
4 0.002238
5 0.002047
6 0.001925
7 0.001809
8 0.001707
9 0.001622
10 0.001530
11 0.001453
12 0.001383
13 0.001317
14 0.001286
15 0.001271
16 0.001249
17 0.001229
18 0.001205
19 0.001163
20 0.001135
21 0.001125
22 0.001119
23 0.001144
24 0.001150
25 0.001162
26 0.001149
27 0.001123
28 0.001110
29 0.001092
30 0.001020
31 0.000969
32 0.000926
33 0.000887
34 0.000835
35 0.000819
36 0.000834
37 0.000844
38 0.000856
39 0.000879
40 0.000886
41 0.000898
42 0.000886
43 0.000872
44 0.000892
45 0.000893
46 0.000899
47 0.000932
48 0.000959
49 0.000943
50 0.000939
51 0.000927
52 0.000932
53 0.000949
54 0.000979
55 0.001022
56 0.001055
57 0.001055
58 0.001030
59 0.001044
60 0.001031
61 0.001031
62 0.001035
63 0.001041
64 0.001050
65 0.001069
66 0.001041
67 0.001001
68 0.000983
69 0.000991
70 0.000982
71 0.000999
72 0.001004
73 0.001027
74 0.001015
75 0.001012
76 0.001023
77 0.001005
78 0.000978
79 0.000935
80 0.000891
81 0.000830
82 0.000794
83 0.000817
84 0.000852
85 0.000870
86 0.000874
87 0.000859
88 0.000841
89 0.000786
90 0.000713
91 0.000681
92 0.000652
93 0.000675
94 0.000728
95 0.000757
96 0.000757
97 0.000758
98 0.000751
99 0.000693
100 0.000656
101 0.000630
102 0.000599
103 0.000577
104 0.000533
105 0.000451
106 0.000387
107 0.000323
108 0.000264
109 0.000253
110 0.000265
111 0.000265
112 0.000336
113 0.000387
114 0.000446
115 0.000521
116 0.000592
117 0.000645
118 0.000682
119 0.000702
120 0.000702
121 0.000704
122 0.000702
123 0.000701
124 0.000750
125 0.000793
126 0.000805
127 0.000814
128 0.000834
129 0.000841
130 0.000863
131 0.000872
132 0.000874
133 0.000862
134 0.000854
135 0.000856
136 0.000878
137 0.000882
138 0.000900
139 0.000913
140 0.000899
141 0.000880
142 0.000869
143 0.000861
144 0.000832
145 0.000823
146 0.000769
147 0.000739
148 0.000727
149 0.000687
150 0.000621
151 0.000541
152 0.000503
153 0.000485
154 0.000483
155 0.000452
156 0.000441
157 0.000447
158 0.000436
159 0.000435
160 0.000429
161 0.000394
162 0.000397
163 0.000403
164 0.000410
165 0.000379
166 0.000350
167 0.000315
168 0.000278
169 0.000276
170 0.000277
171 0.000308
172 0.000355
173 0.000384
174 0.000397
175 0.000348
176 0.000316
177 0.000296
178 0.000297
179 0.000289
180 0.000305
181 0.000359
182 0.000382
183 0.000394
184 0.000389
185 0.000391
186 0.000385
187 0.000419
188 0.000446
189 0.000484
190 0.000492
191 0.000472
192 0.000486
193 0.000508
194 0.000521
195 0.000552
196 0.000521
197 0.000521
198 0.000531
199 0.000554
200 0.000595
201 0.000666
202 0.000705
203 0.000725
204 0.000717
205 0.000695
206 0.000666
207 0.000653
208 0.000649
209 0.000674
210 0.000727
211 0.000763
212 0.000807
213 0.000830
214 0.000806
215 0.000781
216 0.000744
217 0.000712
218 0.000725
219 0.000750
220 0.000739
221 0.000721
222 0.000704
223 0.000696
224 0.000674
225 0.000658
226 0.000672
227 0.000655
228 0.000657
229 0.000671
230 0.000681
231 0.000669
232 0.000658
233 0.000648
234 0.000657
235 0.000666
236 0.000672
237 0.000672
238 0.000655
239 0.000620
240 0.000604
241 0.000601
242 0.000628
243 0.000664
244 0.000656
245 0.000661
246 0.000666
247 0.000656
248 0.000664
249 0.000700
250 0.000733
251 0.000735
252 0.000752
253 0.000742
254 0.000739
255 0.000757
256 0.000776
257 0.000820
258 0.000864
259 0.000893
260 0.000929
261 0.000940
262 0.000888
263 0.000850
264 0.000803
265 0.000770
266 0.000771
267 0.000796
268 0.000838
269 0.000847
270 0.000812
271 0.000789
272 0.000789
273 0.000800
274 0.000816
275 0.000829
276 0.000825
277 0.000847
278 0.000872
279 0.000865
280 0.000815
281 0.000797
282 0.000804
283 0.000843
284 0.000867
285 0.000853
286 0.000846
287 0.000815
288 0.000800
289 0.000797
290 0.000804
291 0.000787
292 0.000772
293 0.000742
294 0.000697
295 0.000656
296 0.000648
297 0.000661
298 0.000667
299 0.000664
300 0.000635
301 0.000598
302 0.000566
303 0.000541
304 0.000542
305 0.000539
306 0.000571
307 0.000628
308 0.000651
309 0.000645
310 0.000630
311 0.000628
312 0.000624
313 0.000633
314 0.000624
315 0.000578
316 0.000558
317 0.000542
318 0.000513
319 0.000513
320 0.000517
321 0.000531
322 0.000542
323 0.000538
324 0.000526
325 0.000539
326 0.000561
327 0.000574
328 0.000600
329 0.000649
330 0.000713
331 0.000755
332 0.000796
333 0.000816
334 0.000813
335 0.000798
336 0.000735
337 0.000701
338 0.000695
339 0.000700
340 0.000705
341 0.000706
342 0.000671
343 0.000670
344 0.000672
345 0.000682
346 0.000699
347 0.000719
348 0.000700
349 0.000682
350 0.000658
351 0.000656
352 0.000631
353 0.000608
354 0.000612
355 0.000646
356 0.000657
357 0.000671
358 0.000653
359 0.000640
360 0.000587
361 0.000576
362 0.000565
363 0.000536
364 0.000516
365 0.000513
366 0.000527
367 0.000558
368 0.000580
369 0.000566
370 0.000567
371 0.000576
372 0.000585
373 0.000570
374 0.000562
375 0.000556
376 0.000540
377 0.000500
378 0.000451
379 0.000403
380 0.000338
381 0.000278
382 0.000281
383 0.000286
384 0.000286
385 0.000305
386 0.000338
387 0.000365
388 0.000376
389 0.000379
390 0.000383
391 0.000378
392 0.000375
393 0.000387
394 0.000402
395 0.000427
396 0.000447
397 0.000443
398 0.000434
399 0.000449
400 0.000447
401 0.000426
402 0.000435
403 0.000423
404 0.000413
405 0.000406
406 0.000385
407 0.000386
408 0.000392
409 0.000375
410 0.000345
411 0.000325
412 0.000300
413 0.000273
414 0.000253
415 0.000213
416 0.000223
417 0.000209
418 0.000208
419 0.000184
420 0.000160
421 0.000141
422 0.000161
423 0.000195
424 0.000241
425 0.000276
426 0.000325
427 0.000350
428 0.000361
429 0.000354
430 0.000366
431 0.000399
432 0.000429
433 0.000421
434 0.000382
435 0.000347
436 0.000273
437 0.000224
438 0.000185
439 0.000131
440 0.000073
441 0.000045
442 0.000033
443 0.000018
444 0.000007
445 0.000016
446 0.000020
447 0.000042
448 0.000031
449 0.000035
450 0.000050
451 0.000071
452 0.000090
453 0.000112
454 0.000103
455 0.000125
456 0.000170
457 0.000181
458 0.000199
459 0.000229
460 0.000263
461 0.000292
462 0.000316
463 0.000324
464 0.000314
465 0.000286
466 0.000260
467 0.000239
468 0.000233
469 0.000226
470 0.000249
471 0.000300
472 0.000324
473 0.000331
474 0.000312
475 0.000297
476 0.000285
477 0.000264
478 0.000283
479 0.000292
480 0.000299
481 0.000297
482 0.000304
483 0.000301
484 0.000319
485 0.000332
486 0.000354
487 0.000393
488 0.000427
489 0.000461
490 0.000473
491 0.000465
492 0.000447
493 0.000435
494 0.000428
495 0.000418
496 0.000415
497 0.000410
498 0.000385
499 0.000358
500 0.000327
501 0.000320
502 0.000323
503 0.000340
504 0.000365
505 0.000355
506 0.000362
507 0.000360
508 0.000355
509 0.000369
510 0.000374
511 0.000411
512 0.000427
513 0.000426
514 0.000419
515 0.000418
516 0.000415
517 0.000404
518 0.000393
519 0.000408
520 0.000420
521 0.000420
522 0.000427
523 0.000434
524 0.000452
525 0.000459
526 0.000473
527 0.000495
528 0.000516
529 0.000518
530 0.000507
531 0.000501
532 0.000510
533 0.000508
534 0.000523
535 0.000557
536 0.000592
537 0.000588
538 0.000583
539 0.000569
540 0.000560
541 0.000548
542 0.000554
543 0.000559
544 0.000578
545 0.000579
546 0.000572
547 0.000552
548 0.000537
549 0.000514
550 0.000521
551 0.000501
552 0.000471
553 0.000454
554 0.000423
555 0.000394
556 0.000402
557 0.000403
558 0.000394
559 0.000400
560 0.000411
561 0.000412
562 0.000415
563 0.000405
564 0.000392
565 0.000390
566 0.000398
567 0.000414
568 0.000420
569 0.000421
570 0.000393
571 0.000367
572 0.000341
573 0.000330
574 0.000341
575 0.000367
576 0.000391
577 0.000419
578 0.000428
579 0.000422
580 0.000437
581 0.000453
582 0.000472
583 0.000460
584 0.000450
585 0.000460
586 0.000458
587 0.000461
588 0.000469
589 0.000498
590 0.000553
591 0.000611
592 0.000668
593 0.000669
594 0.000664
595 0.000656
596 0.000622
597 0.000619
598 0.000601
599 0.000574
600 0.000575
601 0.000578
602 0.000558
603 0.000528
604 0.000528
605 0.000535
606 0.000537
607 0.000536
608 0.000526
609 0.000505
610 0.000490
611 0.000490
612 0.000494
613 0.000473
614 0.000452
615 0.000440
616 0.000430
617 0.000427
618 0.000428
619 0.000457
620 0.000479
621 0.000513
622 0.000520
623 0.000524
624 0.000507
625 0.000507
626 0.000504
627 0.000499
628 0.000482
629 0.000482
630 0.000472
631 0.000449
632 0.000418
633 0.000404
634 0.000399
635 0.000380
636 0.000364
637 0.000363
638 0.000366
639 0.000368
640 0.000373
641 0.000367
642 0.000357
643 0.000345
644 0.000351
645 0.000362
646 0.000353
647 0.000340
648 0.000323
649 0.000279
650 0.000252
651 0.000245
652 0.000235
653 0.000227
654 0.000241
655 0.000226
656 0.000215
657 0.000201
658 0.000192
659 0.000193
660 0.000221
661 0.000250
662 0.000272
663 0.000312
664 0.000331
665 0.000349
666 0.000369
667 0.000369
668 0.000378
669 0.000384
670 0.000392
671 0.000396
672 0.000381
673 0.000382
674 0.000357
675 0.000353
676 0.000351
677 0.000360
678 0.000345
679 0.000347
680 0.000353
681 0.000361
682 0.000362
683 0.000347
684 0.000348
685 0.000341
686 0.000355
687 0.000336
688 0.000323
689 0.000307
690 0.000297
691 0.000277
692 0.000259
693 0.000223
694 0.000195
695 0.000182
696 0.000181
697 0.000171
698 0.000155
699 0.000133
700 0.000109
701 0.000072
702 0.000054
703 0.000030
704 0.000015
705 0.000012
706 0.000032
707 0.000032
708 0.000037
709 0.000061
710 0.000069
711 0.000049
712 0.000045
713 0.000060
714 0.000085
715 0.000112
716 0.000148
717 0.000183
718 0.000216
719 0.000238
720 0.000270
721 0.000301
722 0.000333
723 0.000359
724 0.000372
725 0.000381
726 0.000352
727 0.000326
728 0.000293
729 0.000279
730 0.000260
731 0.000247
732 0.000227
733 0.000211
734 0.000206
735 0.000208
736 0.000206
737 0.000199
738 0.000203
739 0.000223
740 0.000232
741 0.000241
742 0.000241
743 0.000245
744 0.000232
745 0.000236
746 0.000231
747 0.000229
748 0.000214
749 0.000203
750 0.000206
751 0.000199
752 0.000172
753 0.000154
754 0.000147
755 0.000126
756 0.000115
757 0.000125
758 0.000125
759 0.000132
760 0.000132
761 0.000145
762 0.000161
763 0.000176
764 0.000208
765 0.000229
766 0.000243
767 0.000248
768 0.000254
769 0.000257
770 0.000248
771 0.000231
772 0.000216
773 0.000187
774 0.000150
775 0.000126
776 0.000092
777 0.000061
778 0.000021
779 0.000016
780 0.000006
781 -0.000004
782 -0.000013
783 -0.000010
784 -0.000006
785 0.000007
786 0.000024
787 0.000027
788 0.000034
789 0.000043
790 0.000054
791 0.000055
792 0.000075
793 0.000088
794 0.000101
795 0.000099
796 0.000096
797 0.000084
798 0.000077
799 0.000070
800 0.000081
801 0.000097
802 0.000104
803 0.000115
804 0.000113
805 0.000095
806 0.000070
807 0.000047
808 0.000041
809 0.000039
