# i correlation
1 0.004402
2 0.004161
3 0.003962
4 0.003789
5 0.003645
6 0.003505
7 0.003366
8 0.003270
9 0.003157
10 0.003063
11 0.002986
12 0.002910
13 0.002835
14 0.002804
15 0.002750
16 0.002713
17 0.002699
18 0.002692
19 0.002662
20 0.002621
21 0.002586
22 0.002592
23 0.002564
24 0.002572
25 0.002541
26 0.002512
27 0.002455
28 0.002439
29 0.002422
30 0.002441
31 0.002500
32 0.002500
33 0.002499
34 0.002499
35 0.002466
36 0.002420
37 0.002379
38 0.002338
39 0.002295
40 0.002271
41 0.002231
42 0.002207
43 0.002212
44 0.002177
45 0.002165
46 0.002184
47 0.002172
48 0.002190
49 0.002205
50 0.002205
51 0.002204
52 0.002168
53 0.002124
54 0.002106
55 0.002057
56 0.001967
57 0.001962
58 0.001952
59 0.001943
60 0.001955
61 0.001953
62 0.001995
63 0.002031
64 0.002044
65 0.002059
66 0.002061
67 0.002084
68 0.002092
69 0.002066
70 0.002058
71 0.002063
72 0.002084
73 0.002074
74 0.002047
75 0.002024
76 0.002023
77 0.002002
78 0.001970
79 0.001951
80 0.001942
81 0.001920
82 0.001922
83 0.001926
84 0.001921
85 0.001935
86 0.001959
87 0.001957
88 0.001980
89 0.001994
90 0.001987
91 0.001957
92 0.001925
93 0.001910
94 0.001919
95 0.001934
96 0.001922
97 0.001942
98 0.001966
99 0.001950
100 0.001926
101 0.001861
102 0.001839
103 0.001845
104 0.001863
105 0.001861
106 0.001839
107 0.001833
108 0.001851
109 0.001832
110 0.001821
111 0.001823
112 0.001840
113 0.001869
114 0.001914
115 0.001935
116 0.001961
117 0.001972
118 0.001994
119 0.002025
120 0.002051
121 0.002046
122 0.002061
123 0.002038
124 0.002017
125 0.001999
126 0.002007
127 0.001997
128 0.001983
129 0.001984
130 0.002002
131 0.002017
132 0.002021
133 0.002031
134 0.002058
135 0.002075
136 0.002122
137 0.002173
138 0.002223
139 0.002270
140 0.002269
141 0.002219
142 0.002169
143 0.002117
144 0.002069
145 0.002049
146 0.002018
147 0.002004
148 0.001997
149 0.001975
150 0.001936
151 0.001913
152 0.001892
153 0.001899
154 0.001909
155 0.001887
156 0.001861
157 0.001865
158 0.001845
159 0.001812
160 0.001807
161 0.001804
162 0.001809
163 0.001766
164 0.001726
165 0.001706
166 0.001679
167 0.001663
168 0.001636
169 0.001629
170 0.001650
171 0.001664
172 0.001669
173 0.001680
174 0.001623
175 0.001586
176 0.001566
177 0.001564
178 0.001567
179 0.001560
180 0.001569
181 0.001574
182 0.001593
183 0.001607
184 0.001640
185 0.001676
186 0.001711
187 0.001739
188 0.001792
189 0.001816
190 0.001814
191 0.001808
192 0.001776
193 0.001742
194 0.001708
195 0.001663
196 0.001637
197 0.001615
198 0.001607
199 0.001595
200 0.001564
201 0.001527
202 0.001541
203 0.001551
204 0.001551
205 0.001549
206 0.001567
207 0.001563
208 0.001574
209 0.001577
210 0.001571
211 0.001580
212 0.001555
213 0.001551
214 0.001552
215 0.001522
216 0.001517
217 0.001513
218 0.001502
219 0.001491
220 0.001477
221 0.001477
222 0.001455
223 0.001429
224 0.001447
225 0.001446
226 0.001416
227 0.001393
228 0.001363
229 0.001335
230 0.001327
231 0.001306
232 0.001306
233 0.001316
234 0.001323
235 0.001340
236 0.001368
237 0.001392
238 0.001408
239 0.001400
240 0.001403
241 0.001381
242 0.001369
243 0.001367
244 0.001347
245 0.001313
246 0.001278
247 0.001241
248 0.001228
249 0.001225
250 0.001207
251 0.001207
252 0.001218
253 0.001212
254 0.001196
255 0.001174
256 0.001159
257 0.001157
258 0.001138
259 0.001160
260 0.001211
261 0.001212
262 0.001185
263 0.001114
264 0.001098
265 0.001103
266 0.001103
267 0.001120
268 0.001150
269 0.001157
270 0.001154
271 0.001132
272 0.001112
273 0.001112
274 0.001112
275 0.001112
276 0.001151
277 0.001179
278 0.001236
279 0.001277
280 0.001275
281 0.001275
282 0.001244
283 0.001210
284 0.001197
285 0.001157
286 0.001144
287 0.001127
288 0.001095
289 0.001051
290 0.001007
291 0.000985
292 0.000965
293 0.000954
294 0.000944
295 0.000922
296 0.000887
297 0.000886
298 0.000897
299 0.000898
300 0.000920
301 0.000933
302 0.000969
303 0.001003
304 0.001024
305 0.001006
306 0.000990
307 0.000996
308 0.000996
309 0.001013
310 0.001062
311 0.001119
312 0.001159
313 0.001171
314 0.001171
315 0.001190
316 0.001204
317 0.001196
318 0.001189
319 0.001184
320 0.001165
321 0.001156
322 0.001159
323 0.001116
324 0.001099
325 0.001084
326 0.001062
327 0.001075
328 0.001062
329 0.001068
330 0.001054
331 0.001047
332 0.001046
333 0.001063
334 0.001053
335 0.001065
336 0.001047
337 0.001043
338 0.001032
339 0.001030
340 0.001021
341 0.001021
342 0.001016
343 0.001024
344 0.001047
345 0.001071
346 0.001103
347 0.001118
348 0.001139
349 0.001151
350 0.001158
351 0.001171
352 0.001174
353 0.001186
354 0.001169
355 0.001188
356 0.001198
357 0.001210
358 0.001226
359 0.001235
360 0.001208
361 0.001170
362 0.001124
363 0.001088
364 0.001081
365 0.001080
366 0.001062
367 0.001054
368 0.001035
369 0.001031
370 0.001043
371 0.001052
372 0.001035
373 0.001029
374 0.001030
375 0.001045
376 0.001074
377 0.001080
378 0.001072
379 0.001099
380 0.001076
381 0.001076
382 0.001051
383 0.001030
384 0.001006
385 0.000958
386 0.000927
387 0.000908
388 0.000860
389 0.000835
390 0.000830
391 0.000810
392 0.000815
393 0.000829
394 0.000827
395 0.000814
396 0.000796
397 0.000822
398 0.000843
399 0.000854
400 0.000815
401 0.000783
402 0.000735
403 0.000683
404 0.000650
405 0.000639
406 0.000626
407 0.000659
408 0.000647
409 0.000628
410 0.000628
411 0.000597
412 0.000556
413 0.000551
414 0.000534
415 0.000526
416 0.000529
417 0.000536
418 0.000560
419 0.000592
420 0.000607
421 0.000640
422 0.000666
423 0.000679
424 0.000716
425 0.000736
426 0.000760
427 0.000787
428 0.000821
429 0.000856
430 0.000895
431 0.000943
432 0.000983
433 0.001009
434 0.001008
435 0.000998
436 0.000972
437 0.000954
438 0.000955
439 0.000936
440 0.000902
441 0.000917
442 0.000937
443 0.000937
444 0.000936
445 0.000921
446 0.000923
447 0.000917
448 0.000902
449 0.000902
450 0.000901
451 0.000904
452 0.000922
453 0.000928
454 0.000910
455 0.000890
456 0.000889
457 0.000889
458 0.000902
459 0.000916
460 0.000918
461 0.000907
462 0.000881
463 0.000866
464 0.000869
465 0.000887
466 0.000900
467 0.000919
468 0.000918
469 0.000915
470 0.000906
471 0.000901
472 0.000875
473 0.000855
474 0.000818
475 0.000796
476 0.000792
477 0.000782
478 0.000767
479 0.000750
480 0.000716
481 0.000683
482 0.000657
483 0.000650
484 0.000657
485 0.000648
486 0.000625
487 0.000602
488 0.000567
489 0.000558
490 0.000549
491 0.000543
492 0.000532
493 0.000524
494 0.000512
495 0.000523
496 0.000534
497 0.000567
498 0.000574
499 0.000574
500 0.000571
501 0.000591
502 0.000587
503 0.000587
504 0.000591
505 0.000582
506 0.000560
507 0.000552
508 0.000539
509 0.000531
510 0.000535
511 0.000544
512 0.000526
513 0.000525
514 0.000532
515 0.000546
516 0.000549
517 0.000554
518 0.000569
519 0.000600
520 0.000606
521 0.000634
522 0.000629
523 0.000602
524 0.000574
525 0.000537
526 0.000510
527 0.000479
528 0.000472
529 0.000485
530 0.000487
531 0.000489
532 0.000490
533 0.000495
534 0.000482
535 0.000474
536 0.000478
537 0.000473
538 0.000473
539 0.000440
540 0.000425
541 0.000420
542 0.000396
543 0.000385
544 0.000370
545 0.000341
546 0.000350
547 0.000366
548 0.000385
549 0.000381
550 0.000390
551 0.000396
552 0.000408
553 0.000405
554 0.000419
555 0.000440
556 0.000458
557 0.000471
558 0.000487
559 0.000515
560 0.000513
561 0.000512
562 0.000527
563 0.000532
564 0.000553
565 0.000561
566 0.000564
567 0.000596
568 0.000616
569 0.000637
570 0.000638
571 0.000649
572 0.000661
573 0.000656
574 0.000630
575 0.000615
576 0.000614
577 0.000606
578 0.000609
579 0.000619
580 0.000633
581 0.000674
582 0.000702
583 0.000739
584 0.000758
585 0.000774
586 0.000793
587 0.000787
588 0.000770
589 0.000769
590 0.000760
591 0.000750
592 0.000744
593 0.000739
594 0.000710
595 0.000717
596 0.000700
597 0.000686
598 0.000671
599 0.000654
600 0.000640
601 0.000643
602 0.000628
603 0.000618
604 0.000614
605 0.000606
606 0.000605
607 0.000594
608 0.000589
609 0.000592
610 0.000592
611 0.000579
612 0.000562
613 0.000560
614 0.000564
615 0.000574
616 0.000575
617 0.000586
618 0.000596
619 0.000626
620 0.000626
621 0.000610
622 0.000586
623 0.000564
624 0.000553
625 0.000532
626 0.000524
627 0.000508
628 0.000470
629 0.000444
630 0.000429
631 0.000436
632 0.000435
633 0.000436
634 0.000430
635 0.000436
636 0.000434
637 0.000437
638 0.000431
639 0.000428
640 0.000418
641 0.000407
642 0.000374
643 0.000361
644 0.000353
645 0.000354
646 0.000356
647 0.000347
648 0.000349
649 0.000358
650 0.000362
651 0.000354
652 0.000353
653 0.000345
654 0.000336
655 0.000349
656 0.000363
657 0.000372
658 0.000377
659 0.000380
660 0.000363
661 0.000333
662 0.000307
663 0.000271
664 0.000243
665 0.000228
666 0.000214
667 0.000222
668 0.000231
669 0.000229
670 0.000232
671 0.000234
672 0.000235
673 0.000223
674 0.000228
675 0.000223
676 0.000215
677 0.000211
678 0.000202
679 0.000192
680 0.000183
681 0.000175
682 0.000161
683 0.000151
684 0.000136
685 0.000126
686 0.000132
687 0.000138
688 0.000150
689 0.000162
690 0.000174
691 0.000194
692 0.000205
693 0.000212
694 0.000223
695 0.000224
696 0.000221
697 0.000212
698 0.000227
699 0.000258
700 0.000268
701 0.000279
702 0.000282
703 0.000306
704 0.000316
705 0.000322
706 0.000332
707 0.000337
708 0.000355
709 0.000376
710 0.000399
711 0.000421
712 0.000433
713 0.000440
714 0.000447
715 0.000438
716 0.000428
717 0.000419
718 0.000418
719 0.000421
720 0.000424
721 0.000429
722 0.000425
723 0.000417
724 0.000408
725 0.000400
726 0.000381
727 0.000350
728 0.000343
729 0.000334
730 0.000308
731 0.000273
732 0.000266
733 0.000245
734 0.000245
735 0.000237
736 0.000215
737 0.000206
738 0.000200
739 0.000196
740 0.000195
741 0.000187
742 0.000198
743 0.000210
744 0.000226
745 0.000245
746 0.000269
747 0.000289
748 0.000299
749 0.000321
750 0.000334
751 0.000338
752 0.000358
753 0.000388
754 0.000416
755 0.000432
756 0.000439
757 0.000451
758 0.000451
759 0.000439
760 0.000416
761 0.000384
762 0.000361
763 0.000357
764 0.000342
765 0.000326
766 0.000303
767 0.000286
768 0.000274
769 0.000261
770 0.000243
771 0.000246
772 0.000241
773 0.000245
774 0.000249
775 0.000255
776 0.000261
777 0.000274
778 0.000287
779 0.000306
780 0.000325
781 0.000346
782 0.000354
783 0.000365
784 0.000373
785 0.000366
786 0.000364
787 0.000368
788 0.000368
789 0.000372
790 0.000354
791 0.000345
792 0.000342
793 0.000335
794 0.000323
795 0.000313
796 0.000296
797 0.000294
798 0.000289
799 0.000285
800 0.000282
801 0.000282
802 0.000286
803 0.000292
804 0.000303
805 0.000307
806 0.000322
807 0.000331
808 0.000337
809 0.000336
