# i correlation
1 0.003351
2 0.003049
3 0.002769
4 0.002553
5 0.002363
6 0.002209
7 0.002073
8 0.001995
9 0.001892
10 0.001843
11 0.001764
12 0.001739
13 0.001729
14 0.001722
15 0.001725
16 0.001711
17 0.001653
18 0.001579
19 0.001497
20 0.001423
21 0.001371
22 0.001338
23 0.001332
24 0.001327
25 0.001327
26 0.001342
27 0.001328
28 0.001330
29 0.001314
30 0.001315
31 0.001301
32 0.001267
33 0.001224
34 0.001142
35 0.001083
36 0.000993
37 0.000915
38 0.000865
39 0.000818
40 0.000768
41 0.000724
42 0.000696
43 0.000707
44 0.000717
45 0.000704
46 0.000660
47 0.000656
48 0.000675
49 0.000680
50 0.000688
51 0.000676
52 0.000663
53 0.000660
54 0.000659
55 0.000641
56 0.000631
57 0.000621
58 0.000632
59 0.000671
60 0.000706
61 0.000720
62 0.000734
63 0.000731
64 0.000721
65 0.000728
66 0.000749
67 0.000753
68 0.000760
69 0.000732
70 0.000732
71 0.000738
72 0.000775
73 0.000790
74 0.000798
75 0.000769
76 0.000763
77 0.000749
78 0.000724
79 0.000700
80 0.000694
81 0.000688
82 0.000674
83 0.000674
84 0.000642
85 0.000595
86 0.000571
87 0.000583
88 0.000606
89 0.000628
90 0.000628
91 0.000638
92 0.000661
93 0.000690
94 0.000704
95 0.000726
96 0.000735
97 0.000762
98 0.000742
99 0.000726
100 0.000695
101 0.000665
102 0.000660
103 0.000690
104 0.000690
105 0.000676
106 0.000653
107 0.000651
108 0.000630
109 0.000609
110 0.000580
111 0.000559
112 0.000560
113 0.000540
114 0.000517
115 0.000516
116 0.000514
117 0.000502
118 0.000506
119 0.000556
120 0.000621
121 0.000690
122 0.000748
123 0.000792
124 0.000803
125 0.000797
126 0.000825
127 0.000880
128 0.000899
129 0.000925
130 0.000941
131 0.000953
132 0.000981
133 0.001008
134 0.001006
135 0.001027
136 0.001064
137 0.001071
138 0.001067
139 0.001040
140 0.001043
141 0.001032
142 0.001025
143 0.001028
144 0.001018
145 0.000996
146 0.000967
147 0.000968
148 0.000954
149 0.000918
150 0.000895
151 0.000873
152 0.000880
153 0.000894
154 0.000891
155 0.000880
156 0.000889
157 0.000874
158 0.000842
159 0.000824
160 0.000809
161 0.000788
162 0.000732
163 0.000718
164 0.000732
165 0.000744
166 0.000794
167 0.000809
168 0.000810
169 0.000825
170 0.000852
171 0.000908
172 0.000907
173 0.000889
174 0.000846
175 0.000823
176 0.000844
177 0.000855
178 0.000825
179 0.000797
180 0.000779
181 0.000749
182 0.000707
183 0.000666
184 0.000632
185 0.000606
186 0.000619
187 0.000623
188 0.000615
189 0.000616
190 0.000601
191 0.000605
192 0.000642
193 0.000662
194 0.000685
195 0.000672
196 0.000681
197 0.000695
198 0.000688
199 0.000691
200 0.000676
201 0.000689
202 0.000709
203 0.000734
204 0.000760
205 0.000731
206 0.000720
207 0.000679
208 0.000632
209 0.000627
210 0.000649
211 0.000668
212 0.000682
213 0.000695
214 0.000682
215 0.000679
216 0.000713
217 0.000730
218 0.000728
219 0.000743
220 0.000764
221 0.000776
222 0.000772
223 0.000755
224 0.000775
225 0.000808
226 0.000836
227 0.000852
228 0.000848
229 0.000868
230 0.000892
231 0.000910
232 0.000897
233 0.000847
234 0.000776
235 0.000723
236 0.000713
237 0.000723
238 0.000706
239 0.000728
240 0.000728
241 0.000745
242 0.000769
243 0.000799
244 0.000820
245 0.000823
246 0.000812
247 0.000804
248 0.000798
249 0.000782
250 0.000740
251 0.000703
252 0.000671
253 0.000639
254 0.000636
255 0.000636
256 0.000649
257 0.000638
258 0.000610
259 0.000573
260 0.000577
261 0.000545
262 0.000522
263 0.000503
264 0.000516
265 0.000500
266 0.000479
267 0.000460
268 0.000447
269 0.000452
270 0.000447
271 0.000443
272 0.000443
273 0.000440
274 0.000442
275 0.000477
276 0.000506
277 0.000504
278 0.000479
279 0.000492
280 0.000502
281 0.000488
282 0.000462
283 0.000443
284 0.000417
285 0.000407
286 0.000396
287 0.000376
288 0.000337
289 0.000319
290 0.000310
291 0.000305
292 0.000303
293 0.000316
294 0.000309
295 0.000321
296 0.000344
297 0.000371
298 0.000386
299 0.000411
300 0.000421
301 0.000417
302 0.000377
303 0.000381
304 0.000367
305 0.000363
306 0.000341
307 0.000316
308 0.000329
309 0.000369
310 0.000374
311 0.000405
312 0.000441
313 0.000493
314 0.000511
315 0.000520
316 0.000541
317 0.000547
318 0.000557
319 0.000587
320 0.000612
321 0.000624
322 0.000634
323 0.000622
324 0.000642
325 0.000637
326 0.000615
327 0.000596
328 0.000595
329 0.000602
330 0.000611
331 0.000591
332 0.000598
333 0.000584
334 0.000597
335 0.000603
336 0.000627
337 0.000673
338 0.000675
339 0.000672
340 0.000653
341 0.000639
342 0.000600
343 0.000577
344 0.000577
345 0.000604
346 0.000635
347 0.000696
348 0.000745
349 0.000782
350 0.000787
351 0.000794
352 0.000789
353 0.000809
354 0.000780
355 0.000742
356 0.000699
357 0.000680
358 0.000644
359 0.000630
360 0.000619
361 0.000589
362 0.000559
363 0.000603
364 0.000618
365 0.000635
366 0.000659
367 0.000696
368 0.000709
369 0.000714
370 0.000716
371 0.000716
372 0.000729
373 0.000722
374 0.000681
375 0.000641
376 0.000597
377 0.000568
378 0.000539
379 0.000519
380 0.000494
381 0.000466
382 0.000438
383 0.000450
384 0.000446
385 0.000449
386 0.000435
387 0.000427
388 0.000411
389 0.000402
390 0.000380
391 0.000352
392 0.000341
393 0.000338
394 0.000303
395 0.000294
396 0.000310
397 0.000343
398 0.000389
399 0.000401
400 0.000404
401 0.000387
402 0.000398
403 0.000382
404 0.000343
405 0.000313
406 0.000264
407 0.000238
408 0.000233
409 0.000234
410 0.000243
411 0.000262
412 0.000278
413 0.000283
414 0.000267
415 0.000261
416 0.000259
417 0.000256
418 0.000253
419 0.000272
420 0.000292
421 0.000299
422 0.000281
423 0.000291
424 0.000291
425 0.000288
426 0.000272
427 0.000269
428 0.000279
429 0.000263
430 0.000243
431 0.000236
432 0.000240
433 0.000242
434 0.000202
435 0.000179
436 0.000159
437 0.000123
438 0.000070
439 0.000020
440 0.000036
441 0.000061
442 0.000094
443 0.000122
444 0.000140
445 0.000172
446 0.000211
447 0.000230
448 0.000246
449 0.000277
450 0.000302
451 0.000310
452 0.000321
453 0.000315
454 0.000283
455 0.000280
456 0.000274
457 0.000275
458 0.000288
459 0.000291
460 0.000298
461 0.000296
462 0.000305
463 0.000296
464 0.000278
465 0.000230
466 0.000209
467 0.000208
468 0.000237
469 0.000260
470 0.000292
471 0.000292
472 0.000315
473 0.000346
474 0.000399
475 0.000433
476 0.000455
477 0.000476
478 0.000478
479 0.000474
480 0.000490
481 0.000496
482 0.000502
483 0.000515
484 0.000507
485 0.000514
486 0.000524
487 0.000507
488 0.000504
489 0.000507
490 0.000532
491 0.000547
492 0.000563
493 0.000604
494 0.000611
495 0.000620
496 0.000635
497 0.000628
498 0.000612
499 0.000603
500 0.000605
501 0.000604
502 0.000592
503 0.000598
504 0.000595
505 0.000590
506 0.000587
507 0.000599
508 0.000622
509 0.000646
510 0.000662
511 0.000663
512 0.000668
513 0.000668
514 0.000687
515 0.000679
516 0.000684
517 0.000674
518 0.000680
519 0.000673
520 0.000658
521 0.000634
522 0.000627
523 0.000634
524 0.000658
525 0.000674
526 0.000675
527 0.000640
528 0.000604
529 0.000583
530 0.000568
531 0.000570
532 0.000553
533 0.000548
534 0.000543
535 0.000533
536 0.000510
537 0.000481
538 0.000455
539 0.000442
540 0.000468
541 0.000500
542 0.000520
543 0.000555
544 0.000582
545 0.000592
546 0.000579
547 0.000552
548 0.000555
549 0.000574
550 0.000591
551 0.000591
552 0.000603
553 0.000590
554 0.000573
555 0.000569
556 0.000559
557 0.000542
558 0.000511
559 0.000469
560 0.000422
561 0.000380
562 0.000343
563 0.000306
564 0.000267
565 0.000248
566 0.000250
567 0.000257
568 0.000263
569 0.000292
570 0.000310
571 0.000328
572 0.000330
573 0.000340
574 0.000334
575 0.000321
576 0.000341
577 0.000350
578 0.000367
579 0.000384
580 0.000393
581 0.000400
582 0.000406
583 0.000399
584 0.000412
585 0.000409
586 0.000399
587 0.000377
588 0.000355
589 0.000341
590 0.000333
591 0.000312
592 0.000305
593 0.000291
594 0.000268
595 0.000250
596 0.000266
597 0.000288
598 0.000296
599 0.000308
600 0.000322
601 0.000314
602 0.000308
603 0.000303
604 0.000300
605 0.000304
606 0.000302
607 0.000296
608 0.000281
609 0.000279
610 0.000270
611 0.000280
612 0.000295
613 0.000323
614 0.000345
615 0.000380
616 0.000412
617 0.000435
618 0.000408
619 0.000391
620 0.000363
621 0.000372
622 0.000379
623 0.000384
624 0.000365
625 0.000345
626 0.000315
627 0.000308
628 0.000321
629 0.000345
630 0.000363
631 0.000348
632 0.000324
633 0.000298
634 0.000267
635 0.000252
636 0.000220
637 0.000198
638 0.000199
639 0.000200
640 0.000197
641 0.000202
642 0.000182
643 0.000193
644 0.000221
645 0.000263
646 0.000318
647 0.000353
648 0.000377
649 0.000402
650 0.000409
651 0.000392
652 0.000395
653 0.000395
654 0.000407
655 0.000384
656 0.000379
657 0.000367
658 0.000357
659 0.000344
660 0.000342
661 0.000323
662 0.000333
663 0.000338
664 0.000346
665 0.000338
666 0.000331
667 0.000320
668 0.000309
669 0.000295
670 0.000292
671 0.000298
672 0.000316
673 0.000333
674 0.000354
675 0.000365
676 0.000373
677 0.000376
678 0.000372
679 0.000376
680 0.000374
681 0.000365
682 0.000352
683 0.000324
684 0.000312
685 0.000312
686 0.000293
687 0.000289
688 0.000292
689 0.000297
690 0.000305
691 0.000295
692 0.000275
693 0.000262
694 0.000240
695 0.000229
696 0.000213
697 0.000216
698 0.000206
699 0.000198
700 0.000194
701 0.000208
702 0.000224
703 0.000222
704 0.000216
705 0.000206
706 0.000198
707 0.000196
708 0.000191
709 0.000186
710 0.000186
711 0.000188
712 0.000203
713 0.000213
714 0.000218
715 0.000216
716 0.000235
717 0.000251
718 0.000262
719 0.000274
720 0.000301
721 0.000307
722 0.000325
723 0.000329
724 0.000333
725 0.000329
726 0.000321
727 0.000313
728 0.000307
729 0.000294
730 0.000295
731 0.000278
732 0.000265
733 0.000261
734 0.000259
735 0.000260
736 0.000269
737 0.000267
738 0.000274
739 0.000272
740 0.000280
741 0.000298
742 0.000302
743 0.000318
744 0.000326
745 0.000332
746 0.000343
747 0.000355
748 0.000355
749 0.000360
750 0.000361
751 0.000367
752 0.000379
753 0.000398
754 0.000398
755 0.000404
756 0.000403
757 0.000404
758 0.000391
759 0.000373
760 0.000361
761 0.000355
762 0.000348
763 0.000329
764 0.000311
765 0.000316
766 0.000309
767 0.000308
768 0.000316
769 0.000334
770 0.000353
771 0.000371
772 0.000377
773 0.000384
774 0.000370
775 0.000367
776 0.000342
777 0.000324
778 0.000309
779 0.000292
780 0.000282
781 0.000277
782 0.000291
783 0.000311
784 0.000305
785 0.000301
786 0.000313
787 0.000316
788 0.000317
789 0.000310
790 0.000299
791 0.000286
792 0.000270
793 0.000258
794 0.000256
795 0.000257
796 0.000269
797 0.000275
798 0.000280
799 0.000296
800 0.000304
801 0.000306
802 0.000293
803 0.000276
804 0.000263
805 0.000237
806 0.000206
807 0.000166
808 0.000133
809 0.000103
