# i correlation
1 0.003329
2 0.003040
3 0.002809
4 0.002601
5 0.002428
6 0.002276
7 0.002174
8 0.002084
9 0.002017
10 0.001922
11 0.001850
12 0.001790
13 0.001756
14 0.001710
15 0.001677
16 0.001669
17 0.001650
18 0.001650
19 0.001621
20 0.001622
21 0.001642
22 0.001631
23 0.001631
24 0.001598
25 0.001550
26 0.001521
27 0.001484
28 0.001457
29 0.001412
30 0.001407
31 0.001382
32 0.001390
33 0.001373
34 0.001333
35 0.001291
36 0.001252
37 0.001219
38 0.001228
39 0.001250
40 0.001244
41 0.001251
42 0.001280
43 0.001292
44 0.001294
45 0.001262
46 0.001249
47 0.001251
48 0.001259
49 0.001278
50 0.001263
51 0.001260
52 0.001260
53 0.001255
54 0.001255
55 0.001274
56 0.001304
57 0.001291
58 0.001292
59 0.001280
60 0.001284
61 0.001276
62 0.001292
63 0.001287
64 0.001279
65 0.001273
66 0.001291
67 0.001301
68 0.001280
69 0.001237
70 0.001212
71 0.001189
72 0.001189
73 0.001226
74 0.001275
75 0.001308
76 0.001334
77 0.001347
78 0.001329
79 0.001314
80 0.001301
81 0.001288
82 0.001290
83 0.001268
84 0.001287
85 0.001309
86 0.001335
87 0.001322
88 0.001302
89 0.001278
90 0.001247
91 0.001214
92 0.001171
93 0.001112
94 0.001071
95 0.001059
96 0.001031
97 0.001003
98 0.001012
99 0.001014
100 0.001053
101 0.001079
102 0.001126
103 0.001111
104 0.001109
105 0.001129
106 0.001143
107 0.001136
108 0.001129
109 0.001100
110 0.001059
111 0.001020
112 0.000980
113 0.000903
114 0.000836
115 0.000793
116 0.000762
117 0.000752
118 0.000765
119 0.000766
120 0.000723
121 0.000699
122 0.000686
123 0.000680
124 0.000694
125 0.000726
126 0.000739
127 0.000762
128 0.000811
129 0.000840
130 0.000876
131 0.000885
132 0.000927
133 0.000953
134 0.001000
135 0.001035
136 0.001052
137 0.001064
138 0.001064
139 0.001061
140 0.001084
141 0.001105
142 0.001129
143 0.001129
144 0.001109
145 0.001094
146 0.001076
147 0.001049
148 0.001027
149 0.001014
150 0.000999
151 0.000995
152 0.000987
153 0.000979
154 0.000963
155 0.000928
156 0.000905
157 0.000889
158 0.000878
159 0.000856
160 0.000860
161 0.000845
162 0.000833
163 0.000848
164 0.000869
165 0.000910
166 0.000930
167 0.000939
168 0.000970
169 0.000929
170 0.000896
171 0.000867
172 0.000849
173 0.000835
174 0.000803
175 0.000757
176 0.000715
177 0.000699
178 0.000681
179 0.000707
180 0.000729
181 0.000766
182 0.000761
183 0.000748
184 0.000762
185 0.000792
186 0.000851
187 0.000863
188 0.000858
189 0.000860
190 0.000858
191 0.000839
192 0.000833
193 0.000802
194 0.000797
195 0.000803
196 0.000805
197 0.000812
198 0.000816
199 0.000781
200 0.000753
201 0.000718
202 0.000707
203 0.000702
204 0.000694
205 0.000672
206 0.000648
207 0.000638
208 0.000624
209 0.000618
210 0.000622
211 0.000604
212 0.000611
213 0.000632
214 0.000660
215 0.000668
216 0.000682
217 0.000708
218 0.000717
219 0.000730
220 0.000741
221 0.000749
222 0.000726
223 0.000740
224 0.000759
225 0.000739
226 0.000692
227 0.000674
228 0.000693
229 0.000682
230 0.000685
231 0.000699
232 0.000709
233 0.000707
234 0.000697
235 0.000690
236 0.000679
237 0.000660
238 0.000626
239 0.000606
240 0.000603
241 0.000623
242 0.000613
243 0.000619
244 0.000641
245 0.000650
246 0.000648
247 0.000652
248 0.000660
249 0.000651
250 0.000598
251 0.000529
252 0.000475
253 0.000465
254 0.000483
255 0.000475
256 0.000472
257 0.000462
258 0.000452
259 0.000452
260 0.000465
261 0.000468
262 0.000505
263 0.000541
264 0.000550
265 0.000590
266 0.000644
267 0.000695
268 0.000742
269 0.000784
270 0.000836
271 0.000874
272 0.000883
273 0.000874
274 0.000870
275 0.000852
276 0.000836
277 0.000828
278 0.000802
279 0.000825
280 0.000854
281 0.000861
282 0.000878
283 0.000880
284 0.000886
285 0.000873
286 0.000863
287 0.000869
288 0.000898
289 0.000905
290 0.000916
291 0.000929
292 0.000920
293 0.000910
294 0.000888
295 0.000870
296 0.000856
297 0.000860
298 0.000871
299 0.000842
300 0.000812
301 0.000768
302 0.000729
303 0.000702
304 0.000688
305 0.000690
306 0.000696
307 0.000679
308 0.000649
309 0.000630
310 0.000592
311 0.000565
312 0.000542
313 0.000522
314 0.000518
315 0.000538
316 0.000538
317 0.000522
318 0.000500
319 0.000490
320 0.000475
321 0.000485
322 0.000486
323 0.000493
324 0.000507
325 0.000509
326 0.000518
327 0.000535
328 0.000539
329 0.000542
330 0.000542
331 0.000526
332 0.000532
333 0.000524
334 0.000511
335 0.000513
336 0.000536
337 0.000541
338 0.000522
339 0.000508
340 0.000471
341 0.000436
342 0.000388
343 0.000355
344 0.000344
345 0.000327
346 0.000309
347 0.000295
348 0.000298
349 0.000311
350 0.000321
351 0.000301
352 0.000277
353 0.000266
354 0.000281
355 0.000293
356 0.000285
357 0.000281
358 0.000270
359 0.000268
360 0.000269
361 0.000244
362 0.000241
363 0.000226
364 0.000217
365 0.000208
366 0.000201
367 0.000205
368 0.000219
369 0.000220
370 0.000235
371 0.000284
372 0.000322
373 0.000373
374 0.000414
375 0.000450
376 0.000459
377 0.000492
378 0.000502
379 0.000469
380 0.000420
381 0.000386
382 0.000360
383 0.000341
384 0.000315
385 0.000282
386 0.000249
387 0.000217
388 0.000223
389 0.000224
390 0.000230
391 0.000235
392 0.000247
393 0.000255
394 0.000248
395 0.000238
396 0.000250
397 0.000248
398 0.000242
399 0.000258
400 0.000284
401 0.000325
402 0.000348
403 0.000362
404 0.000374
405 0.000366
406 0.000362
407 0.000343
408 0.000303
409 0.000302
410 0.000304
411 0.000316
412 0.000323
413 0.000331
414 0.000344
415 0.000360
416 0.000384
417 0.000391
418 0.000386
419 0.000384
420 0.000403
421 0.000414
422 0.000425
423 0.000461
424 0.000489
425 0.000511
426 0.000528
427 0.000541
428 0.000548
429 0.000557
430 0.000571
431 0.000579
432 0.000583
433 0.000608
434 0.000639
435 0.000650
436 0.000658
437 0.000664
438 0.000660
439 0.000687
440 0.000695
441 0.000691
442 0.000688
443 0.000688
444 0.000693
445 0.000695
446 0.000696
447 0.000691
448 0.000695
449 0.000694
450 0.000673
451 0.000670
452 0.000669
453 0.000666
454 0.000649
455 0.000642
456 0.000632
457 0.000612
458 0.000591
459 0.000570
460 0.000567
461 0.000578
462 0.000591
463 0.000599
464 0.000622
465 0.000616
466 0.000607
467 0.000604
468 0.000602
469 0.000622
470 0.000632
471 0.000617
472 0.000618
473 0.000629
474 0.000622
475 0.000594
476 0.000579
477 0.000594
478 0.000620
479 0.000657
480 0.000678
481 0.000686
482 0.000685
483 0.000689
484 0.000664
485 0.000646
486 0.000638
487 0.000630
488 0.000610
489 0.000592
490 0.000575
491 0.000544
492 0.000534
493 0.000523
494 0.000535
495 0.000543
496 0.000543
497 0.000539
498 0.000526
499 0.000493
500 0.000482
501 0.000490
502 0.000518
503 0.000543
504 0.000537
505 0.000553
506 0.000558
507 0.000560
508 0.000561
509 0.000596
510 0.000629
511 0.000680
512 0.000704
513 0.000728
514 0.000738
515 0.000757
516 0.000776
517 0.000765
518 0.000772
519 0.000774
520 0.000760
521 0.000734
522 0.000704
523 0.000677
524 0.000657
525 0.000665
526 0.000643
527 0.000625
528 0.000629
529 0.000618
530 0.000605
531 0.000597
532 0.000579
533 0.000560
534 0.000559
535 0.000552
536 0.000559
537 0.000567
538 0.000568
539 0.000581
540 0.000569
541 0.000585
542 0.000594
543 0.000597
544 0.000604
545 0.000625
546 0.000632
547 0.000618
548 0.000591
549 0.000568
550 0.000528
551 0.000500
552 0.000479
553 0.000456
554 0.000459
555 0.000456
556 0.000472
557 0.000482
558 0.000506
559 0.000539
560 0.000573
561 0.000600
562 0.000605
563 0.000610
564 0.000631
565 0.000645
566 0.000633
567 0.000646
568 0.000662
569 0.000693
570 0.000673
571 0.000656
572 0.000646
573 0.000634
574 0.000623
575 0.000621
576 0.000623
577 0.000641
578 0.000657
579 0.000676
580 0.000680
581 0.000683
582 0.000692
583 0.000686
584 0.000662
585 0.000654
586 0.000656
587 0.000666
588 0.000669
589 0.000661
590 0.000635
591 0.000626
592 0.000605
593 0.000565
594 0.000530
595 0.000508
596 0.000486
597 0.000483
598 0.000511
599 0.000530
600 0.000540
601 0.000543
602 0.000538
603 0.000534
604 0.000517
605 0.000503
606 0.000487
607 0.000475
608 0.000454
609 0.000441
610 0.000423
611 0.000423
612 0.000416
613 0.000402
614 0.000383
615 0.000370
616 0.000360
617 0.000361
618 0.000360
619 0.000357
620 0.000383
621 0.000428
622 0.000450
623 0.000452
624 0.000454
625 0.000437
626 0.000436
627 0.000436
628 0.000412
629 0.000400
630 0.000407
631 0.000394
632 0.000368
633 0.000353
634 0.000350
635 0.000338
636 0.000320
637 0.000316
638 0.000313
639 0.000310
640 0.000294
641 0.000294
642 0.000305
643 0.000320
644 0.000331
645 0.000357
646 0.000375
647 0.000402
648 0.000422
649 0.000427
650 0.000441
651 0.000466
652 0.000469
653 0.000485
654 0.000505
655 0.000509
656 0.000503
657 0.000486
658 0.000460
659 0.000435
660 0.000423
661 0.000406
662 0.000391
663 0.000396
664 0.000399
665 0.000407
666 0.000422
667 0.000427
668 0.000430
669 0.000433
670 0.000422
671 0.000411
672 0.000378
673 0.000364
674 0.000356
675 0.000332
676 0.000303
677 0.000277
678 0.000244
679 0.000223
680 0.000207
681 0.000191
682 0.000159
683 0.000140
684 0.000125
685 0.000105
686 0.000112
687 0.000122
688 0.000121
689 0.000121
690 0.000125
691 0.000113
692 0.000105
693 0.000104
694 0.000099
695 0.000114
696 0.000122
697 0.000144
698 0.000148
699 0.000155
700 0.000154
701 0.000154
702 0.000153
703 0.000154
704 0.000158
705 0.000173
706 0.000194
707 0.000218
708 0.000240
709 0.000265
710 0.000298
711 0.000327
712 0.000344
713 0.000378
714 0.000393
715 0.000393
716 0.000390
717 0.000388
718 0.000390
719 0.000390
720 0.000369
721 0.000338
722 0.000324
723 0.000329
724 0.000331
725 0.000322
726 0.000327
727 0.000355
728 0.000406
729 0.000446
730 0.000471
731 0.000497
732 0.000516
733 0.000539
734 0.000550
735 0.000550
736 0.000534
737 0.000530
738 0.000518
739 0.000518
740 0.000520
741 0.000516
742 0.000514
743 0.000508
744 0.000489
745 0.000469
746 0.000454
747 0.000430
748 0.000412
749 0.000409
750 0.000414
751 0.000423
752 0.000439
753 0.000435
754 0.000420
755 0.000399
756 0.000379
757 0.000354
758 0.000322
759 0.000297
760 0.000281
761 0.000268
762 0.000243
763 0.000228
764 0.000218
765 0.000215
766 0.000213
767 0.000202
768 0.000190
769 0.000187
770 0.000180
771 0.000177
772 0.000182
773 0.000187
774 0.000182
775 0.000181
776 0.000172
777 0.000180
778 0.000178
779 0.000187
780 0.000189
781 0.000181
782 0.000185
783 0.000180
784 0.000177
785 0.000170
786 0.000163
787 0.000158
788 0.000157
789 0.000153
790 0.000149
791 0.000146
792 0.000155
793 0.000169
794 0.000169
795 0.000182
796 0.000181
797 0.000184
798 0.000185
799 0.000187
800 0.000199
801 0.000219
802 0.000230
803 0.000243
804 0.000247
805 0.000262
806 0.000263
807 0.000259
808 0.000265
809 0.000264
