# i correlation
1 0.003541
2 0.003219
3 0.002936
4 0.002690
5 0.002499
6 0.002352
7 0.002194
8 0.002057
9 0.001983
10 0.001896
11 0.001814
12 0.001735
13 0.001709
14 0.001701
15 0.001712
16 0.001712
17 0.001690
18 0.001655
19 0.001613
20 0.001586
21 0.001569
22 0.001570
23 0.001557
24 0.001541
25 0.001513
26 0.001482
27 0.001468
28 0.001484
29 0.001524
30 0.001543
31 0.001511
32 0.001455
33 0.001451
34 0.001421
35 0.001396
36 0.001380
37 0.001315
38 0.001277
39 0.001226
40 0.001199
41 0.001181
42 0.001189
43 0.001209
44 0.001254
45 0.001276
46 0.001266
47 0.001242
48 0.001178
49 0.001115
50 0.001092
51 0.001076
52 0.001050
53 0.001064
54 0.001059
55 0.001065
56 0.001078
57 0.001111
58 0.001149
59 0.001201
60 0.001247
61 0.001284
62 0.001276
63 0.001283
64 0.001284
65 0.001258
66 0.001244
67 0.001216
68 0.001156
69 0.001098
70 0.001070
71 0.001065
72 0.001084
73 0.001089
74 0.001104
75 0.001123
76 0.001153
77 0.001157
78 0.001148
79 0.001130
80 0.001105
81 0.001086
82 0.001074
83 0.001052
84 0.001054
85 0.001030
86 0.001043
87 0.001100
88 0.001149
89 0.001220
90 0.001259
91 0.001299
92 0.001286
93 0.001283
94 0.001311
95 0.001312
96 0.001306
97 0.001275
98 0.001212
99 0.001129
100 0.001068
101 0.001002
102 0.000917
103 0.000888
104 0.000915
105 0.000975
106 0.001032
107 0.001078
108 0.001095
109 0.001099
110 0.001090
111 0.001083
112 0.001063
113 0.001030
114 0.001021
115 0.001007
116 0.000967
117 0.000932
118 0.000903
119 0.000868
120 0.000851
121 0.000838
122 0.000850
123 0.000867
124 0.000882
125 0.000904
126 0.000905
127 0.000908
128 0.000913
129 0.000930
130 0.000959
131 0.000971
132 0.000966
133 0.001002
134 0.001031
135 0.001034
136 0.001028
137 0.001047
138 0.001056
139 0.001081
140 0.001105
141 0.001126
142 0.001146
143 0.001149
144 0.001137
145 0.001118
146 0.001061
147 0.001000
148 0.000958
149 0.000927
150 0.000904
151 0.000906
152 0.000914
153 0.000939
154 0.000968
155 0.000948
156 0.000931
157 0.000914
158 0.000882
159 0.000883
160 0.000882
161 0.000880
162 0.000871
163 0.000915
164 0.000933
165 0.000945
166 0.000954
167 0.000984
168 0.001021
169 0.001042
170 0.001044
171 0.001035
172 0.001005
173 0.000974
174 0.000895
175 0.000842
176 0.000769
177 0.000694
178 0.000680
179 0.000663
180 0.000631
181 0.000645
182 0.000681
183 0.000728
184 0.000804
185 0.000877
186 0.000899
187 0.000936
188 0.000987
189 0.001042
190 0.001071
191 0.001083
192 0.001081
193 0.001077
194 0.001075
195 0.001027
196 0.001011
197 0.001035
198 0.001070
199 0.001068
200 0.001061
201 0.001085
202 0.001115
203 0.001141
204 0.001182
205 0.001181
206 0.001210
207 0.001224
208 0.001208
209 0.001181
210 0.001139
211 0.001113
212 0.001104
213 0.001091
214 0.001095
215 0.001088
216 0.001054
217 0.001024
218 0.000971
219 0.000927
220 0.000914
221 0.000920
222 0.000937
223 0.000945
224 0.000951
225 0.000923
226 0.000911
227 0.000911
228 0.000941
229 0.001007
230 0.001025
231 0.001050
232 0.001042
233 0.001018
234 0.000984
235 0.000944
236 0.000922
237 0.000935
238 0.000933
239 0.000916
240 0.000882
241 0.000861
242 0.000839
243 0.000807
244 0.000807
245 0.000811
246 0.000797
247 0.000814
248 0.000842
249 0.000838
250 0.000827
251 0.000799
252 0.000772
253 0.000749
254 0.000734
255 0.000726
256 0.000689
257 0.000687
258 0.000701
259 0.000710
260 0.000724
261 0.000740
262 0.000727
263 0.000675
264 0.000641
265 0.000633
266 0.000624
267 0.000607
268 0.000578
269 0.000549
270 0.000519
271 0.000524
272 0.000547
273 0.000564
274 0.000576
275 0.000626
276 0.000670
277 0.000675
278 0.000702
279 0.000728
280 0.000726
281 0.000737
282 0.000745
283 0.000735
284 0.000745
285 0.000740
286 0.000733
287 0.000742
288 0.000768
289 0.000786
290 0.000783
291 0.000747
292 0.000720
293 0.000735
294 0.000772
295 0.000796
296 0.000788
297 0.000805
298 0.000819
299 0.000827
300 0.000820
301 0.000826
302 0.000819
303 0.000832
304 0.000830
305 0.000811
306 0.000776
307 0.000719
308 0.000686
309 0.000654
310 0.000572
311 0.000542
312 0.000536
313 0.000548
314 0.000544
315 0.000538
316 0.000522
317 0.000533
318 0.000571
319 0.000615
320 0.000654
321 0.000661
322 0.000664
323 0.000689
324 0.000697
325 0.000697
326 0.000695
327 0.000670
328 0.000666
329 0.000665
330 0.000632
331 0.000596
332 0.000600
333 0.000603
334 0.000623
335 0.000659
336 0.000688
337 0.000696
338 0.000735
339 0.000763
340 0.000734
341 0.000718
342 0.000741
343 0.000765
344 0.000790
345 0.000804
346 0.000788
347 0.000765
348 0.000756
349 0.000765
350 0.000757
351 0.000738
352 0.000731
353 0.000744
354 0.000784
355 0.000805
356 0.000819
357 0.000815
358 0.000792
359 0.000786
360 0.000779
361 0.000754
362 0.000733
363 0.000718
364 0.000675
365 0.000657
366 0.000641
367 0.000617
368 0.000609
369 0.000594
370 0.000593
371 0.000594
372 0.000621
373 0.000663
374 0.000673
375 0.000687
376 0.000689
377 0.000688
378 0.000681
379 0.000693
380 0.000704
381 0.000711
382 0.000725
383 0.000746
384 0.000748
385 0.000751
386 0.000744
387 0.000724
388 0.000711
389 0.000682
390 0.000690
391 0.000675
392 0.000673
393 0.000653
394 0.000636
395 0.000656
396 0.000678
397 0.000685
398 0.000684
399 0.000707
400 0.000728
401 0.000759
402 0.000782
403 0.000766
404 0.000753
405 0.000725
406 0.000702
407 0.000672
408 0.000657
409 0.000657
410 0.000692
411 0.000688
412 0.000700
413 0.000723
414 0.000746
415 0.000756
416 0.000738
417 0.000716
418 0.000730
419 0.000749
420 0.000753
421 0.000727
422 0.000657
423 0.000617
424 0.000572
425 0.000527
426 0.000513
427 0.000487
428 0.000484
429 0.000482
430 0.000521
431 0.000548
432 0.000584
433 0.000633
434 0.000688
435 0.000731
436 0.000759
437 0.000756
438 0.000752
439 0.000763
440 0.000777
441 0.000776
442 0.000770
443 0.000806
444 0.000835
445 0.000855
446 0.000880
447 0.000870
448 0.000854
449 0.000841
450 0.000812
451 0.000783
452 0.000750
453 0.000728
454 0.000717
455 0.000696
456 0.000673
457 0.000660
458 0.000637
459 0.000622
460 0.000640
461 0.000662
462 0.000704
463 0.000732
464 0.000748
465 0.000743
466 0.000735
467 0.000715
468 0.000685
469 0.000684
470 0.000671
471 0.000660
472 0.000650
473 0.000660
474 0.000654
475 0.000616
476 0.000596
477 0.000586
478 0.000575
479 0.000579
480 0.000553
481 0.000523
482 0.000526
483 0.000518
484 0.000515
485 0.000519
486 0.000528
487 0.000544
488 0.000559
489 0.000563
490 0.000589
491 0.000645
492 0.000686
493 0.000707
494 0.000707
495 0.000697
496 0.000711
497 0.000702
498 0.000694
499 0.000674
500 0.000624
501 0.000564
502 0.000504
503 0.000443
504 0.000381
505 0.000367
506 0.000369
507 0.000408
508 0.000442
509 0.000466
510 0.000491
511 0.000476
512 0.000445
513 0.000427
514 0.000402
515 0.000374
516 0.000327
517 0.000307
518 0.000281
519 0.000271
520 0.000263
521 0.000253
522 0.000253
523 0.000256
524 0.000261
525 0.000274
526 0.000322
527 0.000359
528 0.000398
529 0.000412
530 0.000413
531 0.000375
532 0.000375
533 0.000353
534 0.000332
535 0.000312
536 0.000313
537 0.000327
538 0.000351
539 0.000349
540 0.000332
541 0.000327
542 0.000332
543 0.000365
544 0.000381
545 0.000379
546 0.000364
547 0.000350
548 0.000335
549 0.000327
550 0.000325
551 0.000332
552 0.000341
553 0.000367
554 0.000392
555 0.000403
556 0.000402
557 0.000400
558 0.000427
559 0.000449
560 0.000485
561 0.000516
562 0.000530
563 0.000529
564 0.000515
565 0.000487
566 0.000456
567 0.000450
568 0.000426
569 0.000412
570 0.000409
571 0.000394
572 0.000384
573 0.000392
574 0.000405
575 0.000408
576 0.000410
577 0.000398
578 0.000372
579 0.000356
580 0.000355
581 0.000360
582 0.000352
583 0.000375
584 0.000386
585 0.000389
586 0.000380
587 0.000395
588 0.000401
589 0.000420
590 0.000425
591 0.000419
592 0.000405
593 0.000388
594 0.000377
595 0.000329
596 0.000294
597 0.000270
598 0.000256
599 0.000265
600 0.000256
601 0.000247
602 0.000246
603 0.000275
604 0.000332
605 0.000382
606 0.000401
607 0.000402
608 0.000395
609 0.000361
610 0.000332
611 0.000288
612 0.000251
613 0.000218
614 0.000209
615 0.000196
616 0.000211
617 0.000238
618 0.000254
619 0.000275
620 0.000301
621 0.000340
622 0.000357
623 0.000376
624 0.000376
625 0.000394
626 0.000412
627 0.000436
628 0.000455
629 0.000477
630 0.000483
631 0.000471
632 0.000479
633 0.000491
634 0.000513
635 0.000518
636 0.000541
637 0.000558
638 0.000578
639 0.000581
640 0.000572
641 0.000566
642 0.000574
643 0.000576
644 0.000566
645 0.000528
646 0.000483
647 0.000474
648 0.000468
649 0.000470
650 0.000472
651 0.000473
652 0.000482
653 0.000470
654 0.000460
655 0.000460
656 0.000453
657 0.000443
658 0.000443
659 0.000452
660 0.000439
661 0.000434
662 0.000433
663 0.000436
664 0.000430
665 0.000427
666 0.000397
667 0.000391
668 0.000388
669 0.000364
670 0.000338
671 0.000334
672 0.000326
673 0.000307
674 0.000297
675 0.000280
676 0.000278
677 0.000290
678 0.000302
679 0.000299
680 0.000305
681 0.000319
682 0.000320
683 0.000311
684 0.000308
685 0.000299
686 0.000276
687 0.000252
688 0.000240
689 0.000224
690 0.000210
691 0.000210
692 0.000215
693 0.000228
694 0.000243
695 0.000267
696 0.000271
697 0.000278
698 0.000283
699 0.000294
700 0.000294
701 0.000291
702 0.000269
703 0.000249
704 0.000227
705 0.000216
706 0.000196
707 0.000175
708 0.000172
709 0.000161
710 0.000146
711 0.000133
712 0.000119
713 0.000102
714 0.000101
715 0.000106
716 0.000108
717 0.000115
718 0.000114
719 0.000108
720 0.000097
721 0.000100
722 0.000108
723 0.000122
724 0.000125
725 0.000119
726 0.000122
727 0.000119
728 0.000136
729 0.000148
730 0.000156
731 0.000161
732 0.000158
733 0.000153
734 0.000158
735 0.000164
736 0.000162
737 0.000170
738 0.000176
739 0.000178
740 0.000151
741 0.000128
742 0.000109
743 0.000101
744 0.000104
745 0.000105
746 0.000104
747 0.000103
748 0.000119
749 0.000122
750 0.000131
751 0.000133
752 0.000152
753 0.000168
754 0.000174
755 0.000165
756 0.000159
757 0.000160
758 0.000182
759 0.000220
760 0.000240
761 0.000253
762 0.000258
763 0.000255
764 0.000254
765 0.000246
766 0.000242
767 0.000250
768 0.000258
769 0.000264
770 0.000264
771 0.000261
772 0.000272
773 0.000276
774 0.000279
775 0.000288
776 0.000283
777 0.000283
778 0.000271
779 0.000254
780 0.000244
781 0.000245
782 0.000241
783 0.000234
784 0.000222
785 0.000208
786 0.000188
787 0.000166
788 0.000161
789 0.000156
790 0.000152
791 0.000147
792 0.000144
793 0.000141
794 0.000140
795 0.000152
796 0.000156
797 0.000161
798 0.000174
799 0.000180
800 0.000179
801 0.000178
802 0.000177
803 0.000171
804 0.000170
805 0.000178
806 0.000172
807 0.000161
808 0.000148
809 0.000135
