# i correlation
1 0.002829
2 0.002484
3 0.002205
4 0.001975
5 0.001748
6 0.001558
7 0.001396
8 0.001281
9 0.001146
10 0.001057
11 0.000987
12 0.000924
13 0.000885
14 0.000842
15 0.000798
16 0.000760
17 0.000720
18 0.000708
19 0.000719
20 0.000750
21 0.000810
22 0.000876
23 0.000928
24 0.000945
25 0.000948
26 0.000952
27 0.000951
28 0.000964
29 0.000981
30 0.000993
31 0.001026
32 0.001054
33 0.001089
34 0.001112
35 0.001146
36 0.001175
37 0.001192
38 0.001172
39 0.001125
40 0.001085
41 0.001060
42 0.001021
43 0.000983
44 0.000934
45 0.000874
46 0.000815
47 0.000796
48 0.000768
49 0.000743
50 0.000724
51 0.000727
52 0.000748
53 0.000736
54 0.000697
55 0.000704
56 0.000744
57 0.000721
58 0.000705
59 0.000675
60 0.000710
61 0.000707
62 0.000693
63 0.000678
64 0.000711
65 0.000713
66 0.000692
67 0.000648
68 0.000602
69 0.000574
70 0.000581
71 0.000583
72 0.000618
73 0.000656
74 0.000660
75 0.000679
76 0.000686
77 0.000705
78 0.000685
79 0.000662
80 0.000610
81 0.000585
82 0.000550
83 0.000535
84 0.000502
85 0.000486
86 0.000440
87 0.000405
88 0.000384
89 0.000390
90 0.000356
91 0.000327
92 0.000314
93 0.000307
94 0.000247
95 0.000179
96 0.000147
97 0.000118
98 0.000106
99 0.000122
100 0.000125
101 0.000175
102 0.000212
103 0.000232
104 0.000245
105 0.000292
106 0.000304
107 0.000315
108 0.000328
109 0.000325
110 0.000321
111 0.000337
112 0.000348
113 0.000340
114 0.000302
115 0.000253
116 0.000241
117 0.000232
118 0.000241
119 0.000210
120 0.000205
121 0.000220
122 0.000223
123 0.000224
124 0.000261
125 0.000294
126 0.000336
127 0.000354
128 0.000374
129 0.000355
130 0.000361
131 0.000342
132 0.000339
133 0.000303
134 0.000261
135 0.000240
136 0.000224
137 0.000221
138 0.000224
139 0.000247
140 0.000252
141 0.000242
142 0.000243
143 0.000237
144 0.000233
145 0.000235
146 0.000249
147 0.000258
148 0.000244
149 0.000284
150 0.000294
151 0.000308
152 0.000323
153 0.000351
154 0.000379
155 0.000396
156 0.000425
157 0.000418
158 0.000403
159 0.000404
160 0.000399
161 0.000405
162 0.000419
163 0.000427
164 0.000393
165 0.000389
166 0.000394
167 0.000413
168 0.000445
169 0.000475
170 0.000488
171 0.000497
172 0.000500
173 0.000513
174 0.000556
175 0.000576
176 0.000550
177 0.000583
178 0.000647
179 0.000690
180 0.000712
181 0.000682
182 0.000686
183 0.000675
184 0.000691
185 0.000679
186 0.000652
187 0.000657
188 0.000702
189 0.000707
190 0.000723
191 0.000702
192 0.000648
193 0.000611
194 0.000570
195 0.000541
196 0.000537
197 0.000535
198 0.000530
199 0.000520
200 0.000537
201 0.000601
202 0.000645
203 0.000693
204 0.000725
205 0.000751
206 0.000743
207 0.000740
208 0.000707
209 0.000713
210 0.000731
211 0.000763
212 0.000768
213 0.000785
214 0.000782
215 0.000787
216 0.000776
217 0.000789
218 0.000786
219 0.000809
220 0.000779
221 0.000794
222 0.000782
223 0.000762
224 0.000756
225 0.000768
226 0.000790
227 0.000792
228 0.000745
229 0.000704
230 0.000662
231 0.000667
232 0.000708
233 0.000726
234 0.000704
235 0.000722
236 0.000703
237 0.000671
238 0.000662
239 0.000664
240 0.000665
241 0.000663
242 0.000648
243 0.000656
244 0.000681
245 0.000723
246 0.000772
247 0.000804
248 0.000841
249 0.000854
250 0.000869
251 0.000852
252 0.000852
253 0.000827
254 0.000825
255 0.000808
256 0.000805
257 0.000786
258 0.000761
259 0.000703
260 0.000673
261 0.000656
262 0.000669
263 0.000708
264 0.000697
265 0.000665
266 0.000619
267 0.000590
268 0.000538
269 0.000493
270 0.000450
271 0.000402
272 0.000326
273 0.000274
274 0.000253
275 0.000214
276 0.000178
277 0.000174
278 0.000156
279 0.000189
280 0.000214
281 0.000244
282 0.000299
283 0.000362
284 0.000399
285 0.000454
286 0.000531
287 0.000561
288 0.000577
289 0.000589
290 0.000607
291 0.000616
292 0.000594
293 0.000585
294 0.000576
295 0.000580
296 0.000565
297 0.000518
298 0.000486
299 0.000445
300 0.000389
301 0.000322
302 0.000301
303 0.000281
304 0.000216
305 0.000145
306 0.000131
307 0.000118
308 0.000133
309 0.000144
310 0.000187
311 0.000182
312 0.000196
313 0.000184
314 0.000198
315 0.000195
316 0.000197
317 0.000203
318 0.000233
319 0.000242
320 0.000244
321 0.000233
322 0.000247
323 0.000265
324 0.000295
325 0.000310
326 0.000327
327 0.000334
328 0.000327
329 0.000338
330 0.000330
331 0.000320
332 0.000300
333 0.000267
334 0.000226
335 0.000209
336 0.000164
337 0.000136
338 0.000134
339 0.000127
340 0.000144
341 0.000128
342 0.000095
343 0.000085
344 0.000080
345 0.000060
346 0.000065
347 0.000083
348 0.000083
349 0.000061
350 0.000034
351 0.000034
352 0.000015
353 0.000007
354 0.000019
355 0.000036
356 0.000073
357 0.000099
358 0.000148
359 0.000212
360 0.000197
361 0.000184
362 0.000187
363 0.000192
364 0.000202
365 0.000208
366 0.000214
367 0.000223
368 0.000262
369 0.000297
370 0.000347
371 0.000357
372 0.000360
373 0.000345
374 0.000314
375 0.000310
376 0.000312
377 0.000290
378 0.000301
379 0.000294
380 0.000286
381 0.000267
382 0.000260
383 0.000252
384 0.000241
385 0.000230
386 0.000194
387 0.000199
388 0.000202
389 0.000208
390 0.000225
391 0.000291
392 0.000334
393 0.000347
394 0.000349
395 0.000382
396 0.000410
397 0.000414
398 0.000389
399 0.000383
400 0.000396
401 0.000421
402 0.000426
403 0.000437
404 0.000425
405 0.000406
406 0.000391
407 0.000385
408 0.000366
409 0.000348
410 0.000349
411 0.000361
412 0.000348
413 0.000329
414 0.000327
415 0.000325
416 0.000320
417 0.000303
418 0.000285
419 0.000282
420 0.000283
421 0.000295
422 0.000296
423 0.000321
424 0.000314
425 0.000335
426 0.000351
427 0.000337
428 0.000365
429 0.000388
430 0.000395
431 0.000399
432 0.000416
433 0.000423
434 0.000430
435 0.000417
436 0.000441
437 0.000452
438 0.000452
439 0.000432
440 0.000430
441 0.000393
442 0.000391
443 0.000389
444 0.000385
445 0.000389
446 0.000371
447 0.000371
448 0.000381
449 0.000378
450 0.000366
451 0.000376
452 0.000396
453 0.000426
454 0.000430
455 0.000395
456 0.000364
457 0.000360
458 0.000340
459 0.000314
460 0.000253
461 0.000218
462 0.000185
463 0.000157
464 0.000152
465 0.000157
466 0.000152
467 0.000150
468 0.000170
469 0.000209
470 0.000245
471 0.000259
472 0.000266
473 0.000284
474 0.000300
475 0.000319
476 0.000330
477 0.000312
478 0.000261
479 0.000222
480 0.000201
481 0.000199
482 0.000178
483 0.000151
484 0.000145
485 0.000129
486 0.000121
487 0.000131
488 0.000155
489 0.000199
490 0.000236
491 0.000258
492 0.000266
493 0.000259
494 0.000253
495 0.000237
496 0.000261
497 0.000267
498 0.000251
499 0.000236
500 0.000230
501 0.000214
502 0.000200
503 0.000209
504 0.000218
505 0.000208
506 0.000195
507 0.000205
508 0.000217
509 0.000254
510 0.000287
511 0.000292
512 0.000301
513 0.000310
514 0.000312
515 0.000301
516 0.000225
517 0.000197
518 0.000175
519 0.000143
520 0.000087
521 0.000064
522 0.000050
523 0.000050
524 0.000037
525 0.000037
526 0.000034
527 0.000044
528 0.000051
529 0.000068
530 0.000072
531 0.000079
532 0.000069
533 0.000071
534 0.000080
535 0.000079
536 0.000085
537 0.000075
538 0.000057
539 0.000048
540 0.000027
541 0.000017
542 -0.000003
543 -0.000015
544 -0.000025
545 -0.000047
546 -0.000042
547 -0.000024
548 -0.000018
549 0.000014
550 0.000028
551 0.000009
552 -0.000018
553 -0.000048
554 -0.000082
555 -0.000113
556 -0.000128
557 -0.000117
558 -0.000104
559 -0.000088
560 -0.000053
561 -0.000025
562 0.000012
563 0.000041
564 0.000065
565 0.000096
566 0.000115
567 0.000109
568 0.000077
569 0.000064
570 0.000079
571 0.000086
572 0.000116
573 0.000156
574 0.000195
575 0.000223
576 0.000220
577 0.000202
578 0.000192
579 0.000183
580 0.000177
581 0.000173
582 0.000183
583 0.000187
584 0.000163
585 0.000158
586 0.000146
587 0.000118
588 0.000090
589 0.000073
590 0.000060
591 0.000032
592 0.000017
593 0.000005
594 0.000007
595 -0.000011
596 -0.000009
597 -0.000007
598 0.000017
599 0.000023
600 0.000043
601 0.000056
602 0.000072
603 0.000077
604 0.000073
605 0.000085
606 0.000091
607 0.000096
608 0.000101
609 0.000084
610 0.000071
611 0.000071
612 0.000077
613 0.000096
614 0.000126
615 0.000166
616 0.000194
617 0.000211
618 0.000202
619 0.000179
620 0.000161
621 0.000146
622 0.000151
623 0.000154
624 0.000143
625 0.000151
626 0.000176
627 0.000179
628 0.000184
629 0.000178
630 0.000173
631 0.000149
632 0.000124
633 0.000116
634 0.000108
635 0.000105
636 0.000118
637 0.000122
638 0.000144
639 0.000157
640 0.000156
641 0.000159
642 0.000165
643 0.000169
644 0.000161
645 0.000149
646 0.000139
647 0.000148
648 0.000165
649 0.000205
650 0.000252
651 0.000290
652 0.000313
653 0.000323
654 0.000331
655 0.000328
656 0.000319
657 0.000300
658 0.000289
659 0.000287
660 0.000274
661 0.000256
662 0.000230
663 0.000199
664 0.000196
665 0.000202
666 0.000215
667 0.000212
668 0.000191
669 0.000159
670 0.000135
671 0.000137
672 0.000135
673 0.000138
674 0.000138
675 0.000141
676 0.000125
677 0.000119
678 0.000128
679 0.000136
680 0.000150
681 0.000170
682 0.000185
683 0.000185
684 0.000174
685 0.000178
686 0.000198
687 0.000208
688 0.000233
689 0.000253
690 0.000278
691 0.000299
692 0.000317
693 0.000313
694 0.000299
695 0.000275
696 0.000242
697 0.000220
698 0.000203
699 0.000191
700 0.000178
701 0.000163
702 0.000173
703 0.000190
704 0.000184
705 0.000178
706 0.000166
707 0.000145
708 0.000127
709 0.000105
710 0.000092
711 0.000090
712 0.000079
713 0.000079
714 0.000086
715 0.000095
716 0.000103
717 0.000095
718 0.000095
719 0.000077
720 0.000057
721 0.000045
722 0.000036
723 0.000031
724 0.000038
725 0.000040
726 0.000041
727 0.000036
728 0.000045
729 0.000057
730 0.000038
731 0.000027
732 0.000010
733 -0.000020
734 -0.000040
735 -0.000040
736 -0.000021
737 -0.000006
738 0.000018
739 0.000048
740 0.000075
741 0.000081
742 0.000087
743 0.000093
744 0.000098
745 0.000091
746 0.000095
747 0.000101
748 0.000099
749 0.000085
750 0.000089
751 0.000082
752 0.000086
753 0.000096
754 0.000110
755 0.000116
756 0.000101
757 0.000078
758 0.000052
759 0.000029
760 0.000026
761 0.000037
762 0.000049
763 0.000060
764 0.000049
765 0.000033
766 0.000009
767 -0.000004
768 -0.000012
769 -0.000024
770 -0.000036
771 -0.000053
772 -0.000073
773 -0.000095
774 -0.000121
775 -0.000131
776 -0.000116
777 -0.000093
778 -0.000070
779 -0.000046
780 -0.000031
781 -0.000028
782 -0.000028
783 -0.000032
784 -0.000033
785 -0.000042
786 -0.000066
787 -0.000091
788 -0.000128
789 -0.000162
790 -0.000188
791 -0.000193
792 -0.000181
793 -0.000165
794 -0.000147
795 -0.000126
796 -0.000111
797 -0.000102
798 -0.000083
799 -0.000061
800 -0.000046
801 -0.000030
802 -0.000017
803 0.000006
804 0.000029
805 0.000044
806 0.000059
807 0.000065
808 0.000058
809 0.000038
