# i correlation
1 0.003251
2 0.002960
3 0.002709
4 0.002482
5 0.002289
6 0.002110
7 0.001976
8 0.001872
9 0.001738
10 0.001603
11 0.001478
12 0.001356
13 0.001223
14 0.001139
15 0.001086
16 0.001071
17 0.001079
18 0.001083
19 0.001073
20 0.001046
21 0.001034
22 0.001013
23 0.001010
24 0.001012
25 0.001009
26 0.001038
27 0.001049
28 0.001045
29 0.001030
30 0.001002
31 0.000988
32 0.000986
33 0.000984
34 0.000975
35 0.000972
36 0.000970
37 0.000967
38 0.000947
39 0.000906
40 0.000933
41 0.000974
42 0.000974
43 0.000981
44 0.000969
45 0.000995
46 0.001001
47 0.000982
48 0.001002
49 0.001027
50 0.001036
51 0.001024
52 0.001045
53 0.001061
54 0.001078
55 0.001071
56 0.001041
57 0.001016
58 0.000957
59 0.000886
60 0.000837
61 0.000824
62 0.000806
63 0.000802
64 0.000810
65 0.000838
66 0.000875
67 0.000897
68 0.000885
69 0.000893
70 0.000896
71 0.000916
72 0.000920
73 0.000918
74 0.000940
75 0.000910
76 0.000872
77 0.000849
78 0.000863
79 0.000837
80 0.000781
81 0.000724
82 0.000670
83 0.000632
84 0.000590
85 0.000564
86 0.000575
87 0.000570
88 0.000589
89 0.000602
90 0.000625
91 0.000617
92 0.000594
93 0.000567
94 0.000545
95 0.000552
96 0.000537
97 0.000516
98 0.000499
99 0.000508
100 0.000507
101 0.000503
102 0.000505
103 0.000524
104 0.000541
105 0.000567
106 0.000596
107 0.000606
108 0.000599
109 0.000536
110 0.000508
111 0.000497
112 0.000474
113 0.000463
114 0.000478
115 0.000530
116 0.000565
117 0.000590
118 0.000607
119 0.000659
120 0.000694
121 0.000713
122 0.000770
123 0.000821
124 0.000886
125 0.000918
126 0.000953
127 0.000986
128 0.001000
129 0.001017
130 0.001011
131 0.001009
132 0.001005
133 0.000984
134 0.000963
135 0.000941
136 0.000939
137 0.000927
138 0.000920
139 0.000917
140 0.000899
141 0.000909
142 0.000918
143 0.000914
144 0.000901
145 0.000891
146 0.000855
147 0.000818
148 0.000803
149 0.000793
150 0.000755
151 0.000719
152 0.000688
153 0.000662
154 0.000624
155 0.000625
156 0.000635
157 0.000650
158 0.000656
159 0.000655
160 0.000675
161 0.000663
162 0.000631
163 0.000599
164 0.000587
165 0.000595
166 0.000593
167 0.000598
168 0.000618
169 0.000616
170 0.000612
171 0.000599
172 0.000598
173 0.000568
174 0.000519
175 0.000478
176 0.000462
177 0.000468
178 0.000491
179 0.000502
180 0.000484
181 0.000450
182 0.000438
183 0.000421
184 0.000401
185 0.000401
186 0.000402
187 0.000403
188 0.000386
189 0.000396
190 0.000446
191 0.000466
192 0.000453
193 0.000457
194 0.000479
195 0.000536
196 0.000607
197 0.000660
198 0.000693
199 0.000710
200 0.000713
201 0.000710
202 0.000692
203 0.000684
204 0.000655
205 0.000647
206 0.000629
207 0.000620
208 0.000609
209 0.000582
210 0.000558
211 0.000531
212 0.000502
213 0.000479
214 0.000462
215 0.000433
216 0.000417
217 0.000405
218 0.000400
219 0.000403
220 0.000398
221 0.000430
222 0.000446
223 0.000465
224 0.000484
225 0.000520
226 0.000555
227 0.000591
228 0.000599
229 0.000594
230 0.000604
231 0.000617
232 0.000624
233 0.000672
234 0.000699
235 0.000738
236 0.000756
237 0.000747
238 0.000713
239 0.000680
240 0.000635
241 0.000563
242 0.000515
243 0.000481
244 0.000449
245 0.000406
246 0.000386
247 0.000371
248 0.000353
249 0.000308
250 0.000270
251 0.000268
252 0.000273
253 0.000297
254 0.000307
255 0.000296
256 0.000296
257 0.000310
258 0.000338
259 0.000369
260 0.000395
261 0.000457
262 0.000500
263 0.000529
264 0.000551
265 0.000563
266 0.000580
267 0.000564
268 0.000578
269 0.000586
270 0.000619
271 0.000650
272 0.000660
273 0.000682
274 0.000729
275 0.000768
276 0.000808
277 0.000833
278 0.000854
279 0.000880
280 0.000887
281 0.000875
282 0.000882
283 0.000854
284 0.000828
285 0.000806
286 0.000758
287 0.000727
288 0.000729
289 0.000713
290 0.000702
291 0.000680
292 0.000665
293 0.000613
294 0.000586
295 0.000531
296 0.000490
297 0.000470
298 0.000455
299 0.000451
300 0.000448
301 0.000436
302 0.000445
303 0.000438
304 0.000433
305 0.000403
306 0.000377
307 0.000353
308 0.000323
309 0.000295
310 0.000270
311 0.000248
312 0.000215
313 0.000194
314 0.000192
315 0.000185
316 0.000189
317 0.000177
318 0.000180
319 0.000164
320 0.000184
321 0.000195
322 0.000217
323 0.000232
324 0.000249
325 0.000282
326 0.000313
327 0.000356
328 0.000405
329 0.000435
330 0.000457
331 0.000495
332 0.000538
333 0.000546
334 0.000534
335 0.000495
336 0.000453
337 0.000409
338 0.000381
339 0.000389
340 0.000395
341 0.000375
342 0.000373
343 0.000379
344 0.000377
345 0.000375
346 0.000373
347 0.000370
348 0.000396
349 0.000426
350 0.000490
351 0.000537
352 0.000553
353 0.000575
354 0.000589
355 0.000588
356 0.000594
357 0.000596
358 0.000595
359 0.000576
360 0.000563
361 0.000551
362 0.000532
363 0.000521
364 0.000505
365 0.000484
366 0.000491
367 0.000479
368 0.000490
369 0.000517
370 0.000495
371 0.000469
372 0.000444
373 0.000419
374 0.000400
375 0.000357
376 0.000335
377 0.000339
378 0.000341
379 0.000320
380 0.000298
381 0.000291
382 0.000279
383 0.000251
384 0.000228
385 0.000230
386 0.000230
387 0.000225
388 0.000209
389 0.000171
390 0.000137
391 0.000100
392 0.000078
393 0.000063
394 0.000073
395 0.000104
396 0.000156
397 0.000180
398 0.000225
399 0.000275
400 0.000301
401 0.000318
402 0.000349
403 0.000396
404 0.000455
405 0.000508
406 0.000553
407 0.000573
408 0.000565
409 0.000567
410 0.000560
411 0.000538
412 0.000509
413 0.000457
414 0.000423
415 0.000399
416 0.000372
417 0.000367
418 0.000376
419 0.000381
420 0.000368
421 0.000376
422 0.000389
423 0.000401
424 0.000405
425 0.000413
426 0.000446
427 0.000464
428 0.000487
429 0.000488
430 0.000479
431 0.000476
432 0.000454
433 0.000439
434 0.000406
435 0.000363
436 0.000330
437 0.000270
438 0.000201
439 0.000118
440 0.000057
441 -0.000006
442 -0.000062
443 -0.000098
444 -0.000127
445 -0.000141
446 -0.000158
447 -0.000147
448 -0.000117
449 -0.000077
450 -0.000044
451 -0.000017
452 0.000015
453 0.000031
454 0.000047
455 0.000078
456 0.000135
457 0.000186
458 0.000219
459 0.000258
460 0.000288
461 0.000319
462 0.000324
463 0.000295
464 0.000283
465 0.000235
466 0.000198
467 0.000165
468 0.000130
469 0.000138
470 0.000157
471 0.000154
472 0.000140
473 0.000136
474 0.000141
475 0.000153
476 0.000170
477 0.000210
478 0.000238
479 0.000250
480 0.000258
481 0.000250
482 0.000266
483 0.000271
484 0.000281
485 0.000289
486 0.000278
487 0.000278
488 0.000305
489 0.000339
490 0.000363
491 0.000357
492 0.000357
493 0.000370
494 0.000355
495 0.000360
496 0.000363
497 0.000390
498 0.000406
499 0.000421
500 0.000437
501 0.000450
502 0.000444
503 0.000418
504 0.000410
505 0.000425
506 0.000421
507 0.000416
508 0.000375
509 0.000339
510 0.000333
511 0.000339
512 0.000338
513 0.000315
514 0.000303
515 0.000293
516 0.000277
517 0.000263
518 0.000263
519 0.000246
520 0.000204
521 0.000181
522 0.000174
523 0.000168
524 0.000162
525 0.000167
526 0.000158
527 0.000157
528 0.000149
529 0.000149
530 0.000167
531 0.000171
532 0.000164
533 0.000161
534 0.000149
535 0.000145
536 0.000147
537 0.000160
538 0.000182
539 0.000190
540 0.000198
541 0.000211
542 0.000221
543 0.000216
544 0.000204
545 0.000187
546 0.000176
547 0.000178
548 0.000177
549 0.000161
550 0.000157
551 0.000147
552 0.000122
553 0.000117
554 0.000120
555 0.000141
556 0.000164
557 0.000172
558 0.000172
559 0.000173
560 0.000168
561 0.000164
562 0.000156
563 0.000135
564 0.000153
565 0.000157
566 0.000154
567 0.000159
568 0.000153
569 0.000127
570 0.000094
571 0.000055
572 0.000012
573 -0.000018
574 -0.000051
575 -0.000067
576 -0.000079
577 -0.000076
578 -0.000065
579 -0.000053
580 -0.000076
581 -0.000094
582 -0.000111
583 -0.000119
584 -0.000137
585 -0.000129
586 -0.000110
587 -0.000093
588 -0.000072
589 -0.000076
590 -0.000073
591 -0.000077
592 -0.000088
593 -0.000089
594 -0.000091
595 -0.000085
596 -0.000053
597 -0.000025
598 -0.000009
599 0.000001
600 0.000006
601 0.000018
602 0.000034
603 0.000025
604 0.000051
605 0.000084
606 0.000096
607 0.000095
608 0.000098
609 0.000092
610 0.000081
611 0.000076
612 0.000082
613 0.000087
614 0.000088
615 0.000079
616 0.000071
617 0.000061
618 0.000039
619 0.000029
620 0.000026
621 0.000032
622 0.000047
623 0.000039
624 0.000031
625 0.000024
626 0.000013
627 0.000008
628 0.000019
629 0.000019
630 0.000012
631 0.000025
632 0.000055
633 0.000090
634 0.000107
635 0.000102
636 0.000110
637 0.000098
638 0.000089
639 0.000078
640 0.000079
641 0.000053
642 0.000045
643 0.000036
644 0.000032
645 0.000019
646 0.000006
647 0.000009
648 0.000019
649 0.000024
650 0.000020
651 -0.000005
652 -0.000013
653 -0.000012
654 0.000004
655 0.000018
656 0.000036
657 0.000066
658 0.000080
659 0.000090
660 0.000103
661 0.000115
662 0.000103
663 0.000103
664 0.000090
665 0.000079
666 0.000082
667 0.000084
668 0.000086
669 0.000096
670 0.000085
671 0.000068
672 0.000034
673 -0.000001
674 -0.000031
675 -0.000054
676 -0.000074
677 -0.000093
678 -0.000106
679 -0.000118
680 -0.000134
681 -0.000164
682 -0.000181
683 -0.000183
684 -0.000177
685 -0.000147
686 -0.000116
687 -0.000094
688 -0.000078
689 -0.000065
690 -0.000052
691 -0.000045
692 -0.000033
693 -0.000028
694 -0.000003
695 0.000029
696 0.000053
697 0.000073
698 0.000082
699 0.000064
700 0.000066
701 0.000075
702 0.000083
703 0.000095
704 0.000101
705 0.000091
706 0.000082
707 0.000066
708 0.000038
709 0.000028
710 0.000038
711 0.000053
712 0.000075
713 0.000072
714 0.000060
715 0.000040
716 0.000017
717 -0.000004
718 -0.000016
719 -0.000020
720 -0.000017
721 -0.000007
722 0.000009
723 0.000015
724 0.000014
725 0.000007
726 0.000004
727 0.000012
728 0.000026
729 0.000016
730 0.000017
731 -0.000000
732 -0.000001
733 -0.000011
734 -0.000033
735 -0.000029
736 -0.000025
737 -0.000012
738 0.000013
739 0.000040
740 0.000054
741 0.000071
742 0.000054
743 0.000043
744 0.000042
745 0.000044
746 0.000049
747 0.000052
748 0.000055
749 0.000063
750 0.000071
751 0.000092
752 0.000117
753 0.000132
754 0.000146
755 0.000163
756 0.000179
757 0.000187
758 0.000199
759 0.000212
760 0.000232
761 0.000240
762 0.000250
763 0.000256
764 0.000260
765 0.000267
766 0.000265
767 0.000263
768 0.000262
769 0.000252
770 0.000238
771 0.000224
772 0.000219
773 0.000218
774 0.000218
775 0.000224
776 0.000242
777 0.000267
778 0.000284
779 0.000294
780 0.000294
781 0.000292
782 0.000291
783 0.000289
784 0.000299
785 0.000309
786 0.000310
787 0.000299
788 0.000284
789 0.000262
790 0.000239
791 0.000223
792 0.000213
793 0.000216
794 0.000224
795 0.000222
796 0.000203
797 0.000189
798 0.000164
799 0.000143
800 0.000137
801 0.000134
802 0.000141
803 0.000144
804 0.000147
805 0.000144
806 0.000133
807 0.000114
808 0.000103
809 0.000103
