# i correlation
1 0.003018
2 0.002762
3 0.002546
4 0.002357
5 0.002215
6 0.002081
7 0.001989
8 0.001898
9 0.001838
10 0.001754
11 0.001664
12 0.001571
13 0.001491
14 0.001392
15 0.001306
16 0.001261
17 0.001216
18 0.001146
19 0.001105
20 0.001091
21 0.001041
22 0.001021
23 0.001022
24 0.001016
25 0.000986
26 0.000976
27 0.000957
28 0.000928
29 0.000913
30 0.000894
31 0.000912
32 0.000914
33 0.000902
34 0.000867
35 0.000849
36 0.000817
37 0.000760
38 0.000698
39 0.000675
40 0.000676
41 0.000668
42 0.000694
43 0.000718
44 0.000739
45 0.000752
46 0.000749
47 0.000753
48 0.000760
49 0.000766
50 0.000779
51 0.000782
52 0.000808
53 0.000793
54 0.000763
55 0.000732
56 0.000716
57 0.000689
58 0.000671
59 0.000664
60 0.000663
61 0.000669
62 0.000693
63 0.000702
64 0.000706
65 0.000694
66 0.000688
67 0.000676
68 0.000650
69 0.000629
70 0.000598
71 0.000610
72 0.000617
73 0.000612
74 0.000615
75 0.000637
76 0.000633
77 0.000664
78 0.000691
79 0.000730
80 0.000766
81 0.000785
82 0.000764
83 0.000748
84 0.000756
85 0.000738
86 0.000719
87 0.000727
88 0.000744
89 0.000761
90 0.000797
91 0.000837
92 0.000877
93 0.000910
94 0.000924
95 0.000952
96 0.000939
97 0.000947
98 0.000941
99 0.000925
100 0.000931
101 0.000914
102 0.000881
103 0.000853
104 0.000826
105 0.000798
106 0.000776
107 0.000768
108 0.000752
109 0.000740
110 0.000728
111 0.000711
112 0.000684
113 0.000643
114 0.000619
115 0.000620
116 0.000638
117 0.000659
118 0.000666
119 0.000672
120 0.000672
121 0.000590
122 0.000513
123 0.000511
124 0.000495
125 0.000470
126 0.000469
127 0.000455
128 0.000431
129 0.000408
130 0.000363
131 0.000313
132 0.000256
133 0.000249
134 0.000237
135 0.000217
136 0.000215
137 0.000214
138 0.000191
139 0.000194
140 0.000215
141 0.000225
142 0.000239
143 0.000251
144 0.000271
145 0.000284
146 0.000309
147 0.000333
148 0.000367
149 0.000396
150 0.000432
151 0.000455
152 0.000459
153 0.000461
154 0.000462
155 0.000481
156 0.000480
157 0.000468
158 0.000472
159 0.000473
160 0.000475
161 0.000440
162 0.000412
163 0.000397
164 0.000375
165 0.000372
166 0.000363
167 0.000349
168 0.000360
169 0.000380
170 0.000413
171 0.000436
172 0.000474
173 0.000528
174 0.000523
175 0.000552
176 0.000568
177 0.000594
178 0.000614
179 0.000672
180 0.000729
181 0.000795
182 0.000855
183 0.000920
184 0.000938
185 0.000940
186 0.000934
187 0.000902
188 0.000886
189 0.000885
190 0.000894
191 0.000911
192 0.000934
193 0.000937
194 0.000927
195 0.000920
196 0.000889
197 0.000903
198 0.000875
199 0.000855
200 0.000833
201 0.000814
202 0.000806
203 0.000770
204 0.000760
205 0.000718
206 0.000687
207 0.000675
208 0.000671
209 0.000619
210 0.000618
211 0.000591
212 0.000558
213 0.000545
214 0.000508
215 0.000486
216 0.000447
217 0.000440
218 0.000422
219 0.000402
220 0.000382
221 0.000358
222 0.000324
223 0.000316
224 0.000324
225 0.000326
226 0.000305
227 0.000320
228 0.000314
229 0.000290
230 0.000285
231 0.000293
232 0.000300
233 0.000295
234 0.000304
235 0.000325
236 0.000337
237 0.000338
238 0.000337
239 0.000340
240 0.000356
241 0.000354
242 0.000344
243 0.000364
244 0.000379
245 0.000366
246 0.000348
247 0.000331
248 0.000313
249 0.000293
250 0.000299
251 0.000304
252 0.000289
253 0.000277
254 0.000275
255 0.000252
256 0.000228
257 0.000186
258 0.000147
259 0.000115
260 0.000120
261 0.000100
262 0.000071
263 0.000071
264 0.000088
265 0.000094
266 0.000102
267 0.000147
268 0.000175
269 0.000197
270 0.000216
271 0.000229
272 0.000253
273 0.000278
274 0.000313
275 0.000363
276 0.000394
277 0.000428
278 0.000438
279 0.000450
280 0.000428
281 0.000404
282 0.000397
283 0.000398
284 0.000416
285 0.000403
286 0.000407
287 0.000409
288 0.000412
289 0.000423
290 0.000435
291 0.000461
292 0.000490
293 0.000504
294 0.000516
295 0.000513
296 0.000524
297 0.000546
298 0.000553
299 0.000589
300 0.000629
301 0.000658
302 0.000676
303 0.000675
304 0.000669
305 0.000634
306 0.000607
307 0.000568
308 0.000536
309 0.000527
310 0.000520
311 0.000492
312 0.000466
313 0.000425
314 0.000355
315 0.000300
316 0.000254
317 0.000229
318 0.000199
319 0.000174
320 0.000182
321 0.000179
322 0.000187
323 0.000185
324 0.000162
325 0.000145
326 0.000120
327 0.000112
328 0.000104
329 0.000065
330 0.000053
331 0.000074
332 0.000079
333 0.000100
334 0.000112
335 0.000107
336 0.000097
337 0.000096
338 0.000089
339 0.000111
340 0.000108
341 0.000103
342 0.000079
343 0.000085
344 0.000114
345 0.000116
346 0.000114
347 0.000115
348 0.000126
349 0.000105
350 0.000109
351 0.000125
352 0.000145
353 0.000164
354 0.000184
355 0.000200
356 0.000208
357 0.000216
358 0.000230
359 0.000220
360 0.000234
361 0.000228
362 0.000223
363 0.000222
364 0.000233
365 0.000253
366 0.000245
367 0.000248
368 0.000251
369 0.000252
370 0.000275
371 0.000282
372 0.000278
373 0.000276
374 0.000279
375 0.000286
376 0.000289
377 0.000281
378 0.000281
379 0.000284
380 0.000311
381 0.000324
382 0.000321
383 0.000334
384 0.000343
385 0.000345
386 0.000319
387 0.000319
388 0.000309
389 0.000312
390 0.000335
391 0.000347
392 0.000346
393 0.000354
394 0.000359
395 0.000380
396 0.000400
397 0.000405
398 0.000395
399 0.000365
400 0.000344
401 0.000325
402 0.000328
403 0.000345
404 0.000362
405 0.000359
406 0.000339
407 0.000334
408 0.000330
409 0.000332
410 0.000321
411 0.000293
412 0.000307
413 0.000300
414 0.000295
415 0.000278
416 0.000252
417 0.000252
418 0.000243
419 0.000249
420 0.000256
421 0.000259
422 0.000283
423 0.000312
424 0.000326
425 0.000319
426 0.000313
427 0.000302
428 0.000285
429 0.000293
430 0.000286
431 0.000284
432 0.000321
433 0.000339
434 0.000346
435 0.000350
436 0.000344
437 0.000323
438 0.000298
439 0.000264
440 0.000232
441 0.000193
442 0.000163
443 0.000129
444 0.000099
445 0.000066
446 0.000041
447 0.000018
448 0.000005
449 -0.000001
450 -0.000002
451 -0.000002
452 -0.000023
453 -0.000055
454 -0.000064
455 -0.000051
456 -0.000056
457 -0.000049
458 -0.000037
459 -0.000004
460 0.000020
461 0.000029
462 0.000039
463 0.000038
464 0.000052
465 0.000049
466 0.000048
467 0.000087
468 0.000118
469 0.000129
470 0.000147
471 0.000186
472 0.000208
473 0.000214
474 0.000249
475 0.000300
476 0.000339
477 0.000355
478 0.000366
479 0.000371
480 0.000399
481 0.000450
482 0.000476
483 0.000513
484 0.000544
485 0.000560
486 0.000578
487 0.000583
488 0.000592
489 0.000579
490 0.000572
491 0.000554
492 0.000546
493 0.000535
494 0.000544
495 0.000550
496 0.000534
497 0.000497
498 0.000466
499 0.000441
500 0.000431
501 0.000444
502 0.000446
503 0.000477
504 0.000504
505 0.000504
506 0.000482
507 0.000471
508 0.000436
509 0.000393
510 0.000374
511 0.000342
512 0.000323
513 0.000302
514 0.000321
515 0.000334
516 0.000347
517 0.000379
518 0.000373
519 0.000363
520 0.000365
521 0.000344
522 0.000321
523 0.000316
524 0.000331
525 0.000343
526 0.000351
527 0.000352
528 0.000340
529 0.000349
530 0.000357
531 0.000357
532 0.000356
533 0.000362
534 0.000366
535 0.000363
536 0.000373
537 0.000366
538 0.000363
539 0.000345
540 0.000335
541 0.000333
542 0.000314
543 0.000300
544 0.000272
545 0.000254
546 0.000237
547 0.000234
548 0.000244
549 0.000256
550 0.000260
551 0.000280
552 0.000295
553 0.000305
554 0.000307
555 0.000320
556 0.000322
557 0.000316
558 0.000306
559 0.000314
560 0.000332
561 0.000342
562 0.000356
563 0.000362
564 0.000369
565 0.000383
566 0.000393
567 0.000413
568 0.000466
569 0.000494
570 0.000498
571 0.000501
572 0.000482
573 0.000476
574 0.000445
575 0.000443
576 0.000453
577 0.000488
578 0.000527
579 0.000560
580 0.000578
581 0.000593
582 0.000606
583 0.000617
584 0.000620
585 0.000619
586 0.000607
587 0.000591
588 0.000575
589 0.000558
590 0.000528
591 0.000521
592 0.000518
593 0.000511
594 0.000505
595 0.000531
596 0.000529
597 0.000527
598 0.000536
599 0.000527
600 0.000534
601 0.000535
602 0.000528
603 0.000532
604 0.000533
605 0.000536
606 0.000504
607 0.000459
608 0.000415
609 0.000385
610 0.000352
611 0.000337
612 0.000331
613 0.000322
614 0.000329
615 0.000344
616 0.000345
617 0.000337
618 0.000334
619 0.000319
620 0.000307
621 0.000310
622 0.000309
623 0.000311
624 0.000312
625 0.000307
626 0.000308
627 0.000326
628 0.000330
629 0.000358
630 0.000366
631 0.000387
632 0.000384
633 0.000375
634 0.000369
635 0.000370
636 0.000375
637 0.000361
638 0.000330
639 0.000287
640 0.000287
641 0.000281
642 0.000262
643 0.000261
644 0.000277
645 0.000284
646 0.000278
647 0.000278
648 0.000271
649 0.000262
650 0.000263
651 0.000249
652 0.000243
653 0.000236
654 0.000222
655 0.000212
656 0.000214
657 0.000223
658 0.000223
659 0.000233
660 0.000250
661 0.000254
662 0.000260
663 0.000264
664 0.000272
665 0.000284
666 0.000299
667 0.000314
668 0.000333
669 0.000336
670 0.000329
671 0.000321
672 0.000325
673 0.000329
674 0.000334
675 0.000341
676 0.000361
677 0.000385
678 0.000403
679 0.000410
680 0.000427
681 0.000427
682 0.000419
683 0.000409
684 0.000391
685 0.000378
686 0.000363
687 0.000352
688 0.000340
689 0.000327
690 0.000294
691 0.000272
692 0.000253
693 0.000241
694 0.000220
695 0.000199
696 0.000189
697 0.000178
698 0.000179
699 0.000181
700 0.000194
701 0.000199
702 0.000202
703 0.000200
704 0.000192
705 0.000177
706 0.000176
707 0.000171
708 0.000178
709 0.000196
710 0.000200
711 0.000218
712 0.000217
713 0.000213
714 0.000203
715 0.000202
716 0.000197
717 0.000180
718 0.000179
719 0.000188
720 0.000200
721 0.000207
722 0.000212
723 0.000208
724 0.000221
725 0.000205
726 0.000201
727 0.000197
728 0.000208
729 0.000206
730 0.000197
731 0.000185
732 0.000190
733 0.000198
734 0.000216
735 0.000230
736 0.000237
737 0.000251
738 0.000251
739 0.000252
740 0.000248
741 0.000243
742 0.000242
743 0.000255
744 0.000262
745 0.000271
746 0.000291
747 0.000303
748 0.000312
749 0.000306
750 0.000295
751 0.000295
752 0.000293
753 0.000300
754 0.000310
755 0.000325
756 0.000337
757 0.000342
758 0.000340
759 0.000340
760 0.000358
761 0.000375
762 0.000377
763 0.000387
764 0.000381
765 0.000379
766 0.000369
767 0.000359
768 0.000367
769 0.000372
770 0.000388
771 0.000387
772 0.000397
773 0.000402
774 0.000405
775 0.000408
776 0.000400
777 0.000405
778 0.000414
779 0.000422
780 0.000436
781 0.000449
782 0.000457
783 0.000461
784 0.000469
785 0.000467
786 0.000478
787 0.000493
788 0.000505
789 0.000514
790 0.000514
791 0.000501
792 0.000495
793 0.000486
794 0.000485
795 0.000478
796 0.000484
797 0.000472
798 0.000459
799 0.000446
800 0.000422
801 0.000406
802 0.000388
803 0.000373
804 0.000354
805 0.000344
806 0.000345
807 0.000340
808 0.000348
809 0.000344
