# i correlation
1 0.003926
2 0.003605
3 0.003370
4 0.003167
5 0.003030
6 0.002866
7 0.002728
8 0.002607
9 0.002492
10 0.002379
11 0.002289
12 0.002245
13 0.002221
14 0.002178
15 0.002158
16 0.002152
17 0.002136
18 0.002106
19 0.002064
20 0.002035
21 0.002022
22 0.002027
23 0.002013
24 0.002007
25 0.002011
26 0.001949
27 0.001897
28 0.001849
29 0.001779
30 0.001736
31 0.001694
32 0.001679
33 0.001669
34 0.001628
35 0.001619
36 0.001625
37 0.001616
38 0.001601
39 0.001596
40 0.001610
41 0.001611
42 0.001612
43 0.001578
44 0.001566
45 0.001547
46 0.001526
47 0.001494
48 0.001439
49 0.001475
50 0.001488
51 0.001469
52 0.001471
53 0.001486
54 0.001522
55 0.001562
56 0.001552
57 0.001573
58 0.001581
59 0.001598
60 0.001635
61 0.001658
62 0.001690
63 0.001737
64 0.001759
65 0.001756
66 0.001768
67 0.001764
68 0.001726
69 0.001673
70 0.001616
71 0.001581
72 0.001544
73 0.001517
74 0.001489
75 0.001493
76 0.001497
77 0.001538
78 0.001564
79 0.001584
80 0.001606
81 0.001573
82 0.001557
83 0.001534
84 0.001486
85 0.001485
86 0.001506
87 0.001574
88 0.001592
89 0.001591
90 0.001616
91 0.001673
92 0.001704
93 0.001713
94 0.001705
95 0.001676
96 0.001655
97 0.001614
98 0.001580
99 0.001559
100 0.001552
101 0.001513
102 0.001463
103 0.001452
104 0.001493
105 0.001491
106 0.001472
107 0.001471
108 0.001482
109 0.001502
110 0.001511
111 0.001498
112 0.001501
113 0.001489
114 0.001478
115 0.001496
116 0.001473
117 0.001457
118 0.001408
119 0.001353
120 0.001322
121 0.001283
122 0.001272
123 0.001286
124 0.001294
125 0.001286
126 0.001287
127 0.001305
128 0.001320
129 0.001361
130 0.001371
131 0.001361
132 0.001368
133 0.001406
134 0.001402
135 0.001371
136 0.001336
137 0.001285
138 0.001202
139 0.001134
140 0.001144
141 0.001138
142 0.001133
143 0.001103
144 0.001073
145 0.001064
146 0.001057
147 0.001042
148 0.001062
149 0.001061
150 0.001071
151 0.001082
152 0.001030
153 0.001020
154 0.001018
155 0.001052
156 0.001063
157 0.001057
158 0.001082
159 0.001083
160 0.001066
161 0.001029
162 0.001002
163 0.001000
164 0.000966
165 0.000947
166 0.000932
167 0.000943
168 0.000966
169 0.000979
170 0.000998
171 0.000986
172 0.000990
173 0.001001
174 0.001019
175 0.001025
176 0.001031
177 0.001003
178 0.000960
179 0.000937
180 0.000930
181 0.000939
182 0.000940
183 0.000967
184 0.001014
185 0.001031
186 0.001035
187 0.001005
188 0.000980
189 0.000961
190 0.001003
191 0.001065
192 0.001113
193 0.001118
194 0.001120
195 0.001152
196 0.001147
197 0.001139
198 0.001136
199 0.001137
200 0.001164
201 0.001185
202 0.001189
203 0.001204
204 0.001214
205 0.001227
206 0.001224
207 0.001243
208 0.001268
209 0.001245
210 0.001227
211 0.001183
212 0.001157
213 0.001167
214 0.001132
215 0.001086
216 0.001038
217 0.000982
218 0.000911
219 0.000869
220 0.000852
221 0.000845
222 0.000856
223 0.000863
224 0.000835
225 0.000839
226 0.000857
227 0.000894
228 0.000917
229 0.000945
230 0.000979
231 0.001008
232 0.001022
233 0.001034
234 0.001058
235 0.001051
236 0.001063
237 0.001083
238 0.001107
239 0.001118
240 0.001130
241 0.001115
242 0.001079
243 0.001036
244 0.000997
245 0.000999
246 0.001005
247 0.001014
248 0.000985
249 0.000972
250 0.000996
251 0.001001
252 0.001022
253 0.001039
254 0.001037
255 0.001037
256 0.001038
257 0.001070
258 0.001123
259 0.001189
260 0.001217
261 0.001215
262 0.001232
263 0.001276
264 0.001299
265 0.001303
266 0.001301
267 0.001306
268 0.001277
269 0.001221
270 0.001178
271 0.001154
272 0.001156
273 0.001155
274 0.001139
275 0.001115
276 0.001063
277 0.001013
278 0.000999
279 0.000970
280 0.000947
281 0.000906
282 0.000865
283 0.000865
284 0.000881
285 0.000885
286 0.000876
287 0.000841
288 0.000840
289 0.000828
290 0.000824
291 0.000845
292 0.000861
293 0.000863
294 0.000869
295 0.000867
296 0.000905
297 0.000906
298 0.000878
299 0.000893
300 0.000899
301 0.000899
302 0.000858
303 0.000842
304 0.000823
305 0.000763
306 0.000704
307 0.000629
308 0.000582
309 0.000555
310 0.000530
311 0.000485
312 0.000420
313 0.000408
314 0.000423
315 0.000418
316 0.000477
317 0.000527
318 0.000543
319 0.000565
320 0.000571
321 0.000573
322 0.000575
323 0.000547
324 0.000534
325 0.000563
326 0.000589
327 0.000584
328 0.000570
329 0.000537
330 0.000542
331 0.000556
332 0.000586
333 0.000582
334 0.000573
335 0.000568
336 0.000540
337 0.000505
338 0.000495
339 0.000489
340 0.000484
341 0.000513
342 0.000514
343 0.000525
344 0.000542
345 0.000559
346 0.000568
347 0.000551
348 0.000513
349 0.000504
350 0.000535
351 0.000543
352 0.000548
353 0.000558
354 0.000564
355 0.000583
356 0.000609
357 0.000625
358 0.000661
359 0.000681
360 0.000686
361 0.000662
362 0.000620
363 0.000624
364 0.000578
365 0.000537
366 0.000543
367 0.000549
368 0.000549
369 0.000522
370 0.000499
371 0.000519
372 0.000517
373 0.000482
374 0.000474
375 0.000466
376 0.000468
377 0.000455
378 0.000444
379 0.000421
380 0.000419
381 0.000404
382 0.000398
383 0.000406
384 0.000404
385 0.000395
386 0.000372
387 0.000368
388 0.000367
389 0.000352
390 0.000328
391 0.000326
392 0.000342
393 0.000339
394 0.000326
395 0.000349
396 0.000388
397 0.000408
398 0.000402
399 0.000402
400 0.000412
401 0.000412
402 0.000373
403 0.000340
404 0.000330
405 0.000344
406 0.000320
407 0.000316
408 0.000365
409 0.000410
410 0.000436
411 0.000442
412 0.000444
413 0.000484
414 0.000535
415 0.000572
416 0.000573
417 0.000578
418 0.000574
419 0.000535
420 0.000541
421 0.000555
422 0.000565
423 0.000587
424 0.000594
425 0.000587
426 0.000595
427 0.000594
428 0.000562
429 0.000539
430 0.000532
431 0.000515
432 0.000509
433 0.000504
434 0.000503
435 0.000513
436 0.000512
437 0.000525
438 0.000527
439 0.000511
440 0.000483
441 0.000482
442 0.000461
443 0.000457
444 0.000468
445 0.000490
446 0.000501
447 0.000511
448 0.000489
449 0.000505
450 0.000550
451 0.000561
452 0.000540
453 0.000522
454 0.000518
455 0.000513
456 0.000471
457 0.000409
458 0.000361
459 0.000386
460 0.000402
461 0.000394
462 0.000385
463 0.000372
464 0.000376
465 0.000362
466 0.000356
467 0.000373
468 0.000375
469 0.000381
470 0.000379
471 0.000355
472 0.000333
473 0.000307
474 0.000278
475 0.000264
476 0.000254
477 0.000248
478 0.000237
479 0.000210
480 0.000191
481 0.000147
482 0.000113
483 0.000099
484 0.000088
485 0.000102
486 0.000142
487 0.000196
488 0.000228
489 0.000252
490 0.000280
491 0.000302
492 0.000333
493 0.000340
494 0.000339
495 0.000332
496 0.000314
497 0.000251
498 0.000199
499 0.000176
500 0.000187
501 0.000219
502 0.000235
503 0.000221
504 0.000240
505 0.000275
506 0.000271
507 0.000283
508 0.000297
509 0.000308
510 0.000318
511 0.000334
512 0.000354
513 0.000360
514 0.000362
515 0.000337
516 0.000317
517 0.000309
518 0.000303
519 0.000289
520 0.000276
521 0.000247
522 0.000229
523 0.000227
524 0.000249
525 0.000254
526 0.000276
527 0.000306
528 0.000316
529 0.000336
530 0.000392
531 0.000432
532 0.000471
533 0.000491
534 0.000485
535 0.000459
536 0.000455
537 0.000462
538 0.000474
539 0.000479
540 0.000465
541 0.000455
542 0.000443
543 0.000421
544 0.000397
545 0.000361
546 0.000348
547 0.000350
548 0.000328
549 0.000321
550 0.000326
551 0.000358
552 0.000359
553 0.000347
554 0.000351
555 0.000349
556 0.000356
557 0.000369
558 0.000357
559 0.000334
560 0.000313
561 0.000284
562 0.000260
563 0.000237
564 0.000241
565 0.000229
566 0.000232
567 0.000216
568 0.000192
569 0.000170
570 0.000127
571 0.000097
572 0.000056
573 0.000032
574 0.000012
575 -0.000021
576 -0.000034
577 -0.000040
578 -0.000041
579 -0.000031
580 -0.000048
581 -0.000047
582 -0.000054
583 -0.000059
584 -0.000064
585 -0.000072
586 -0.000089
587 -0.000110
588 -0.000150
589 -0.000176
590 -0.000190
591 -0.000214
592 -0.000205
593 -0.000193
594 -0.000185
595 -0.000169
596 -0.000158
597 -0.000131
598 -0.000112
599 -0.000079
600 -0.000020
601 0.000017
602 0.000019
603 0.000003
604 -0.000001
605 0.000004
606 0.000025
607 0.000035
608 0.000021
609 -0.000001
610 -0.000003
611 -0.000009
612 -0.000040
613 -0.000069
614 -0.000098
615 -0.000119
616 -0.000126
617 -0.000101
618 -0.000046
619 0.000014
620 0.000062
621 0.000076
622 0.000095
623 0.000123
624 0.000152
625 0.000169
626 0.000151
627 0.000150
628 0.000151
629 0.000151
630 0.000161
631 0.000172
632 0.000145
633 0.000109
634 0.000097
635 0.000083
636 0.000080
637 0.000073
638 0.000061
639 0.000034
640 0.000019
641 0.000018
642 0.000035
643 0.000039
644 0.000062
645 0.000089
646 0.000119
647 0.000153
648 0.000163
649 0.000168
650 0.000161
651 0.000158
652 0.000144
653 0.000114
654 0.000101
655 0.000107
656 0.000120
657 0.000110
658 0.000107
659 0.000100
660 0.000110
661 0.000124
662 0.000136
663 0.000163
664 0.000192
665 0.000180
666 0.000181
667 0.000197
668 0.000212
669 0.000212
670 0.000199
671 0.000183
672 0.000194
673 0.000204
674 0.000219
675 0.000229
676 0.000224
677 0.000225
678 0.000208
679 0.000190
680 0.000190
681 0.000187
682 0.000169
683 0.000159
684 0.000164
685 0.000165
686 0.000179
687 0.000186
688 0.000190
689 0.000184
690 0.000165
691 0.000171
692 0.000150
693 0.000150
694 0.000137
695 0.000120
696 0.000114
697 0.000121
698 0.000122
699 0.000135
700 0.000147
701 0.000151
702 0.000163
703 0.000151
704 0.000141
705 0.000136
706 0.000122
707 0.000114
708 0.000111
709 0.000099
710 0.000080
711 0.000077
712 0.000078
713 0.000079
714 0.000093
715 0.000109
716 0.000120
717 0.000121
718 0.000121
719 0.000127
720 0.000099
721 0.000089
722 0.000087
723 0.000093
724 0.000109
725 0.000101
726 0.000093
727 0.000097
728 0.000087
729 0.000082
730 0.000081
731 0.000083
732 0.000082
733 0.000085
734 0.000096
735 0.000105
736 0.000106
737 0.000105
738 0.000103
739 0.000104
740 0.000125
741 0.000150
742 0.000176
743 0.000198
744 0.000203
745 0.000209
746 0.000218
747 0.000216
748 0.000214
749 0.000211
750 0.000200
751 0.000207
752 0.000220
753 0.000227
754 0.000244
755 0.000272
756 0.000270
757 0.000264
758 0.000258
759 0.000252
760 0.000256
761 0.000251
762 0.000230
763 0.000226
764 0.000227
765 0.000217
766 0.000210
767 0.000208
768 0.000215
769 0.000209
770 0.000206
771 0.000218
772 0.000217
773 0.000221
774 0.000205
775 0.000192
776 0.000201
777 0.000207
778 0.000206
779 0.000205
780 0.000203
781 0.000190
782 0.000177
783 0.000162
784 0.000154
785 0.000153
786 0.000147
787 0.000139
788 0.000129
789 0.000123
790 0.000110
791 0.000113
792 0.000129
793 0.000132
794 0.000130
795 0.000146
796 0.000175
797 0.000195
798 0.000208
799 0.000205
800 0.000207
801 0.000222
802 0.000223
803 0.000221
804 0.000225
805 0.000222
806 0.000225
807 0.000217
808 0.000224
809 0.000235
