# i correlation
1 0.003269
2 0.002922
3 0.002626
4 0.002384
5 0.002206
6 0.002084
7 0.001965
8 0.001880
9 0.001844
10 0.001779
11 0.001787
12 0.001757
13 0.001712
14 0.001657
15 0.001629
16 0.001600
17 0.001606
18 0.001605
19 0.001581
20 0.001580
21 0.001569
22 0.001587
23 0.001592
24 0.001634
25 0.001628
26 0.001678
27 0.001651
28 0.001604
29 0.001553
30 0.001511
31 0.001477
32 0.001427
33 0.001358
34 0.001314
35 0.001324
36 0.001337
37 0.001392
38 0.001427
39 0.001479
40 0.001499
41 0.001551
42 0.001602
43 0.001669
44 0.001716
45 0.001718
46 0.001703
47 0.001689
48 0.001706
49 0.001688
50 0.001630
51 0.001570
52 0.001522
53 0.001462
54 0.001450
55 0.001487
56 0.001501
57 0.001496
58 0.001466
59 0.001450
60 0.001443
61 0.001441
62 0.001413
63 0.001431
64 0.001454
65 0.001456
66 0.001458
67 0.001455
68 0.001490
69 0.001493
70 0.001475
71 0.001456
72 0.001429
73 0.001382
74 0.001341
75 0.001300
76 0.001237
77 0.001216
78 0.001172
79 0.001181
80 0.001161
81 0.001144
82 0.001120
83 0.001135
84 0.001165
85 0.001156
86 0.001226
87 0.001244
88 0.001258
89 0.001248
90 0.001262
91 0.001265
92 0.001250
93 0.001226
94 0.001198
95 0.001180
96 0.001164
97 0.001162
98 0.001141
99 0.001118
100 0.001057
101 0.001007
102 0.000966
103 0.000976
104 0.001026
105 0.001077
106 0.001094
107 0.001111
108 0.001140
109 0.001121
110 0.001121
111 0.001095
112 0.001080
113 0.001042
114 0.001020
115 0.000989
116 0.000996
117 0.001014
118 0.001005
119 0.000975
120 0.000990
121 0.000987
122 0.000952
123 0.000986
124 0.000958
125 0.000968
126 0.000940
127 0.000939
128 0.000957
129 0.001007
130 0.001035
131 0.001060
132 0.001085
133 0.001070
134 0.001061
135 0.001044
136 0.001040
137 0.001010
138 0.001028
139 0.001017
140 0.001000
141 0.000972
142 0.000954
143 0.000925
144 0.000888
145 0.000853
146 0.000789
147 0.000791
148 0.000762
149 0.000812
150 0.000842
151 0.000868
152 0.000908
153 0.000957
154 0.000966
155 0.000937
156 0.000924
157 0.000884
158 0.000868
159 0.000852
160 0.000855
161 0.000851
162 0.000835
163 0.000820
164 0.000795
165 0.000771
166 0.000753
167 0.000725
168 0.000697
169 0.000695
170 0.000674
171 0.000652
172 0.000639
173 0.000626
174 0.000641
175 0.000689
176 0.000731
177 0.000769
178 0.000772
179 0.000754
180 0.000783
181 0.000789
182 0.000771
183 0.000746
184 0.000722
185 0.000646
186 0.000591
187 0.000548
188 0.000548
189 0.000567
190 0.000588
191 0.000612
192 0.000634
193 0.000663
194 0.000661
195 0.000670
196 0.000675
197 0.000697
198 0.000740
199 0.000756
200 0.000810
201 0.000830
202 0.000841
203 0.000830
204 0.000819
205 0.000754
206 0.000718
207 0.000670
208 0.000649
209 0.000652
210 0.000639
211 0.000635
212 0.000600
213 0.000571
214 0.000540
215 0.000541
216 0.000521
217 0.000533
218 0.000550
219 0.000596
220 0.000613
221 0.000626
222 0.000623
223 0.000606
224 0.000611
225 0.000619
226 0.000611
227 0.000590
228 0.000579
229 0.000548
230 0.000519
231 0.000502
232 0.000501
233 0.000500
234 0.000498
235 0.000484
236 0.000444
237 0.000465
238 0.000471
239 0.000492
240 0.000545
241 0.000573
242 0.000579
243 0.000603
244 0.000621
245 0.000630
246 0.000684
247 0.000702
248 0.000698
249 0.000711
250 0.000701
251 0.000659
252 0.000608
253 0.000542
254 0.000485
255 0.000453
256 0.000400
257 0.000363
258 0.000359
259 0.000361
260 0.000374
261 0.000434
262 0.000459
263 0.000467
264 0.000460
265 0.000457
266 0.000467
267 0.000506
268 0.000549
269 0.000570
270 0.000595
271 0.000592
272 0.000637
273 0.000666
274 0.000685
275 0.000679
276 0.000658
277 0.000641
278 0.000599
279 0.000579
280 0.000578
281 0.000613
282 0.000632
283 0.000662
284 0.000666
285 0.000685
286 0.000691
287 0.000735
288 0.000802
289 0.000874
290 0.000929
291 0.000935
292 0.000942
293 0.000904
294 0.000856
295 0.000811
296 0.000776
297 0.000735
298 0.000728
299 0.000712
300 0.000715
301 0.000730
302 0.000721
303 0.000688
304 0.000634
305 0.000617
306 0.000579
307 0.000562
308 0.000552
309 0.000552
310 0.000556
311 0.000578
312 0.000583
313 0.000573
314 0.000603
315 0.000627
316 0.000691
317 0.000725
318 0.000751
319 0.000777
320 0.000800
321 0.000812
322 0.000782
323 0.000750
324 0.000726
325 0.000710
326 0.000689
327 0.000688
328 0.000678
329 0.000698
330 0.000710
331 0.000712
332 0.000734
333 0.000748
334 0.000745
335 0.000733
336 0.000716
337 0.000692
338 0.000704
339 0.000691
340 0.000692
341 0.000690
342 0.000706
343 0.000706
344 0.000713
345 0.000726
346 0.000725
347 0.000739
348 0.000732
349 0.000728
350 0.000693
351 0.000677
352 0.000650
353 0.000633
354 0.000605
355 0.000564
356 0.000509
357 0.000474
358 0.000458
359 0.000467
360 0.000497
361 0.000526
362 0.000535
363 0.000528
364 0.000553
365 0.000561
366 0.000585
367 0.000613
368 0.000596
369 0.000605
370 0.000619
371 0.000651
372 0.000669
373 0.000687
374 0.000659
375 0.000652
376 0.000684
377 0.000698
378 0.000721
379 0.000755
380 0.000762
381 0.000788
382 0.000793
383 0.000756
384 0.000743
385 0.000723
386 0.000707
387 0.000711
388 0.000727
389 0.000708
390 0.000694
391 0.000698
392 0.000688
393 0.000722
394 0.000720
395 0.000713
396 0.000714
397 0.000686
398 0.000671
399 0.000668
400 0.000656
401 0.000609
402 0.000563
403 0.000524
404 0.000519
405 0.000542
406 0.000543
407 0.000557
408 0.000605
409 0.000627
410 0.000632
411 0.000623
412 0.000620
413 0.000604
414 0.000582
415 0.000576
416 0.000550
417 0.000539
418 0.000549
419 0.000573
420 0.000616
421 0.000656
422 0.000668
423 0.000662
424 0.000659
425 0.000658
426 0.000648
427 0.000626
428 0.000594
429 0.000526
430 0.000508
431 0.000513
432 0.000506
433 0.000502
434 0.000507
435 0.000523
436 0.000535
437 0.000555
438 0.000563
439 0.000556
440 0.000523
441 0.000490
442 0.000480
443 0.000477
444 0.000499
445 0.000510
446 0.000509
447 0.000494
448 0.000481
449 0.000476
450 0.000484
451 0.000489
452 0.000526
453 0.000554
454 0.000539
455 0.000525
456 0.000499
457 0.000483
458 0.000459
459 0.000463
460 0.000466
461 0.000483
462 0.000473
463 0.000472
464 0.000467
465 0.000477
466 0.000461
467 0.000433
468 0.000446
469 0.000446
470 0.000479
471 0.000503
472 0.000513
473 0.000495
474 0.000488
475 0.000476
476 0.000480
477 0.000506
478 0.000489
479 0.000483
480 0.000477
481 0.000476
482 0.000506
483 0.000544
484 0.000564
485 0.000580
486 0.000592
487 0.000611
488 0.000622
489 0.000618
490 0.000597
491 0.000617
492 0.000642
493 0.000651
494 0.000652
495 0.000617
496 0.000586
497 0.000510
498 0.000458
499 0.000417
500 0.000388
501 0.000371
502 0.000364
503 0.000360
504 0.000351
505 0.000334
506 0.000313
507 0.000305
508 0.000303
509 0.000326
510 0.000336
511 0.000346
512 0.000359
513 0.000357
514 0.000363
515 0.000358
516 0.000367
517 0.000378
518 0.000391
519 0.000380
520 0.000401
521 0.000416
522 0.000423
523 0.000425
524 0.000414
525 0.000400
526 0.000377
527 0.000325
528 0.000300
529 0.000308
530 0.000349
531 0.000376
532 0.000393
533 0.000387
534 0.000385
535 0.000407
536 0.000421
537 0.000418
538 0.000404
539 0.000399
540 0.000408
541 0.000406
542 0.000400
543 0.000405
544 0.000381
545 0.000366
546 0.000342
547 0.000330
548 0.000328
549 0.000332
550 0.000323
551 0.000343
552 0.000341
553 0.000316
554 0.000293
555 0.000255
556 0.000233
557 0.000222
558 0.000206
559 0.000191
560 0.000189
561 0.000197
562 0.000213
563 0.000234
564 0.000227
565 0.000241
566 0.000250
567 0.000272
568 0.000271
569 0.000257
570 0.000236
571 0.000211
572 0.000207
573 0.000214
574 0.000236
575 0.000268
576 0.000290
577 0.000300
578 0.000320
579 0.000319
580 0.000318
581 0.000305
582 0.000292
583 0.000238
584 0.000217
585 0.000195
586 0.000183
587 0.000168
588 0.000189
589 0.000205
590 0.000219
591 0.000250
592 0.000250
593 0.000242
594 0.000224
595 0.000210
596 0.000195
597 0.000187
598 0.000201
599 0.000226
600 0.000253
601 0.000274
602 0.000295
603 0.000299
604 0.000312
605 0.000313
606 0.000318
607 0.000312
608 0.000339
609 0.000336
610 0.000344
611 0.000346
612 0.000345
613 0.000343
614 0.000359
615 0.000365
616 0.000385
617 0.000403
618 0.000388
619 0.000404
620 0.000410
621 0.000415
622 0.000420
623 0.000414
624 0.000391
625 0.000378
626 0.000387
627 0.000390
628 0.000389
629 0.000370
630 0.000371
631 0.000366
632 0.000366
633 0.000366
634 0.000374
635 0.000359
636 0.000365
637 0.000372
638 0.000368
639 0.000357
640 0.000360
641 0.000352
642 0.000344
643 0.000363
644 0.000354
645 0.000374
646 0.000394
647 0.000398
648 0.000385
649 0.000378
650 0.000347
651 0.000322
652 0.000315
653 0.000332
654 0.000370
655 0.000388
656 0.000405
657 0.000400
658 0.000391
659 0.000393
660 0.000396
661 0.000395
662 0.000397
663 0.000437
664 0.000455
665 0.000477
666 0.000485
667 0.000495
668 0.000526
669 0.000548
670 0.000567
671 0.000608
672 0.000618
673 0.000616
674 0.000622
675 0.000620
676 0.000610
677 0.000609
678 0.000580
679 0.000540
680 0.000517
681 0.000518
682 0.000519
683 0.000517
684 0.000512
685 0.000524
686 0.000539
687 0.000554
688 0.000549
689 0.000548
690 0.000536
691 0.000508
692 0.000497
693 0.000486
694 0.000479
695 0.000475
696 0.000481
697 0.000498
698 0.000523
699 0.000525
700 0.000535
701 0.000550
702 0.000555
703 0.000546
704 0.000508
705 0.000489
706 0.000460
707 0.000456
708 0.000447
709 0.000435
710 0.000430
711 0.000425
712 0.000455
713 0.000478
714 0.000488
715 0.000494
716 0.000509
717 0.000497
718 0.000485
719 0.000474
720 0.000483
721 0.000502
722 0.000497
723 0.000490
724 0.000483
725 0.000483
726 0.000503
727 0.000513
728 0.000504
729 0.000516
730 0.000499
731 0.000496
732 0.000493
733 0.000494
734 0.000510
735 0.000498
736 0.000474
737 0.000471
738 0.000483
739 0.000474
740 0.000485
741 0.000501
742 0.000522
743 0.000533
744 0.000524
745 0.000509
746 0.000478
747 0.000439
748 0.000391
749 0.000352
750 0.000331
751 0.000336
752 0.000338
753 0.000352
754 0.000361
755 0.000386
756 0.000392
757 0.000406
758 0.000411
759 0.000388
760 0.000386
761 0.000380
762 0.000364
763 0.000340
764 0.000349
765 0.000360
766 0.000372
767 0.000368
768 0.000376
769 0.000398
770 0.000409
771 0.000414
772 0.000421
773 0.000412
774 0.000391
775 0.000384
776 0.000406
777 0.000427
778 0.000427
779 0.000432
780 0.000442
781 0.000456
782 0.000470
783 0.000460
784 0.000458
785 0.000451
786 0.000457
787 0.000448
788 0.000444
789 0.000431
790 0.000401
791 0.000378
792 0.000367
793 0.000348
794 0.000344
795 0.000340
796 0.000336
797 0.000347
798 0.000355
799 0.000364
800 0.000362
801 0.000361
802 0.000370
803 0.000386
804 0.000384
805 0.000370
806 0.000364
807 0.000368
808 0.000373
809 0.000369
