# i correlation
1 0.002630
2 0.002316
3 0.002039
4 0.001828
5 0.001704
6 0.001565
7 0.001459
8 0.001367
9 0.001311
10 0.001260
11 0.001217
12 0.001171
13 0.001150
14 0.001164
15 0.001154
16 0.001143
17 0.001145
18 0.001148
19 0.001174
20 0.001188
21 0.001207
22 0.001213
23 0.001205
24 0.001191
25 0.001151
26 0.001109
27 0.001031
28 0.000962
29 0.000922
30 0.000888
31 0.000867
32 0.000857
33 0.000868
34 0.000869
35 0.000855
36 0.000849
37 0.000869
38 0.000888
39 0.000897
40 0.000893
41 0.000893
42 0.000875
43 0.000875
44 0.000844
45 0.000795
46 0.000759
47 0.000746
48 0.000738
49 0.000753
50 0.000757
51 0.000789
52 0.000808
53 0.000799
54 0.000809
55 0.000813
56 0.000827
57 0.000860
58 0.000884
59 0.000905
60 0.000915
61 0.000910
62 0.000940
63 0.000948
64 0.000958
65 0.000954
66 0.000926
67 0.000872
68 0.000809
69 0.000781
70 0.000749
71 0.000695
72 0.000638
73 0.000621
74 0.000614
75 0.000609
76 0.000638
77 0.000667
78 0.000704
79 0.000718
80 0.000717
81 0.000729
82 0.000713
83 0.000710
84 0.000697
85 0.000661
86 0.000675
87 0.000678
88 0.000661
89 0.000617
90 0.000579
91 0.000555
92 0.000548
93 0.000602
94 0.000604
95 0.000636
96 0.000662
97 0.000700
98 0.000730
99 0.000755
100 0.000814
101 0.000836
102 0.000890
103 0.000928
104 0.000940
105 0.000935
106 0.000937
107 0.000944
108 0.000949
109 0.000909
110 0.000856
111 0.000831
112 0.000813
113 0.000788
114 0.000771
115 0.000709
116 0.000699
117 0.000717
118 0.000726
119 0.000747
120 0.000749
121 0.000780
122 0.000784
123 0.000792
124 0.000781
125 0.000778
126 0.000810
127 0.000857
128 0.000898
129 0.000880
130 0.000881
131 0.000864
132 0.000830
133 0.000803
134 0.000764
135 0.000728
136 0.000686
137 0.000641
138 0.000621
139 0.000616
140 0.000622
141 0.000658
142 0.000669
143 0.000656
144 0.000619
145 0.000618
146 0.000619
147 0.000606
148 0.000560
149 0.000537
150 0.000534
151 0.000507
152 0.000497
153 0.000479
154 0.000474
155 0.000482
156 0.000493
157 0.000503
158 0.000491
159 0.000465
160 0.000468
161 0.000490
162 0.000514
163 0.000538
164 0.000572
165 0.000578
166 0.000585
167 0.000615
168 0.000640
169 0.000651
170 0.000633
171 0.000617
172 0.000630
173 0.000624
174 0.000612
175 0.000596
176 0.000541
177 0.000486
178 0.000452
179 0.000423
180 0.000410
181 0.000411
182 0.000417
183 0.000423
184 0.000415
185 0.000376
186 0.000347
187 0.000359
188 0.000376
189 0.000410
190 0.000455
191 0.000437
192 0.000422
193 0.000424
194 0.000424
195 0.000422
196 0.000373
197 0.000367
198 0.000360
199 0.000365
200 0.000372
201 0.000397
202 0.000401
203 0.000422
204 0.000433
205 0.000442
206 0.000470
207 0.000498
208 0.000510
209 0.000513
210 0.000517
211 0.000511
212 0.000521
213 0.000512
214 0.000524
215 0.000525
216 0.000528
217 0.000493
218 0.000459
219 0.000449
220 0.000438
221 0.000471
222 0.000494
223 0.000502
224 0.000510
225 0.000499
226 0.000498
227 0.000483
228 0.000474
229 0.000455
230 0.000449
231 0.000450
232 0.000433
233 0.000449
234 0.000444
235 0.000439
236 0.000435
237 0.000446
238 0.000474
239 0.000488
240 0.000523
241 0.000526
242 0.000513
243 0.000481
244 0.000467
245 0.000492
246 0.000465
247 0.000427
248 0.000352
249 0.000309
250 0.000254
251 0.000186
252 0.000131
253 0.000089
254 0.000067
255 0.000074
256 0.000090
257 0.000103
258 0.000131
259 0.000163
260 0.000207
261 0.000236
262 0.000244
263 0.000242
264 0.000256
265 0.000264
266 0.000263
267 0.000252
268 0.000263
269 0.000292
270 0.000294
271 0.000276
272 0.000240
273 0.000232
274 0.000231
275 0.000227
276 0.000204
277 0.000192
278 0.000193
279 0.000191
280 0.000200
281 0.000214
282 0.000207
283 0.000195
284 0.000184
285 0.000163
286 0.000143
287 0.000125
288 0.000120
289 0.000117
290 0.000113
291 0.000125
292 0.000142
293 0.000150
294 0.000179
295 0.000225
296 0.000280
297 0.000306
298 0.000315
299 0.000349
300 0.000355
301 0.000357
302 0.000348
303 0.000343
304 0.000314
305 0.000280
306 0.000240
307 0.000204
308 0.000193
309 0.000222
310 0.000236
311 0.000248
312 0.000221
313 0.000159
314 0.000129
315 0.000096
316 0.000091
317 0.000073
318 0.000087
319 0.000122
320 0.000146
321 0.000214
322 0.000269
323 0.000305
324 0.000327
325 0.000326
326 0.000308
327 0.000271
328 0.000247
329 0.000221
330 0.000211
331 0.000184
332 0.000151
333 0.000182
334 0.000159
335 0.000153
336 0.000151
337 0.000153
338 0.000179
339 0.000198
340 0.000213
341 0.000183
342 0.000173
343 0.000184
344 0.000206
345 0.000234
346 0.000220
347 0.000250
348 0.000272
349 0.000258
350 0.000210
351 0.000166
352 0.000125
353 0.000102
354 0.000080
355 0.000058
356 0.000047
357 0.000044
358 0.000061
359 0.000045
360 0.000027
361 0.000043
362 0.000082
363 0.000097
364 0.000104
365 0.000110
366 0.000119
367 0.000133
368 0.000156
369 0.000146
370 0.000142
371 0.000149
372 0.000169
373 0.000194
374 0.000207
375 0.000208
376 0.000189
377 0.000160
378 0.000153
379 0.000160
380 0.000156
381 0.000150
382 0.000151
383 0.000145
384 0.000145
385 0.000125
386 0.000095
387 0.000090
388 0.000086
389 0.000063
390 0.000046
391 0.000041
392 0.000061
393 0.000027
394 -0.000010
395 -0.000047
396 -0.000048
397 -0.000018
398 -0.000000
399 0.000039
400 0.000055
401 0.000054
402 0.000072
403 0.000069
404 0.000065
405 0.000087
406 0.000072
407 0.000070
408 0.000042
409 0.000043
410 0.000016
411 0.000005
412 -0.000006
413 0.000000
414 0.000011
415 0.000004
416 0.000004
417 0.000029
418 0.000037
419 0.000030
420 0.000006
421 -0.000006
422 0.000015
423 0.000065
424 0.000094
425 0.000102
426 0.000121
427 0.000139
428 0.000155
429 0.000149
430 0.000155
431 0.000158
432 0.000160
433 0.000181
434 0.000188
435 0.000194
436 0.000197
437 0.000197
438 0.000206
439 0.000191
440 0.000180
441 0.000163
442 0.000149
443 0.000137
444 0.000133
445 0.000124
446 0.000118
447 0.000097
448 0.000090
449 0.000089
450 0.000098
451 0.000133
452 0.000181
453 0.000179
454 0.000184
455 0.000165
456 0.000162
457 0.000144
458 0.000086
459 0.000020
460 -0.000057
461 -0.000092
462 -0.000104
463 -0.000105
464 -0.000090
465 -0.000080
466 -0.000061
467 -0.000048
468 -0.000019
469 -0.000016
470 -0.000025
471 -0.000036
472 -0.000057
473 -0.000086
474 -0.000109
475 -0.000110
476 -0.000106
477 -0.000124
478 -0.000107
479 -0.000099
480 -0.000096
481 -0.000099
482 -0.000098
483 -0.000067
484 -0.000048
485 -0.000044
486 -0.000026
487 -0.000019
488 -0.000021
489 -0.000034
490 -0.000042
491 -0.000049
492 -0.000030
493 -0.000001
494 0.000002
495 0.000002
496 -0.000039
497 -0.000087
498 -0.000135
499 -0.000165
500 -0.000167
501 -0.000171
502 -0.000155
503 -0.000141
504 -0.000135
505 -0.000111
506 -0.000078
507 -0.000070
508 -0.000062
509 -0.000053
510 -0.000052
511 -0.000040
512 -0.000051
513 -0.000054
514 -0.000068
515 -0.000093
516 -0.000126
517 -0.000168
518 -0.000208
519 -0.000222
520 -0.000214
521 -0.000221
522 -0.000215
523 -0.000228
524 -0.000259
525 -0.000269
526 -0.000279
527 -0.000285
528 -0.000309
529 -0.000336
530 -0.000333
531 -0.000327
532 -0.000312
533 -0.000277
534 -0.000240
535 -0.000202
536 -0.000180
537 -0.000170
538 -0.000178
539 -0.000192
540 -0.000204
541 -0.000205
542 -0.000183
543 -0.000159
544 -0.000125
545 -0.000101
546 -0.000084
547 -0.000074
548 -0.000074
549 -0.000062
550 -0.000072
551 -0.000090
552 -0.000094
553 -0.000131
554 -0.000143
555 -0.000138
556 -0.000124
557 -0.000091
558 -0.000081
559 -0.000057
560 -0.000057
561 -0.000062
562 -0.000076
563 -0.000077
564 -0.000053
565 -0.000033
566 -0.000002
567 0.000003
568 0.000026
569 0.000049
570 0.000070
571 0.000082
572 0.000067
573 0.000055
574 0.000034
575 0.000013
576 -0.000017
577 -0.000041
578 -0.000065
579 -0.000072
580 -0.000068
581 -0.000082
582 -0.000104
583 -0.000134
584 -0.000138
585 -0.000132
586 -0.000118
587 -0.000098
588 -0.000091
589 -0.000080
590 -0.000075
591 -0.000077
592 -0.000066
593 -0.000050
594 -0.000031
595 -0.000026
596 -0.000018
597 -0.000018
598 -0.000023
599 -0.000020
600 -0.000018
601 -0.000021
602 -0.000027
603 -0.000037
604 -0.000047
605 -0.000074
606 -0.000075
607 -0.000065
608 -0.000046
609 -0.000048
610 -0.000074
611 -0.000098
612 -0.000116
613 -0.000098
614 -0.000091
615 -0.000105
616 -0.000133
617 -0.000148
618 -0.000152
619 -0.000170
620 -0.000161
621 -0.000152
622 -0.000142
623 -0.000133
624 -0.000133
625 -0.000135
626 -0.000137
627 -0.000151
628 -0.000163
629 -0.000168
630 -0.000172
631 -0.000192
632 -0.000209
633 -0.000217
634 -0.000239
635 -0.000269
636 -0.000287
637 -0.000290
638 -0.000297
639 -0.000284
640 -0.000293
641 -0.000286
642 -0.000272
643 -0.000284
644 -0.000268
645 -0.000266
646 -0.000255
647 -0.000226
648 -0.000215
649 -0.000198
650 -0.000198
651 -0.000203
652 -0.000192
653 -0.000201
654 -0.000193
655 -0.000185
656 -0.000165
657 -0.000144
658 -0.000118
659 -0.000107
660 -0.000113
661 -0.000102
662 -0.000095
663 -0.000077
664 -0.000072
665 -0.000080
666 -0.000078
667 -0.000065
668 -0.000058
669 -0.000060
670 -0.000043
671 -0.000020
672 -0.000007
673 0.000004
674 -0.000002
675 -0.000014
676 -0.000031
677 -0.000036
678 -0.000044
679 -0.000067
680 -0.000074
681 -0.000095
682 -0.000101
683 -0.000096
684 -0.000101
685 -0.000100
686 -0.000115
687 -0.000110
688 -0.000109
689 -0.000125
690 -0.000138
691 -0.000145
692 -0.000149
693 -0.000143
694 -0.000142
695 -0.000140
696 -0.000125
697 -0.000115
698 -0.000112
699 -0.000118
700 -0.000137
701 -0.000140
702 -0.000157
703 -0.000168
704 -0.000172
705 -0.000191
706 -0.000191
707 -0.000186
708 -0.000182
709 -0.000171
710 -0.000168
711 -0.000169
712 -0.000173
713 -0.000168
714 -0.000156
715 -0.000144
716 -0.000132
717 -0.000121
718 -0.000113
719 -0.000115
720 -0.000110
721 -0.000094
722 -0.000088
723 -0.000083
724 -0.000091
725 -0.000087
726 -0.000077
727 -0.000062
728 -0.000051
729 -0.000049
730 -0.000045
731 -0.000055
732 -0.000060
733 -0.000056
734 -0.000055
735 -0.000056
736 -0.000064
737 -0.000064
738 -0.000076
739 -0.000087
740 -0.000101
741 -0.000124
742 -0.000140
743 -0.000164
744 -0.000177
745 -0.000177
746 -0.000186
747 -0.000178
748 -0.000167
749 -0.000146
750 -0.000126
751 -0.000110
752 -0.000101
753 -0.000093
754 -0.000084
755 -0.000088
756 -0.000098
757 -0.000106
758 -0.000098
759 -0.000098
760 -0.000095
761 -0.000104
762 -0.000128
763 -0.000132
764 -0.000139
765 -0.000147
766 -0.000153
767 -0.000160
768 -0.000162
769 -0.000155
770 -0.000136
771 -0.000104
772 -0.000083
773 -0.000065
774 -0.000051
775 -0.000028
776 -0.000017
777 -0.000009
778 0.000002
779 0.000022
780 0.000037
781 0.000047
782 0.000048
783 0.000043
784 0.000048
785 0.000051
786 0.000045
787 0.000032
788 0.000026
789 0.000025
790 0.000030
791 0.000045
792 0.000061
793 0.000073
794 0.000089
795 0.000106
796 0.000115
797 0.000119
798 0.000099
799 0.000095
800 0.000087
801 0.000104
802 0.000121
803 0.000137
804 0.000154
805 0.000162
806 0.000164
807 0.000160
808 0.000157
809 0.000147
