# i correlation
1 0.003044
2 0.002734
3 0.002441
4 0.002181
5 0.001947
6 0.001737
7 0.001544
8 0.001371
9 0.001234
10 0.001183
11 0.001131
12 0.001091
13 0.001074
14 0.001049
15 0.001056
16 0.001059
17 0.001046
18 0.001038
19 0.001003
20 0.000995
21 0.000993
22 0.001008
23 0.001025
24 0.001058
25 0.001107
26 0.001151
27 0.001164
28 0.001203
29 0.001236
30 0.001241
31 0.001232
32 0.001237
33 0.001208
34 0.001160
35 0.001105
36 0.001028
37 0.000942
38 0.000867
39 0.000820
40 0.000757
41 0.000667
42 0.000588
43 0.000513
44 0.000488
45 0.000484
46 0.000555
47 0.000637
48 0.000721
49 0.000777
50 0.000825
51 0.000858
52 0.000864
53 0.000875
54 0.000879
55 0.000898
56 0.000917
57 0.000903
58 0.000890
59 0.000892
60 0.000871
61 0.000843
62 0.000823
63 0.000820
64 0.000822
65 0.000811
66 0.000818
67 0.000794
68 0.000753
69 0.000727
70 0.000695
71 0.000660
72 0.000623
73 0.000592
74 0.000595
75 0.000565
76 0.000584
77 0.000610
78 0.000620
79 0.000667
80 0.000700
81 0.000769
82 0.000759
83 0.000724
84 0.000677
85 0.000632
86 0.000609
87 0.000572
88 0.000529
89 0.000526
90 0.000514
91 0.000502
92 0.000525
93 0.000535
94 0.000553
95 0.000568
96 0.000590
97 0.000595
98 0.000604
99 0.000584
100 0.000516
101 0.000459
102 0.000449
103 0.000451
104 0.000437
105 0.000470
106 0.000489
107 0.000505
108 0.000525
109 0.000559
110 0.000577
111 0.000579
112 0.000578
113 0.000577
114 0.000562
115 0.000537
116 0.000530
117 0.000555
118 0.000559
119 0.000574
120 0.000570
121 0.000556
122 0.000562
123 0.000547
124 0.000552
125 0.000580
126 0.000583
127 0.000626
128 0.000678
129 0.000726
130 0.000745
131 0.000787
132 0.000812
133 0.000823
134 0.000807
135 0.000802
136 0.000779
137 0.000756
138 0.000694
139 0.000645
140 0.000586
141 0.000545
142 0.000519
143 0.000510
144 0.000501
145 0.000525
146 0.000541
147 0.000596
148 0.000655
149 0.000692
150 0.000720
151 0.000737
152 0.000760
153 0.000783
154 0.000787
155 0.000763
156 0.000728
157 0.000738
158 0.000741
159 0.000731
160 0.000729
161 0.000733
162 0.000720
163 0.000708
164 0.000682
165 0.000658
166 0.000620
167 0.000546
168 0.000473
169 0.000394
170 0.000330
171 0.000290
172 0.000300
173 0.000328
174 0.000346
175 0.000363
176 0.000373
177 0.000397
178 0.000421
179 0.000456
180 0.000435
181 0.000413
182 0.000393
183 0.000402
184 0.000449
185 0.000464
186 0.000472
187 0.000493
188 0.000533
189 0.000598
190 0.000652
191 0.000709
192 0.000726
193 0.000699
194 0.000654
195 0.000589
196 0.000525
197 0.000468
198 0.000432
199 0.000431
200 0.000436
201 0.000445
202 0.000431
203 0.000427
204 0.000408
205 0.000394
206 0.000365
207 0.000339
208 0.000317
209 0.000333
210 0.000363
211 0.000400
212 0.000443
213 0.000495
214 0.000536
215 0.000549
216 0.000559
217 0.000557
218 0.000545
219 0.000504
220 0.000475
221 0.000485
222 0.000507
223 0.000523
224 0.000555
225 0.000601
226 0.000639
227 0.000639
228 0.000632
229 0.000628
230 0.000620
231 0.000592
232 0.000534
233 0.000464
234 0.000395
235 0.000296
236 0.000190
237 0.000126
238 0.000110
239 0.000116
240 0.000142
241 0.000148
242 0.000175
243 0.000194
244 0.000217
245 0.000252
246 0.000287
247 0.000347
248 0.000396
249 0.000438
250 0.000471
251 0.000496
252 0.000502
253 0.000522
254 0.000501
255 0.000484
256 0.000473
257 0.000456
258 0.000449
259 0.000432
260 0.000429
261 0.000390
262 0.000372
263 0.000338
264 0.000289
265 0.000264
266 0.000249
267 0.000203
268 0.000166
269 0.000132
270 0.000130
271 0.000127
272 0.000118
273 0.000121
274 0.000101
275 0.000068
276 0.000051
277 0.000057
278 0.000077
279 0.000082
280 0.000129
281 0.000177
282 0.000228
283 0.000258
284 0.000292
285 0.000293
286 0.000316
287 0.000282
288 0.000271
289 0.000257
290 0.000237
291 0.000221
292 0.000196
293 0.000158
294 0.000121
295 0.000093
296 0.000105
297 0.000120
298 0.000142
299 0.000162
300 0.000149
301 0.000137
302 0.000148
303 0.000142
304 0.000142
305 0.000127
306 0.000148
307 0.000181
308 0.000197
309 0.000212
310 0.000227
311 0.000236
312 0.000251
313 0.000266
314 0.000274
315 0.000266
316 0.000227
317 0.000166
318 0.000112
319 0.000084
320 0.000079
321 0.000082
322 0.000081
323 0.000063
324 0.000068
325 0.000051
326 0.000048
327 0.000034
328 0.000025
329 0.000006
330 -0.000001
331 0.000001
332 0.000043
333 0.000054
334 0.000065
335 0.000068
336 0.000082
337 0.000090
338 0.000101
339 0.000133
340 0.000157
341 0.000179
342 0.000206
343 0.000208
344 0.000192
345 0.000185
346 0.000186
347 0.000219
348 0.000234
349 0.000246
350 0.000249
351 0.000235
352 0.000262
353 0.000260
354 0.000268
355 0.000258
356 0.000234
357 0.000231
358 0.000254
359 0.000267
360 0.000254
361 0.000259
362 0.000290
363 0.000334
364 0.000364
365 0.000412
366 0.000412
367 0.000427
368 0.000424
369 0.000407
370 0.000395
371 0.000378
372 0.000354
373 0.000322
374 0.000310
375 0.000315
376 0.000330
377 0.000339
378 0.000360
379 0.000399
380 0.000443
381 0.000475
382 0.000507
383 0.000505
384 0.000488
385 0.000429
386 0.000385
387 0.000359
388 0.000320
389 0.000274
390 0.000223
391 0.000193
392 0.000156
393 0.000095
394 0.000064
395 0.000034
396 0.000019
397 0.000023
398 0.000025
399 0.000016
400 0.000017
401 0.000039
402 0.000077
403 0.000126
404 0.000150
405 0.000203
406 0.000249
407 0.000252
408 0.000239
409 0.000223
410 0.000220
411 0.000229
412 0.000219
413 0.000257
414 0.000270
415 0.000283
416 0.000292
417 0.000285
418 0.000260
419 0.000229
420 0.000179
421 0.000149
422 0.000089
423 0.000060
424 0.000050
425 0.000007
426 -0.000005
427 -0.000025
428 -0.000004
429 0.000026
430 0.000062
431 0.000130
432 0.000166
433 0.000205
434 0.000236
435 0.000289
436 0.000304
437 0.000324
438 0.000341
439 0.000373
440 0.000382
441 0.000410
442 0.000397
443 0.000386
444 0.000385
445 0.000384
446 0.000385
447 0.000354
448 0.000308
449 0.000263
450 0.000229
451 0.000213
452 0.000203
453 0.000196
454 0.000168
455 0.000146
456 0.000149
457 0.000163
458 0.000165
459 0.000161
460 0.000168
461 0.000214
462 0.000240
463 0.000271
464 0.000276
465 0.000269
466 0.000240
467 0.000205
468 0.000191
469 0.000184
470 0.000182
471 0.000181
472 0.000173
473 0.000189
474 0.000189
475 0.000202
476 0.000207
477 0.000222
478 0.000217
479 0.000223
480 0.000236
481 0.000258
482 0.000266
483 0.000287
484 0.000306
485 0.000337
486 0.000360
487 0.000397
488 0.000408
489 0.000429
490 0.000442
491 0.000447
492 0.000464
493 0.000463
494 0.000465
495 0.000461
496 0.000470
497 0.000480
498 0.000475
499 0.000473
500 0.000477
501 0.000440
502 0.000400
503 0.000353
504 0.000304
505 0.000273
506 0.000243
507 0.000221
508 0.000209
509 0.000216
510 0.000241
511 0.000275
512 0.000301
513 0.000321
514 0.000330
515 0.000351
516 0.000369
517 0.000362
518 0.000343
519 0.000326
520 0.000305
521 0.000279
522 0.000269
523 0.000278
524 0.000300
525 0.000317
526 0.000324
527 0.000320
528 0.000304
529 0.000280
530 0.000242
531 0.000222
532 0.000194
533 0.000185
534 0.000156
535 0.000115
536 0.000087
537 0.000086
538 0.000083
539 0.000092
540 0.000110
541 0.000115
542 0.000130
543 0.000141
544 0.000160
545 0.000159
546 0.000163
547 0.000169
548 0.000188
549 0.000194
550 0.000192
551 0.000173
552 0.000149
553 0.000121
554 0.000105
555 0.000097
556 0.000084
557 0.000079
558 0.000099
559 0.000119
560 0.000137
561 0.000136
562 0.000133
563 0.000148
564 0.000159
565 0.000163
566 0.000174
567 0.000171
568 0.000174
569 0.000172
570 0.000180
571 0.000192
572 0.000203
573 0.000215
574 0.000225
575 0.000244
576 0.000267
577 0.000253
578 0.000260
579 0.000276
580 0.000315
581 0.000337
582 0.000338
583 0.000324
584 0.000284
585 0.000234
586 0.000195
587 0.000160
588 0.000145
589 0.000147
590 0.000153
591 0.000145
592 0.000170
593 0.000206
594 0.000243
595 0.000270
596 0.000284
597 0.000298
598 0.000302
599 0.000300
600 0.000293
601 0.000247
602 0.000203
603 0.000171
604 0.000158
605 0.000162
606 0.000173
607 0.000177
608 0.000191
609 0.000196
610 0.000217
611 0.000213
612 0.000208
613 0.000196
614 0.000197
615 0.000196
616 0.000191
617 0.000167
618 0.000158
619 0.000138
620 0.000137
621 0.000145
622 0.000166
623 0.000170
624 0.000166
625 0.000171
626 0.000157
627 0.000157
628 0.000172
629 0.000189
630 0.000193
631 0.000210
632 0.000220
633 0.000222
634 0.000223
635 0.000247
636 0.000277
637 0.000294
638 0.000312
639 0.000337
640 0.000357
641 0.000358
642 0.000365
643 0.000358
644 0.000355
645 0.000357
646 0.000349
647 0.000334
648 0.000312
649 0.000300
650 0.000310
651 0.000302
652 0.000280
653 0.000287
654 0.000307
655 0.000314
656 0.000326
657 0.000344
658 0.000335
659 0.000327
660 0.000312
661 0.000313
662 0.000323
663 0.000328
664 0.000329
665 0.000320
666 0.000319
667 0.000308
668 0.000303
669 0.000310
670 0.000299
671 0.000292
672 0.000281
673 0.000267
674 0.000261
675 0.000261
676 0.000255
677 0.000241
678 0.000234
679 0.000230
680 0.000204
681 0.000182
682 0.000146
683 0.000126
684 0.000126
685 0.000132
686 0.000154
687 0.000178
688 0.000194
689 0.000217
690 0.000233
691 0.000254
692 0.000246
693 0.000221
694 0.000209
695 0.000195
696 0.000174
697 0.000163
698 0.000138
699 0.000121
700 0.000098
701 0.000105
702 0.000118
703 0.000144
704 0.000163
705 0.000167
706 0.000163
707 0.000153
708 0.000138
709 0.000136
710 0.000140
711 0.000135
712 0.000121
713 0.000099
714 0.000081
715 0.000074
716 0.000076
717 0.000101
718 0.000105
719 0.000121
720 0.000134
721 0.000144
722 0.000149
723 0.000164
724 0.000159
725 0.000160
726 0.000156
727 0.000161
728 0.000160
729 0.000139
730 0.000125
731 0.000106
732 0.000083
733 0.000064
734 0.000043
735 0.000028
736 0.000019
737 0.000023
738 0.000037
739 0.000055
740 0.000065
741 0.000075
742 0.000085
743 0.000109
744 0.000120
745 0.000134
746 0.000126
747 0.000115
748 0.000101
749 0.000101
750 0.000095
751 0.000080
752 0.000062
753 0.000057
754 0.000040
755 0.000034
756 0.000008
757 -0.000015
758 -0.000038
759 -0.000052
760 -0.000077
761 -0.000109
762 -0.000151
763 -0.000186
764 -0.000206
765 -0.000214
766 -0.000223
767 -0.000222
768 -0.000218
769 -0.000203
770 -0.000176
771 -0.000146
772 -0.000113
773 -0.000075
774 -0.000051
775 -0.000036
776 -0.000028
777 -0.000031
778 -0.000036
779 -0.000050
780 -0.000061
781 -0.000074
782 -0.000088
783 -0.000088
784 -0.000089
785 -0.000087
786 -0.000094
787 -0.000095
788 -0.000094
789 -0.000094
790 -0.000100
791 -0.000117
792 -0.000148
793 -0.000175
794 -0.000190
795 -0.000201
796 -0.000200
797 -0.000189
798 -0.000180
799 -0.000167
800 -0.000139
801 -0.000104
802 -0.000078
803 -0.000058
804 -0.000045
805 -0.000022
806 -0.000004
807 0.000004
808 0.000005
809 -0.000000
