# i correlation
1 0.003953
2 0.003425
3 0.002958
4 0.002518
5 0.002196
6 0.001890
7 0.001673
8 0.001520
9 0.001418
10 0.001315
11 0.001190
12 0.001094
13 0.000938
14 0.000885
15 0.000889
16 0.000927
17 0.000946
18 0.001020
19 0.000985
20 0.000970
21 0.000915
22 0.000825
23 0.000804
24 0.000789
25 0.000747
26 0.000696
27 0.000663
28 0.000586
29 0.000484
30 0.000440
31 0.000384
32 0.000332
33 0.000280
34 0.000359
35 0.000391
36 0.000420
37 0.000420
38 0.000434
39 0.000466
40 0.000486
41 0.000478
42 0.000510
43 0.000557
44 0.000666
45 0.000792
46 0.000867
47 0.000839
48 0.000830
49 0.000785
50 0.000732
51 0.000680
52 0.000632
53 0.000600
54 0.000581
55 0.000628
56 0.000744
57 0.000771
58 0.000829
59 0.000878
60 0.000919
61 0.000923
62 0.000874
63 0.000903
64 0.000902
65 0.000895
66 0.000891
67 0.000849
68 0.000828
69 0.000775
70 0.000712
71 0.000644
72 0.000582
73 0.000502
74 0.000417
75 0.000357
76 0.000325
77 0.000288
78 0.000206
79 0.000149
80 0.000155
81 0.000162
82 0.000245
83 0.000310
84 0.000354
85 0.000429
86 0.000496
87 0.000550
88 0.000576
89 0.000540
90 0.000510
91 0.000542
92 0.000561
93 0.000533
94 0.000534
95 0.000509
96 0.000537
97 0.000565
98 0.000535
99 0.000488
100 0.000439
101 0.000420
102 0.000378
103 0.000415
104 0.000467
105 0.000515
106 0.000545
107 0.000576
108 0.000618
109 0.000595
110 0.000516
111 0.000455
112 0.000427
113 0.000441
114 0.000453
115 0.000553
116 0.000549
117 0.000572
118 0.000523
119 0.000441
120 0.000408
121 0.000461
122 0.000525
123 0.000608
124 0.000686
125 0.000719
126 0.000731
127 0.000741
128 0.000766
129 0.000749
130 0.000639
131 0.000598
132 0.000559
133 0.000560
134 0.000517
135 0.000440
136 0.000354
137 0.000230
138 0.000195
139 0.000180
140 0.000175
141 0.000254
142 0.000241
143 0.000269
144 0.000308
145 0.000341
146 0.000371
147 0.000450
148 0.000470
149 0.000544
150 0.000606
151 0.000704
152 0.000748
153 0.000712
154 0.000650
155 0.000552
156 0.000502
157 0.000468
158 0.000382
159 0.000423
160 0.000449
161 0.000431
162 0.000396
163 0.000399
164 0.000366
165 0.000312
166 0.000255
167 0.000235
168 0.000260
169 0.000281
170 0.000308
171 0.000330
172 0.000301
173 0.000279
174 0.000292
175 0.000322
176 0.000348
177 0.000322
178 0.000304
179 0.000235
180 0.000230
181 0.000219
182 0.000206
183 0.000205
184 0.000226
185 0.000234
186 0.000235
187 0.000281
188 0.000277
189 0.000282
190 0.000307
191 0.000376
192 0.000480
193 0.000544
194 0.000641
195 0.000749
196 0.000764
197 0.000790
198 0.000714
199 0.000697
200 0.000712
201 0.000680
202 0.000596
203 0.000524
204 0.000464
205 0.000400
206 0.000320
207 0.000268
208 0.000248
209 0.000276
210 0.000312
211 0.000358
212 0.000415
213 0.000419
214 0.000455
215 0.000492
216 0.000546
217 0.000573
218 0.000531
219 0.000560
220 0.000635
221 0.000620
222 0.000586
223 0.000570
224 0.000529
225 0.000491
226 0.000467
227 0.000443
228 0.000489
229 0.000541
230 0.000561
231 0.000581
232 0.000625
233 0.000534
234 0.000470
235 0.000399
236 0.000355
237 0.000355
238 0.000337
239 0.000343
240 0.000366
241 0.000385
242 0.000354
243 0.000335
244 0.000341
245 0.000320
246 0.000361
247 0.000370
248 0.000424
249 0.000435
