# i correlation
1 0.005406
2 0.004794
3 0.004183
4 0.003670
5 0.003177
6 0.002781
7 0.002445
8 0.002249
9 0.002043
10 0.001859
11 0.001757
12 0.001599
13 0.001490
14 0.001356
15 0.001316
16 0.001283
17 0.001230
18 0.001106
19 0.000946
20 0.000871
21 0.000763
22 0.000731
23 0.000756
24 0.000864
25 0.000920
26 0.000937
27 0.000908
28 0.000923
29 0.000917
30 0.000947
31 0.000936
32 0.000985
33 0.000999
34 0.001020
35 0.001049
36 0.001098
37 0.001075
38 0.001112
39 0.001138
40 0.001239
41 0.001367
42 0.001386
43 0.001505
44 0.001642
45 0.001707
46 0.001724
47 0.001655
48 0.001588
49 0.001590
50 0.001579
51 0.001528
52 0.001502
53 0.001438
54 0.001356
55 0.001224
56 0.001160
57 0.001116
58 0.001080
59 0.001050
60 0.001021
61 0.001031
62 0.001022
63 0.001073
64 0.001148
65 0.001268
66 0.001358
67 0.001463
68 0.001493
69 0.001485
70 0.001450
71 0.001361
72 0.001327
73 0.001281
74 0.001329
75 0.001375
76 0.001489
77 0.001602
78 0.001616
79 0.001599
80 0.001529
81 0.001526
82 0.001454
83 0.001299
84 0.001163
85 0.001054
86 0.000873
87 0.000801
88 0.000674
89 0.000588
90 0.000559
91 0.000515
92 0.000540
93 0.000617
94 0.000664
95 0.000680
96 0.000678
97 0.000701
98 0.000669
99 0.000615
100 0.000474
101 0.000331
102 0.000252
103 0.000195
104 0.000243
105 0.000362
106 0.000453
107 0.000562
108 0.000615
109 0.000716
110 0.000803
111 0.000877
112 0.000943
113 0.001041
114 0.001059
115 0.001109
116 0.001080
117 0.001019
118 0.001012
119 0.000965
120 0.000927
121 0.000894
122 0.000903
123 0.000909
124 0.000891
125 0.000954
126 0.000978
127 0.000989
128 0.001032
129 0.001145
130 0.001309
131 0.001432
132 0.001486
133 0.001577
134 0.001564
135 0.001521
136 0.001415
137 0.001328
138 0.001248
139 0.001219
140 0.001203
141 0.001203
142 0.001146
143 0.001129
144 0.001086
145 0.001027
146 0.000991
147 0.000885
148 0.000770
149 0.000742
150 0.000699
151 0.000671
152 0.000560
153 0.000446
154 0.000349
155 0.000227
156 0.000131
157 0.000112
158 0.000119
159 0.000142
160 0.000177
161 0.000181
162 0.000240
163 0.000295
164 0.000293
165 0.000235
166 0.000207
167 0.000198
168 0.000079
169 0.000067
170 0.000071
171 0.000117
172 0.000127
173 0.000186
174 0.000290
175 0.000487
176 0.000608
177 0.000662
178 0.000704
179 0.000773
180 0.000818
181 0.000787
182 0.000774
183 0.000747
184 0.000729
185 0.000675
186 0.000667
187 0.000714
188 0.000716
189 0.000763
190 0.000794
191 0.000833
192 0.000892
193 0.000886
194 0.000774
195 0.000708
196 0.000616
197 0.000531
198 0.000417
199 0.000276
200 0.000168
201 0.000080
202 0.000013
203 0.000046
204 0.000095
205 0.000119
206 0.000116
207 0.000193
208 0.000248
209 0.000277
210 0.000286
211 0.000272
212 0.000221
213 0.000207
214 0.000205
215 0.000179
216 0.000179
217 0.000147
218 0.000158
219 0.000172
220 0.000214
221 0.000244
222 0.000282
223 0.000301
224 0.000302
225 0.000317
226 0.000349
227 0.000449
228 0.000541
229 0.000597
230 0.000625
231 0.000563
232 0.000514
233 0.000424
234 0.000357
235 0.000258
236 0.000192
237 0.000142
238 0.000138
239 0.000168
240 0.000216
241 0.000293
242 0.000327
243 0.000317
244 0.000335
245 0.000333
246 0.000301
247 0.000253
248 0.000256
249 0.000243
