# i correlation
1 0.005595
2 0.004968
3 0.004575
4 0.004204
5 0.003807
6 0.003500
7 0.003224
8 0.002996
9 0.002889
10 0.002713
11 0.002545
12 0.002457
13 0.002314
14 0.002173
15 0.002097
16 0.002056
17 0.001998
18 0.002034
19 0.002002
20 0.001945
21 0.001860
22 0.001801
23 0.001734
24 0.001704
25 0.001664
26 0.001654
27 0.001589
28 0.001478
29 0.001334
30 0.001210
31 0.001122
32 0.001079
33 0.001054
34 0.001002
35 0.001018
36 0.001032
37 0.001025
38 0.000972
39 0.000987
40 0.000957
41 0.000877
42 0.000882
43 0.000892
44 0.000895
45 0.000852
46 0.000826
47 0.000699
48 0.000625
49 0.000638
50 0.000570
51 0.000622
52 0.000676
53 0.000722
54 0.000680
55 0.000674
56 0.000595
57 0.000480
58 0.000430
59 0.000395
60 0.000344
61 0.000395
62 0.000459
63 0.000496
64 0.000634
65 0.000722
66 0.000744
67 0.000743
68 0.000778
69 0.000760
70 0.000813
71 0.000933
72 0.000984
73 0.001031
74 0.001095
75 0.001170
76 0.001171
77 0.001243
78 0.001280
79 0.001325
80 0.001324
81 0.001215
82 0.001176
83 0.001090
84 0.001024
85 0.000954
86 0.000845
87 0.000710
88 0.000692
89 0.000634
90 0.000545
91 0.000450
92 0.000300
93 0.000085
94 -0.000076
95 -0.000117
96 -0.000142
97 -0.000143
98 -0.000145
99 -0.000160
100 -0.000168
101 -0.000155
102 -0.000180
103 -0.000200
104 -0.000137
105 0.000005
106 0.000052
107 0.000166
108 0.000294
109 0.000361
110 0.000370
111 0.000257
112 0.000167
113 0.000063
114 0.000033
115 -0.000050
116 -0.000108
117 -0.000063
118 -0.000029
119 0.000019
120 -0.000025
121 -0.000099
122 -0.000173
123 -0.000175
124 -0.000165
125 -0.000201
126 -0.000191
127 -0.000178
128 -0.000129
129 -0.000057
130 -0.000032
131 -0.000045
132 -0.000052
133 -0.000057
134 -0.000074
135 -0.000111
136 -0.000138
137 -0.000153
138 -0.000161
139 -0.000132
140 -0.000125
141 -0.000058
142 -0.000012
143 0.000030
144 0.000153
145 0.000198
146 0.000261
147 0.000309
148 0.000372
149 0.000401
150 0.000457
151 0.000471
152 0.000526
153 0.000602
154 0.000663
155 0.000630
156 0.000659
157 0.000601
158 0.000535
159 0.000485
160 0.000436
161 0.000354
162 0.000265
163 0.000191
164 0.000057
165 -0.000023
166 -0.000102
167 -0.000263
168 -0.000300
169 -0.000284
170 -0.000268
171 -0.000307
172 -0.000284
173 -0.000282
174 -0.000286
175 -0.000346
176 -0.000388
177 -0.000445
178 -0.000405
179 -0.000392
180 -0.000366
181 -0.000297
182 -0.000293
183 -0.000295
184 -0.000215
185 -0.000097
186 -0.000130
187 -0.000146
188 -0.000146
189 -0.000126
190 -0.000142
191 -0.000160
192 -0.000163
193 -0.000162
194 -0.000114
195 -0.000072
196 -0.000034
197 0.000002
198 0.000034
199 0.000090
200 0.000076
201 0.000015
202 -0.000029
203 -0.000098
204 -0.000124
205 -0.000101
206 -0.000100
207 -0.000072
208 -0.000015
209 0.000009
210 -0.000060
211 -0.000065
212 -0.000054
213 -0.000081
214 -0.000102
215 -0.000061
216 -0.000072
217 -0.000038
218 -0.000017
219 0.000048
220 0.000105
221 0.000171
222 0.000172
223 0.000143
224 0.000167
225 0.000231
226 0.000260
227 0.000326
228 0.000301
229 0.000303
230 0.000319
231 0.000336
232 0.000319
233 0.000322
234 0.000345
235 0.000362
236 0.000437
237 0.000505
238 0.000579
239 0.000539
240 0.000454
241 0.000429
242 0.000411
243 0.000375
244 0.000332
245 0.000272
246 0.000186
247 0.000125
248 0.000112
249 0.000060
