# i correlation
1 0.004865
2 0.004065
3 0.003308
4 0.002821
5 0.002461
6 0.002080
7 0.001843
8 0.001724
9 0.001694
10 0.001589
11 0.001523
12 0.001472
13 0.001449
14 0.001426
15 0.001365
16 0.001303
17 0.001304
18 0.001211
19 0.001165
20 0.001218
21 0.001293
22 0.001271
23 0.001103
24 0.000892
25 0.000678
26 0.000563
27 0.000450
28 0.000371
29 0.000405
30 0.000467
31 0.000586
32 0.000667
33 0.000798
34 0.000905
35 0.001058
36 0.001116
37 0.001149
38 0.001123
39 0.001017
40 0.000980
41 0.000955
42 0.000932
43 0.000907
44 0.000925
45 0.000847
46 0.000819
47 0.000786
48 0.000735
49 0.000700
50 0.000712
51 0.000720
52 0.000789
53 0.000814
54 0.000812
55 0.000946
56 0.001030
57 0.001180
58 0.001293
59 0.001281
60 0.001197
61 0.001111
62 0.000980
63 0.000839
64 0.000830
65 0.000898
66 0.001045
67 0.001184
68 0.001294
69 0.001379
70 0.001479
71 0.001549
72 0.001547
73 0.001553
74 0.001537
75 0.001522
76 0.001494
77 0.001463
78 0.001485
79 0.001524
80 0.001485
81 0.001395
82 0.001321
83 0.001248
84 0.001242
85 0.001180
86 0.001152
87 0.001035
88 0.000962
89 0.000815
90 0.000661
91 0.000588
92 0.000585
93 0.000590
94 0.000577
95 0.000692
96 0.000879
97 0.001071
98 0.001093
99 0.001123
100 0.001160
101 0.001170
102 0.001164
103 0.001098
104 0.001056
105 0.001001
106 0.000926
107 0.000819
108 0.000841
109 0.000810
110 0.000805
111 0.000728
112 0.000633
113 0.000617
114 0.000634
115 0.000691
116 0.000707
117 0.000825
118 0.000880
119 0.000933
120 0.000875
121 0.000786
122 0.000755
123 0.000684
124 0.000606
125 0.000595
126 0.000620
127 0.000712
128 0.000752
129 0.000752
130 0.000840
131 0.000885
132 0.000935
133 0.000878
134 0.000796
135 0.000771
136 0.000703
137 0.000628
138 0.000567
139 0.000564
140 0.000595
141 0.000685
142 0.000711
143 0.000794
144 0.000835
145 0.000805
146 0.000738
147 0.000653
148 0.000619
149 0.000570
150 0.000513
151 0.000489
152 0.000571
153 0.000663
154 0.000724
155 0.000705
156 0.000664
157 0.000638
158 0.000588
159 0.000545
160 0.000434
161 0.000419
162 0.000410
163 0.000406
164 0.000433
165 0.000429
166 0.000456
167 0.000438
168 0.000385
169 0.000416
170 0.000468
171 0.000490
172 0.000468
173 0.000452
174 0.000471
175 0.000584
176 0.000679
177 0.000734
178 0.000736
179 0.000739
180 0.000733
181 0.000707
182 0.000650
183 0.000666
184 0.000787
185 0.000888
186 0.000888
187 0.000789
188 0.000729
189 0.000719
190 0.000725
191 0.000644
192 0.000624
193 0.000636
194 0.000648
195 0.000544
196 0.000431
197 0.000311
198 0.000293
199 0.000361
200 0.000441
201 0.000552
202 0.000601
203 0.000619
204 0.000568
205 0.000543
206 0.000542
207 0.000513
208 0.000467
209 0.000402
210 0.000383
211 0.000399
212 0.000355
213 0.000377
214 0.000440
215 0.000437
216 0.000464
217 0.000408
218 0.000334
219 0.000338
220 0.000306
221 0.000290
222 0.000328
223 0.000410
224 0.000363
225 0.000328
226 0.000293
227 0.000405
228 0.000527
229 0.000593
230 0.000694
231 0.000751
232 0.000800
233 0.000780
234 0.000734
235 0.000700
236 0.000687
237 0.000721
238 0.000705
239 0.000722
240 0.000791
241 0.000905
242 0.000996
243 0.001047
244 0.001034
245 0.000995
246 0.000905
247 0.000795
248 0.000721
249 0.000678
