# i correlation
1 0.005921
2 0.005223
3 0.004623
4 0.004132
5 0.003664
6 0.003338
7 0.003040
8 0.002800
9 0.002589
10 0.002489
11 0.002390
12 0.002367
13 0.002341
14 0.002297
15 0.002200
16 0.002229
17 0.002131
18 0.002002
19 0.001904
20 0.001944
21 0.001956
22 0.001970
23 0.001943
24 0.001850
25 0.001855
26 0.001925
27 0.001926
28 0.001991
29 0.002061
30 0.002084
31 0.002088
32 0.002164
33 0.002256
34 0.002298
35 0.002261
36 0.002303
37 0.002223
38 0.002114
39 0.001976
40 0.001898
41 0.001820
42 0.001700
43 0.001588
44 0.001434
45 0.001304
46 0.001284
47 0.001310
48 0.001299
49 0.001323
50 0.001290
51 0.001257
52 0.001286
53 0.001304
54 0.001367
55 0.001434
56 0.001507
57 0.001554
58 0.001568
59 0.001525
60 0.001457
61 0.001395
62 0.001385
63 0.001396
64 0.001420
65 0.001440
66 0.001436
67 0.001486
68 0.001648
69 0.001759
70 0.001910
71 0.002041
72 0.002096
73 0.002005
74 0.001923
75 0.001853
76 0.001720
77 0.001626
78 0.001593
79 0.001533
80 0.001421
81 0.001415
82 0.001452
83 0.001417
84 0.001398
85 0.001327
86 0.001295
87 0.001201
88 0.001157
89 0.001215
90 0.001343
91 0.001468
92 0.001528
93 0.001529
94 0.001605
95 0.001682
96 0.001652
97 0.001732
98 0.001795
99 0.001856
100 0.001924
101 0.001961
102 0.001972
103 0.002035
104 0.002124
105 0.002132
106 0.002101
107 0.002125
108 0.002076
109 0.001940
110 0.001732
111 0.001580
112 0.001442
113 0.001339
114 0.001232
115 0.001135
116 0.000986
117 0.000941
118 0.000956
119 0.000853
120 0.000803
121 0.000688
122 0.000598
123 0.000586
124 0.000617
125 0.000615
126 0.000722
127 0.000876
128 0.001075
129 0.001150
130 0.001231
131 0.001258
132 0.001313
133 0.001360
134 0.001430
135 0.001477
136 0.001558
137 0.001515
138 0.001479
139 0.001404
140 0.001321
141 0.001245
142 0.001090
143 0.000973
144 0.000899
145 0.000858
146 0.000831
147 0.000756
148 0.000770
149 0.000845
150 0.000904
151 0.000954
152 0.000999
153 0.000977
154 0.001019
155 0.001010
156 0.001024
157 0.001051
158 0.001057
159 0.000946
160 0.000936
161 0.000954
162 0.000991
163 0.000962
164 0.000986
165 0.001042
166 0.001137
167 0.001196
168 0.001324
169 0.001399
170 0.001411
171 0.001410
172 0.001380
173 0.001350
174 0.001377
175 0.001396
176 0.001338
177 0.001296
178 0.001256
179 0.001188
180 0.001076
181 0.000988
182 0.000951
183 0.000882
184 0.000834
185 0.000799
186 0.000809
187 0.000778
188 0.000842
189 0.000880
190 0.000848
191 0.000796
192 0.000688
193 0.000571
194 0.000491
195 0.000462
196 0.000471
197 0.000432
198 0.000465
199 0.000559
200 0.000655
201 0.000787
202 0.000830
203 0.000877
204 0.000989
205 0.001081
206 0.001167
207 0.001235
208 0.001301
209 0.001326
210 0.001285
211 0.001194
212 0.001085
213 0.000937
214 0.000768
215 0.000601
216 0.000466
217 0.000375
218 0.000307
219 0.000202
220 0.000125
221 0.000086
222 0.000098
223 0.000040
224 -0.000015
225 -0.000036
226 0.000032
227 0.000090
228 0.000113
229 0.000154
230 0.000078
231 0.000035
232 0.000022
233 -0.000054
234 -0.000169
235 -0.000226
236 -0.000226
237 -0.000225
238 -0.000261
239 -0.000270
240 -0.000189
241 -0.000082
242 0.000007
243 0.000104
244 0.000118
245 0.000061
246 0.000002
247 -0.000072
248 -0.000114
249 -0.000210
