# i correlation
1 0.003825
2 0.003245
3 0.002761
4 0.002358
5 0.002063
6 0.001819
7 0.001543
8 0.001373
9 0.001204
10 0.001109
11 0.001009
12 0.000941
13 0.000912
14 0.000959
15 0.000980
16 0.000899
17 0.000792
18 0.000737
19 0.000697
20 0.000709
21 0.000771
22 0.000775
23 0.000892
24 0.001051
25 0.001167
26 0.001228
27 0.001216
28 0.001157
29 0.001070
30 0.001030
31 0.000872
32 0.000766
33 0.000727
34 0.000650
35 0.000684
36 0.000768
37 0.000877
38 0.000971
39 0.000990
40 0.001000
41 0.000983
42 0.000906
43 0.000828
44 0.000782
45 0.000700
46 0.000617
47 0.000563
48 0.000514
49 0.000480
50 0.000436
51 0.000466
52 0.000581
53 0.000684
54 0.000696
55 0.000700
56 0.000687
57 0.000668
58 0.000663
59 0.000649
60 0.000654
61 0.000675
62 0.000690
63 0.000750
64 0.000781
65 0.000848
66 0.000850
67 0.000835
68 0.000851
69 0.000814
70 0.000754
71 0.000663
72 0.000553
73 0.000480
74 0.000406
75 0.000308
76 0.000251
77 0.000287
78 0.000376
79 0.000512
80 0.000589
81 0.000646
82 0.000707
83 0.000787
84 0.000816
85 0.000842
86 0.000868
87 0.000792
88 0.000713
89 0.000656
90 0.000623
91 0.000598
92 0.000515
93 0.000484
94 0.000464
95 0.000477
96 0.000414
97 0.000309
98 0.000290
99 0.000264
100 0.000252
101 0.000240
102 0.000182
103 0.000222
104 0.000254
105 0.000315
106 0.000358
107 0.000372
108 0.000365
109 0.000412
110 0.000392
111 0.000344
112 0.000340
113 0.000315
114 0.000286
115 0.000268
116 0.000311
117 0.000272
118 0.000312
119 0.000366
120 0.000417
121 0.000434
122 0.000405
123 0.000418
124 0.000413
125 0.000356
126 0.000363
127 0.000317
128 0.000258
129 0.000277
130 0.000341
131 0.000379
132 0.000401
133 0.000387
134 0.000325
135 0.000299
136 0.000273
137 0.000224
138 0.000172
139 0.000143
140 0.000141
141 0.000180
142 0.000252
143 0.000331
144 0.000435
145 0.000508
146 0.000561
147 0.000571
148 0.000605
149 0.000587
150 0.000541
151 0.000515
152 0.000475
153 0.000436
154 0.000415
155 0.000346
156 0.000357
157 0.000379
158 0.000390
159 0.000396
160 0.000411
161 0.000341
162 0.000185
163 0.000059
164 -0.000081
165 -0.000163
166 -0.000203
167 -0.000201
168 -0.000089
169 0.000024
170 0.000113
171 0.000224
172 0.000333
173 0.000391
174 0.000448
175 0.000469
176 0.000460
177 0.000458
178 0.000477
179 0.000472
180 0.000423
181 0.000420
182 0.000489
183 0.000538
184 0.000628
185 0.000638
186 0.000680
187 0.000719
188 0.000706
189 0.000722
190 0.000653
191 0.000575
192 0.000476
193 0.000405
194 0.000326
195 0.000286
196 0.000363
197 0.000438
198 0.000520
199 0.000559
200 0.000550
201 0.000513
202 0.000515
203 0.000483
204 0.000474
205 0.000414
206 0.000354
207 0.000331
208 0.000342
209 0.000401
210 0.000450
211 0.000541
212 0.000669
213 0.000788
214 0.000820
215 0.000804
216 0.000721
217 0.000576
218 0.000433
219 0.000303
220 0.000159
221 0.000035
222 -0.000005
223 -0.000059
224 -0.000026
225 0.000004
226 0.000058
227 0.000077
228 0.000150
229 0.000198
230 0.000265
231 0.000225
232 0.000226
233 0.000185
234 0.000157
235 0.000169
236 0.000219
237 0.000278
238 0.000381
239 0.000468
240 0.000555
241 0.000510
242 0.000515
243 0.000501
244 0.000435
245 0.000391
246 0.000267
247 0.000142
248 0.000127
249 0.000165
