# i correlation
1 0.006382
2 0.005685
3 0.005085
4 0.004569
5 0.004029
6 0.003633
7 0.003250
8 0.002844
9 0.002447
10 0.002177
11 0.002012
12 0.001879
13 0.001759
14 0.001678
15 0.001630
16 0.001542
17 0.001510
18 0.001564
19 0.001638
20 0.001654
21 0.001658
22 0.001728
23 0.001771
24 0.001818
25 0.001865
26 0.001848
27 0.001817
28 0.001828
29 0.001819
30 0.001837
31 0.001863
32 0.001866
33 0.001848
34 0.001826
35 0.001821
36 0.001876
37 0.001962
38 0.001966
39 0.001979
40 0.001981
41 0.001917
42 0.001926
43 0.001916
44 0.001780
45 0.001606
46 0.001564
47 0.001539
48 0.001481
49 0.001475
50 0.001452
51 0.001386
52 0.001300
53 0.001245
54 0.001268
55 0.001257
56 0.001297
57 0.001273
58 0.001226
59 0.001184
60 0.001206
61 0.001301
62 0.001393
63 0.001409
64 0.001388
65 0.001396
66 0.001399
67 0.001412
68 0.001455
69 0.001416
70 0.001280
71 0.001177
72 0.001057
73 0.000939
74 0.000810
75 0.000806
76 0.000793
77 0.000786
78 0.000780
79 0.000904
80 0.000959
81 0.001028
82 0.000990
83 0.000959
84 0.000895
85 0.000845
86 0.000794
87 0.000744
88 0.000673
89 0.000642
90 0.000529
91 0.000445
92 0.000419
93 0.000449
94 0.000515
95 0.000547
96 0.000579
97 0.000562
98 0.000516
99 0.000574
100 0.000703
101 0.000806
102 0.000842
103 0.000873
104 0.000913
105 0.000982
106 0.001028
107 0.001094
108 0.001138
109 0.001181
110 0.001157
111 0.001201
112 0.001244
113 0.001278
114 0.001303
115 0.001355
116 0.001405
117 0.001483
118 0.001618
119 0.001761
120 0.001786
121 0.001826
122 0.001925
123 0.001968
124 0.001960
125 0.001907
126 0.001807
127 0.001727
128 0.001594
129 0.001451
130 0.001279
131 0.001183
132 0.001020
133 0.000898
134 0.000785
135 0.000728
136 0.000696
137 0.000691
138 0.000679
139 0.000695
140 0.000713
141 0.000739
142 0.000852
143 0.000977
144 0.001037
145 0.001063
146 0.001054
147 0.001052
148 0.001007
149 0.000974
150 0.000974
151 0.000930
152 0.000841
153 0.000745
154 0.000712
155 0.000693
156 0.000648
157 0.000639
158 0.000685
159 0.000685
160 0.000688
161 0.000786
162 0.000870
163 0.000920
164 0.001026
165 0.001119
166 0.001130
167 0.001147
168 0.001137
169 0.001101
170 0.001049
171 0.000945
172 0.000853
173 0.000776
174 0.000715
175 0.000637
176 0.000562
177 0.000466
178 0.000384
179 0.000378
180 0.000347
181 0.000358
182 0.000438
183 0.000581
184 0.000708
185 0.000779
186 0.000814
187 0.000826
188 0.000763
189 0.000718
190 0.000679
191 0.000663
192 0.000703
193 0.000749
194 0.000766
195 0.000783
196 0.000805
197 0.000776
198 0.000734
199 0.000646
200 0.000513
201 0.000353
202 0.000207
203 0.000136
204 0.000152
205 0.000127
206 0.000131
207 0.000159
208 0.000129
209 0.000063
210 -0.000029
211 -0.000148
212 -0.000267
213 -0.000374
214 -0.000413
215 -0.000451
216 -0.000540
217 -0.000651
218 -0.000627
219 -0.000572
220 -0.000492
221 -0.000356
222 -0.000212
223 -0.000072
224 -0.000009
225 0.000020
226 0.000128
227 0.000211
228 0.000259
229 0.000303
230 0.000380
231 0.000401
232 0.000371
233 0.000400
234 0.000401
235 0.000360
236 0.000314
237 0.000231
238 0.000162
239 0.000107
240 0.000095
241 0.000016
242 -0.000049
243 -0.000091
244 -0.000073
245 0.000017
246 0.000143
247 0.000226
248 0.000253
249 0.000221
