# i correlation
1 0.005345
2 0.004710
3 0.004187
4 0.003740
5 0.003385
6 0.003109
7 0.002921
8 0.002799
9 0.002690
10 0.002544
11 0.002424
12 0.002275
13 0.002097
14 0.001913
15 0.001796
16 0.001720
17 0.001650
18 0.001654
19 0.001667
20 0.001613
21 0.001545
22 0.001501
23 0.001385
24 0.001353
25 0.001341
26 0.001339
27 0.001270
28 0.001248
29 0.001224
30 0.001233
31 0.001175
32 0.001123
33 0.001068
34 0.001064
35 0.001065
36 0.001103
37 0.001180
38 0.001217
39 0.001217
40 0.001261
41 0.001286
42 0.001278
43 0.001279
44 0.001207
45 0.001196
46 0.001155
47 0.001176
48 0.001201
49 0.001164
50 0.001091
51 0.001053
52 0.001069
53 0.001044
54 0.001015
55 0.000982
56 0.001003
57 0.000978
58 0.000915
59 0.000848
60 0.000819
61 0.000917
62 0.000974
63 0.000963
64 0.000930
65 0.000980
66 0.000984
67 0.000971
68 0.000977
69 0.000973
70 0.000991
71 0.001093
72 0.001238
73 0.001325
74 0.001290
75 0.001281
76 0.001200
77 0.001123
78 0.001099
79 0.001115
80 0.001121
81 0.001162
82 0.001227
83 0.001337
84 0.001430
85 0.001454
86 0.001493
87 0.001595
88 0.001583
89 0.001573
90 0.001612
91 0.001589
92 0.001499
93 0.001409
94 0.001324
95 0.001264
96 0.001207
97 0.001176
98 0.001140
99 0.001135
100 0.001173
101 0.001186
102 0.001159
103 0.001199
104 0.001164
105 0.001176
106 0.001196
107 0.001156
108 0.001087
109 0.001096
110 0.001068
111 0.001072
112 0.001084
113 0.001141
114 0.001270
115 0.001375
116 0.001402
117 0.001390
118 0.001457
119 0.001499
120 0.001559
121 0.001531
122 0.001493
123 0.001478
124 0.001470
125 0.001428
126 0.001400
127 0.001431
128 0.001451
129 0.001433
130 0.001427
131 0.001429
132 0.001336
133 0.001244
134 0.001104
135 0.000972
136 0.000855
137 0.000751
138 0.000694
139 0.000652
140 0.000667
141 0.000665
142 0.000543
143 0.000532
144 0.000501
145 0.000410
146 0.000388
147 0.000385
148 0.000506
149 0.000546
150 0.000625
151 0.000703
152 0.000807
153 0.000926
154 0.000960
155 0.000983
156 0.000994
157 0.001005
158 0.001042
159 0.001081
160 0.001067
161 0.001068
162 0.001113
163 0.001121
164 0.001064
165 0.001007
166 0.000940
167 0.000887
168 0.000870
169 0.000921
170 0.000985
171 0.001054
172 0.001122
173 0.001139
174 0.001155
175 0.001087
176 0.001072
177 0.001054
178 0.001094
179 0.001144
180 0.001148
181 0.001175
182 0.001119
183 0.001018
184 0.000960
185 0.000912
186 0.000935
187 0.000979
188 0.001006
189 0.001059
190 0.001138
191 0.001164
192 0.001189
193 0.001202
194 0.001164
195 0.001162
196 0.001142
197 0.001166
198 0.001262
199 0.001363
200 0.001438
201 0.001420
202 0.001372
203 0.001319
204 0.001256
205 0.001256
206 0.001238
207 0.001260
208 0.001258
209 0.001333
210 0.001404
211 0.001455
212 0.001483
213 0.001403
214 0.001349
215 0.001308
216 0.001273
217 0.001222
218 0.001170
219 0.001147
220 0.001142
221 0.001141
222 0.001109
223 0.001086
224 0.001080
225 0.001029
226 0.000995
227 0.001003
228 0.001031
229 0.001056
230 0.001100
231 0.001154
232 0.001090
233 0.001013
234 0.000987
235 0.000992
236 0.000981
237 0.000997
238 0.001006
239 0.000955
240 0.000919
241 0.000865
242 0.000810
243 0.000758
244 0.000763
245 0.000774
246 0.000789
247 0.000772
248 0.000760
249 0.000721
