# i correlation
1 0.004406
2 0.003742
3 0.003181
4 0.002661
5 0.002238
6 0.001919
7 0.001580
8 0.001322
9 0.001135
10 0.000932
11 0.000813
12 0.000748
13 0.000590
14 0.000487
15 0.000472
16 0.000373
17 0.000335
18 0.000257
19 0.000254
20 0.000274
21 0.000308
22 0.000378
23 0.000432
24 0.000483
25 0.000514
26 0.000578
27 0.000618
28 0.000659
29 0.000692
30 0.000743
31 0.000820
32 0.000887
33 0.000965
34 0.000992
35 0.001044
36 0.000998
37 0.000917
38 0.000806
39 0.000750
40 0.000663
41 0.000564
42 0.000470
43 0.000398
44 0.000386
45 0.000461
46 0.000527
47 0.000662
48 0.000739
49 0.000781
50 0.000822
51 0.000901
52 0.000968
53 0.000985
54 0.001010
55 0.001012
56 0.001002
57 0.001010
58 0.001056
59 0.001100
60 0.001151
61 0.001197
62 0.001329
63 0.001491
64 0.001587
65 0.001530
66 0.001441
67 0.001301
68 0.001235
69 0.001154
70 0.001115
71 0.001061
72 0.000989
73 0.000925
74 0.000982
75 0.000986
76 0.001006
77 0.001109
78 0.001154
79 0.001137
80 0.001129
81 0.001133
82 0.001110
83 0.001187
84 0.001224
85 0.001249
86 0.001152
87 0.001059
88 0.000992
89 0.000926
90 0.000846
91 0.000747
92 0.000631
93 0.000601
94 0.000614
95 0.000575
96 0.000591
97 0.000696
98 0.000864
99 0.000971
100 0.001038
101 0.000951
102 0.000827
103 0.000712
104 0.000567
105 0.000452
106 0.000314
107 0.000292
108 0.000177
109 0.000192
110 0.000262
111 0.000370
112 0.000394
113 0.000421
114 0.000484
115 0.000522
116 0.000604
117 0.000635
118 0.000631
119 0.000642
120 0.000599
121 0.000554
122 0.000560
123 0.000563
124 0.000623
125 0.000708
126 0.000743
127 0.000720
128 0.000759
129 0.000792
130 0.000778
131 0.000787
132 0.000794
133 0.000902
134 0.000965
135 0.000955
136 0.000909
137 0.000862
138 0.000806
139 0.000717
140 0.000702
141 0.000651
142 0.000658
143 0.000647
144 0.000606
145 0.000598
146 0.000634
147 0.000632
148 0.000557
149 0.000465
150 0.000430
151 0.000405
152 0.000460
153 0.000509
154 0.000512
155 0.000569
156 0.000625
157 0.000700
158 0.000819
159 0.000880
160 0.000833
161 0.000851
162 0.000902
163 0.000925
164 0.000910
165 0.000866
166 0.000796
167 0.000685
168 0.000619
169 0.000555
170 0.000507
171 0.000409
172 0.000279
173 0.000203
174 0.000126
175 0.000030
176 0.000008
177 0.000053
178 0.000137
179 0.000224
180 0.000353
181 0.000441
182 0.000532
183 0.000597
184 0.000624
185 0.000739
186 0.000849
187 0.000941
188 0.001090
189 0.001123
190 0.001131
191 0.001083
192 0.001036
193 0.000948
194 0.000839
195 0.000692
196 0.000605
197 0.000591
198 0.000570
199 0.000538
200 0.000439
201 0.000337
202 0.000279
203 0.000189
204 0.000144
205 0.000113
206 0.000091
207 0.000030
208 0.000013
209 -0.000004
210 0.000026
211 0.000055
212 0.000039
213 0.000015
214 0.000074
215 0.000075
216 0.000114
217 0.000193
218 0.000271
219 0.000379
220 0.000428
221 0.000524
222 0.000612
223 0.000663
224 0.000649
225 0.000602
226 0.000593
227 0.000616
228 0.000597
229 0.000514
230 0.000495
231 0.000495
232 0.000465
233 0.000489
234 0.000489
235 0.000490
236 0.000494
237 0.000512
238 0.000523
239 0.000545
240 0.000605
241 0.000672
242 0.000729
243 0.000760
244 0.000810
245 0.000865
246 0.000852
247 0.000829
248 0.000748
249 0.000661
