# i correlation
1 0.005554
2 0.004956
3 0.004451
4 0.004049
5 0.003707
6 0.003449
7 0.003178
8 0.002896
9 0.002613
10 0.002341
11 0.002247
12 0.002146
13 0.002102
14 0.002020
15 0.001992
16 0.001975
17 0.001970
18 0.002027
19 0.002107
20 0.002077
21 0.002096
22 0.002207
23 0.002240
24 0.002187
25 0.002145
26 0.002061
27 0.001960
28 0.001935
29 0.001856
30 0.001812
31 0.001805
32 0.001752
33 0.001687
34 0.001694
35 0.001596
36 0.001548
37 0.001534
38 0.001545
39 0.001526
40 0.001511
41 0.001550
42 0.001527
43 0.001524
44 0.001490
45 0.001455
46 0.001409
47 0.001421
48 0.001395
49 0.001369
50 0.001402
51 0.001324
52 0.001291
53 0.001294
54 0.001258
55 0.001147
56 0.001112
57 0.001112
58 0.001202
59 0.001357
60 0.001491
61 0.001533
62 0.001510
63 0.001474
64 0.001477
65 0.001510
66 0.001485
67 0.001474
68 0.001414
69 0.001341
70 0.001223
71 0.001156
72 0.001164
73 0.001139
74 0.001194
75 0.001240
76 0.001230
77 0.001262
78 0.001302
79 0.001379
80 0.001461
81 0.001557
82 0.001681
83 0.001822
84 0.001858
85 0.001851
86 0.001810
87 0.001796
88 0.001773
89 0.001744
90 0.001737
91 0.001706
92 0.001690
93 0.001712
94 0.001676
95 0.001606
96 0.001581
97 0.001611
98 0.001618
99 0.001644
100 0.001657
101 0.001563
102 0.001490
103 0.001458
104 0.001374
105 0.001362
106 0.001362
107 0.001276
108 0.001232
109 0.001186
110 0.001134
111 0.001088
112 0.001061
113 0.000955
114 0.000858
115 0.000769
116 0.000692
117 0.000610
118 0.000620
119 0.000615
120 0.000614
121 0.000548
122 0.000571
123 0.000556
124 0.000593
125 0.000646
126 0.000689
127 0.000703
128 0.000766
129 0.000766
130 0.000759
131 0.000817
132 0.000756
133 0.000786
134 0.000772
135 0.000718
136 0.000614
137 0.000593
138 0.000570
139 0.000525
140 0.000486
141 0.000455
142 0.000484
143 0.000468
144 0.000527
145 0.000572
146 0.000622
147 0.000702
148 0.000742
149 0.000746
150 0.000755
151 0.000716
152 0.000756
153 0.000779
154 0.000720
155 0.000624
156 0.000591
157 0.000649
158 0.000682
159 0.000691
160 0.000673
161 0.000665
162 0.000656
163 0.000586
164 0.000541
165 0.000577
166 0.000574
167 0.000518
168 0.000517
169 0.000524
170 0.000551
171 0.000540
172 0.000568
173 0.000566
174 0.000521
175 0.000554
176 0.000658
177 0.000727
178 0.000733
179 0.000744
180 0.000781
181 0.000755
182 0.000761
183 0.000828
184 0.000906
185 0.000868
186 0.000733
187 0.000687
188 0.000738
189 0.000792
190 0.000849
191 0.000931
192 0.000913
193 0.000889
194 0.000868
195 0.000905
196 0.000951
197 0.000994
198 0.001061
199 0.001107
200 0.001125
201 0.001151
202 0.001245
203 0.001303
204 0.001307
205 0.001269
206 0.001270
207 0.001265
208 0.001236
209 0.001239
210 0.001234
211 0.001242
212 0.001253
213 0.001287
214 0.001275
215 0.001250
216 0.001264
217 0.001274
218 0.001277
219 0.001318
220 0.001291
221 0.001342
222 0.001403
223 0.001375
224 0.001348
225 0.001312
226 0.001274
227 0.001230
228 0.001217
229 0.001202
230 0.001214
231 0.001192
232 0.001134
233 0.001069
234 0.001006
235 0.000953
236 0.000954
237 0.001016
238 0.001079
239 0.001052
240 0.001056
241 0.001079
242 0.001096
243 0.001120
244 0.001215
245 0.001245
246 0.001186
247 0.001110
248 0.001017
249 0.000994
