# i correlation
1 0.006547
2 0.005746
3 0.005008
4 0.004348
5 0.003805
6 0.003271
7 0.002868
8 0.002623
9 0.002414
10 0.002240
11 0.002093
12 0.001940
13 0.001953
14 0.001928
15 0.001920
16 0.001795
17 0.001612
18 0.001534
19 0.001484
20 0.001491
21 0.001522
22 0.001484
23 0.001476
24 0.001641
25 0.001807
26 0.002020
27 0.002156
28 0.002369
29 0.002524
30 0.002568
31 0.002587
32 0.002478
33 0.002424
34 0.002430
35 0.002391
36 0.002260
37 0.002113
38 0.001903
39 0.001801
40 0.001679
41 0.001649
42 0.001633
43 0.001585
44 0.001644
45 0.001592
46 0.001500
47 0.001432
48 0.001318
49 0.001325
50 0.001350
51 0.001357
52 0.001416
53 0.001521
54 0.001647
55 0.001823
56 0.001870
57 0.001877
58 0.001819
59 0.001716
60 0.001547
61 0.001386
62 0.001286
63 0.001202
64 0.001146
65 0.001106
66 0.001074
67 0.001025
68 0.001048
69 0.001097
70 0.001220
71 0.001348
72 0.001428
73 0.001491
74 0.001552
75 0.001530
76 0.001521
77 0.001551
78 0.001630
79 0.001754
80 0.001802
81 0.001870
82 0.001944
83 0.002094
84 0.002250
85 0.002342
86 0.002346
87 0.002268
88 0.002146
89 0.002008
90 0.001821
91 0.001619
92 0.001534
93 0.001482
94 0.001447
95 0.001377
96 0.001302
97 0.001330
98 0.001366
99 0.001332
100 0.001316
101 0.001234
102 0.001226
103 0.001235
104 0.001291
105 0.001386
106 0.001415
107 0.001444
108 0.001541
109 0.001658
110 0.001637
111 0.001630
112 0.001609
113 0.001585
114 0.001615
115 0.001637
116 0.001659
117 0.001617
118 0.001596
119 0.001504
120 0.001365
121 0.001158
122 0.000958
123 0.000880
124 0.000854
125 0.000856
126 0.000875
127 0.000908
128 0.000887
129 0.000923
130 0.000945
131 0.000953
132 0.000916
133 0.000894
134 0.000918
135 0.000915
136 0.000957
137 0.001013
138 0.001129
139 0.001213
140 0.001355
141 0.001477
142 0.001578
143 0.001587
144 0.001674
145 0.001719
146 0.001662
147 0.001579
148 0.001507
149 0.001521
150 0.001483
151 0.001504
152 0.001512
153 0.001520
154 0.001557
155 0.001665
156 0.001784
157 0.001763
158 0.001643
159 0.001620
160 0.001625
161 0.001654
162 0.001660
163 0.001644
164 0.001722
165 0.001773
166 0.001788
167 0.001768
168 0.001749
169 0.001746
170 0.001804
171 0.001834
172 0.001800
173 0.001820
174 0.001731
175 0.001638
176 0.001522
177 0.001420
178 0.001402
179 0.001373
180 0.001390
181 0.001485
182 0.001591
183 0.001633
184 0.001641
185 0.001679
186 0.001713
187 0.001763
188 0.001733
189 0.001756
190 0.001860
191 0.001886
192 0.001907
193 0.001896
194 0.001835
195 0.001865
196 0.001871
197 0.001937
198 0.002040
199 0.002052
200 0.002019
201 0.001895
202 0.001723
203 0.001544
204 0.001306
205 0.001061
206 0.000911
207 0.000814
208 0.000762
209 0.000771
210 0.000763
211 0.000847
212 0.000893
213 0.000875
214 0.000860
215 0.000813
216 0.000791
217 0.000740
218 0.000676
219 0.000667
220 0.000724
221 0.000747
222 0.000816
223 0.000861
224 0.000970
225 0.001057
226 0.001137
227 0.001284
228 0.001392
229 0.001492
230 0.001512
231 0.001490
232 0.001374
233 0.001341
234 0.001382
235 0.001381
236 0.001335
237 0.001247
238 0.001114
239 0.001007
240 0.000906
241 0.000813
242 0.000782
243 0.000758
244 0.000763
245 0.000704
246 0.000690
247 0.000693
248 0.000731
249 0.000787
