# i correlation
1 0.003876
2 0.003241
3 0.002723
4 0.002256
5 0.001920
6 0.001643
7 0.001375
8 0.001168
9 0.001093
10 0.001072
11 0.001075
12 0.001040
13 0.001006
14 0.000984
15 0.000924
16 0.000762
17 0.000649
18 0.000580
19 0.000491
20 0.000476
21 0.000480
22 0.000569
23 0.000631
24 0.000647
25 0.000656
26 0.000621
27 0.000625
28 0.000632
29 0.000653
30 0.000629
31 0.000583
32 0.000563
33 0.000574
34 0.000642
35 0.000690
36 0.000701
37 0.000710
38 0.000803
39 0.000808
40 0.000784
41 0.000747
42 0.000684
43 0.000647
44 0.000625
45 0.000635
46 0.000609
47 0.000612
48 0.000628
49 0.000659
50 0.000655
51 0.000611
52 0.000650
53 0.000718
54 0.000686
55 0.000653
56 0.000709
57 0.000756
58 0.000813
59 0.000841
60 0.000862
61 0.000815
62 0.000750
63 0.000694
64 0.000605
65 0.000587
66 0.000575
67 0.000566
68 0.000608
69 0.000553
70 0.000522
71 0.000519
72 0.000487
73 0.000445
74 0.000367
75 0.000322
76 0.000292
77 0.000204
78 0.000187
79 0.000189
80 0.000177
81 0.000125
82 0.000118
83 0.000190
84 0.000261
85 0.000299
86 0.000347
87 0.000399
88 0.000425
89 0.000418
90 0.000413
91 0.000391
92 0.000375
93 0.000394
94 0.000359
95 0.000344
96 0.000348
97 0.000335
98 0.000311
99 0.000306
100 0.000281
101 0.000311
102 0.000286
103 0.000261
104 0.000251
105 0.000312
106 0.000307
107 0.000278
108 0.000238
109 0.000162
110 0.000136
111 0.000115
112 0.000088
113 0.000079
114 0.000029
115 0.000054
116 -0.000002
117 0.000014
118 0.000074
119 0.000125
120 0.000110
121 0.000124
122 0.000139
123 0.000118
124 0.000138
125 0.000144
126 0.000139
127 0.000160
128 0.000196
129 0.000251
130 0.000358
131 0.000458
132 0.000534
133 0.000585
134 0.000591
135 0.000594
136 0.000609
137 0.000604
138 0.000557
139 0.000477
140 0.000378
141 0.000295
142 0.000237
143 0.000181
144 0.000108
145 0.000055
146 0.000069
147 0.000079
148 0.000089
149 0.000120
150 0.000068
151 0.000016
152 0.000004
153 0.000081
154 0.000054
155 0.000011
156 0.000031
157 0.000020
158 0.000036
159 0.000068
160 0.000066
161 0.000044
162 0.000036
163 0.000051
164 0.000059
165 0.000133
166 0.000177
167 0.000201
168 0.000220
169 0.000153
170 0.000122
171 0.000203
172 0.000198
173 0.000183
174 0.000129
175 0.000177
176 0.000284
177 0.000371
178 0.000411
179 0.000351
180 0.000289
181 0.000285
182 0.000296
183 0.000311
184 0.000324
185 0.000388
186 0.000386
187 0.000440
188 0.000437
189 0.000440
190 0.000504
191 0.000620
192 0.000673
193 0.000768
194 0.000796
195 0.000763
196 0.000676
197 0.000604
198 0.000588
199 0.000591
200 0.000561
201 0.000490
202 0.000434
203 0.000346
204 0.000270
205 0.000292
206 0.000281
207 0.000225
208 0.000131
209 0.000079
210 -0.000028
211 -0.000116
212 -0.000212
213 -0.000256
214 -0.000259
215 -0.000301
216 -0.000267
217 -0.000225
218 -0.000242
219 -0.000169
220 -0.000123
221 -0.000102
222 -0.000076
223 -0.000083
224 -0.000017
225 0.000062
226 0.000159
227 0.000180
228 0.000175
229 0.000205
230 0.000200
231 0.000226
232 0.000300
233 0.000344
234 0.000403
235 0.000418
236 0.000385
237 0.000307
238 0.000300
239 0.000330
240 0.000362
241 0.000372
242 0.000418
243 0.000515
244 0.000579
245 0.000573
246 0.000562
247 0.000498
248 0.000435
249 0.000394
