# i correlation
1 0.005927
2 0.005250
3 0.004661
4 0.004071
5 0.003551
6 0.003036
7 0.002531
8 0.002157
9 0.001802
10 0.001491
11 0.001196
12 0.001022
13 0.000777
14 0.000554
15 0.000409
16 0.000319
17 0.000247
18 0.000217
19 0.000252
20 0.000321
21 0.000341
22 0.000311
23 0.000217
24 0.000143
25 0.000050
26 -0.000024
27 -0.000041
28 -0.000028
29 -0.000051
30 -0.000035
31 -0.000012
32 0.000094
33 0.000240
34 0.000379
35 0.000505
36 0.000626
37 0.000704
38 0.000810
39 0.000910
40 0.000909
41 0.000867
42 0.000807
43 0.000773
44 0.000768
45 0.000780
46 0.000724
47 0.000722
48 0.000649
49 0.000596
50 0.000602
51 0.000553
52 0.000524
53 0.000483
54 0.000460
55 0.000502
56 0.000478
57 0.000485
58 0.000522
59 0.000538
60 0.000556
61 0.000498
62 0.000455
63 0.000357
64 0.000228
65 0.000090
66 0.000066
67 0.000019
68 -0.000048
69 -0.000066
70 -0.000147
71 -0.000228
72 -0.000247
73 -0.000264
74 -0.000188
75 -0.000102
76 -0.000036
77 0.000025
78 0.000105
79 0.000237
80 0.000260
81 0.000303
82 0.000364
83 0.000335
84 0.000297
85 0.000309
86 0.000290
87 0.000214
88 0.000125
89 0.000009
90 -0.000091
91 -0.000135
92 -0.000198
93 -0.000289
94 -0.000257
95 -0.000236
96 -0.000168
97 -0.000089
98 -0.000016
99 -0.000006
100 -0.000060
101 -0.000103
102 -0.000083
103 -0.000153
104 -0.000290
105 -0.000399
106 -0.000490
107 -0.000626
108 -0.000782
109 -0.000869
110 -0.000906
111 -0.000901
112 -0.000808
113 -0.000725
114 -0.000545
115 -0.000418
116 -0.000361
117 -0.000287
118 -0.000164
119 -0.000064
120 0.000055
121 0.000106
122 0.000133
123 0.000168
124 0.000279
125 0.000319
126 0.000377
127 0.000321
128 0.000224
129 0.000179
130 0.000181
131 0.000262
132 0.000413
133 0.000446
134 0.000538
135 0.000682
136 0.000887
137 0.001021
138 0.001066
139 0.000960
140 0.000881
141 0.000895
142 0.000850
143 0.000833
144 0.000824
145 0.000859
146 0.000896
147 0.000903
148 0.000894
149 0.000901
150 0.000873
151 0.000872
152 0.000905
153 0.000935
154 0.001000
155 0.001029
156 0.001057
157 0.001050
158 0.001002
159 0.000921
160 0.000828
161 0.000723
162 0.000540
163 0.000367
164 0.000220
165 0.000123
166 -0.000012
167 -0.000145
168 -0.000273
169 -0.000409
170 -0.000413
171 -0.000400
172 -0.000381
173 -0.000271
174 -0.000185
175 -0.000088
176 0.000032
177 0.000129
178 0.000201
179 0.000275
180 0.000378
181 0.000536
182 0.000661
183 0.000729
184 0.000794
185 0.000870
186 0.000839
187 0.000804
188 0.000820
189 0.000746
190 0.000675
191 0.000613
192 0.000603
193 0.000595
194 0.000616
195 0.000673
196 0.000639
197 0.000665
198 0.000663
199 0.000666
200 0.000741
201 0.000784
202 0.000742
203 0.000696
204 0.000657
205 0.000615
206 0.000587
207 0.000601
208 0.000567
209 0.000543
210 0.000516
211 0.000506
212 0.000501
213 0.000525
214 0.000503
215 0.000523
216 0.000588
217 0.000621
218 0.000707
219 0.000765
220 0.000851
221 0.000936
222 0.001030
223 0.001077
224 0.001123
225 0.001155
226 0.001175
227 0.001160
228 0.001154
229 0.001124
230 0.001158
231 0.001184
232 0.001255
233 0.001312
234 0.001325
235 0.001356
236 0.001314
237 0.001231
238 0.001169
239 0.001090
240 0.001049
241 0.000982
242 0.000940
243 0.000874
244 0.000829
245 0.000682
246 0.000524
247 0.000415
248 0.000270
249 0.000118
