# i correlation
1 0.003956
2 0.003318
3 0.002764
4 0.002376
5 0.001972
6 0.001665
7 0.001420
8 0.001264
9 0.001088
10 0.000901
11 0.000738
12 0.000604
13 0.000524
14 0.000582
15 0.000634
16 0.000649
17 0.000704
18 0.000801
19 0.000850
20 0.000858
21 0.000869
22 0.000895
23 0.000911
24 0.000923
25 0.000922
26 0.000832
27 0.000812
28 0.000703
29 0.000594
30 0.000459
31 0.000394
32 0.000348
33 0.000319
34 0.000308
35 0.000284
36 0.000321
37 0.000310
38 0.000324
39 0.000293
40 0.000238
41 0.000124
42 0.000089
43 -0.000005
44 -0.000100
45 -0.000106
46 -0.000044
47 0.000018
48 0.000122
49 0.000236
50 0.000310
51 0.000297
52 0.000258
53 0.000193
54 0.000178
55 0.000189
56 0.000201
57 0.000182
58 0.000169
59 0.000151
60 0.000116
61 0.000028
62 -0.000025
63 -0.000087
64 -0.000142
65 -0.000118
66 -0.000180
67 -0.000134
68 -0.000140
69 -0.000130
70 -0.000103
71 -0.000078
72 0.000029
73 0.000105
74 0.000241
75 0.000310
76 0.000380
77 0.000433
78 0.000513
79 0.000541
80 0.000587
81 0.000574
82 0.000602
83 0.000565
84 0.000505
85 0.000417
86 0.000355
87 0.000328
88 0.000302
89 0.000245
90 0.000166
91 0.000141
92 0.000226
93 0.000261
94 0.000305
95 0.000322
96 0.000400
97 0.000489
98 0.000531
99 0.000568
100 0.000620
101 0.000747
102 0.000732
103 0.000621
104 0.000469
105 0.000404
106 0.000302
107 0.000217
108 0.000085
109 0.000073
110 0.000110
111 0.000089
112 0.000084
113 0.000046
114 0.000084
115 0.000194
116 0.000280
117 0.000341
118 0.000413
119 0.000443
120 0.000520
121 0.000503
122 0.000478
123 0.000450
124 0.000481
125 0.000465
126 0.000436
127 0.000272
128 0.000192
129 0.000145
130 0.000186
131 0.000185
132 0.000187
133 0.000087
134 0.000119
135 0.000130
136 0.000150
137 0.000180
138 0.000240
139 0.000282
140 0.000231
141 0.000210
142 0.000181
143 0.000181
144 0.000181
145 0.000153
146 0.000084
147 0.000116
148 0.000168
149 0.000240
150 0.000282
151 0.000338
152 0.000368
153 0.000399
154 0.000333
155 0.000284
156 0.000221
157 0.000275
158 0.000249
159 0.000300
160 0.000256
161 0.000212
162 0.000135
163 0.000131
164 0.000080
165 0.000060
166 0.000074
167 0.000145
168 0.000206
169 0.000207
170 0.000128
171 0.000052
172 0.000002
173 -0.000044
174 -0.000024
175 0.000036
176 0.000055
177 0.000074
178 0.000083
179 0.000103
180 0.000084
181 0.000030
182 -0.000013
183 -0.000004
184 0.000015
185 -0.000005
186 -0.000068
187 -0.000135
188 -0.000195
189 -0.000241
190 -0.000234
191 -0.000259
192 -0.000299
193 -0.000318
194 -0.000364
195 -0.000394
196 -0.000384
197 -0.000326
198 -0.000305
199 -0.000272
200 -0.000262
201 -0.000295
202 -0.000352
203 -0.000412
204 -0.000421
205 -0.000454
206 -0.000465
207 -0.000430
208 -0.000433
209 -0.000437
210 -0.000486
211 -0.000544
212 -0.000573
213 -0.000610
214 -0.000578
215 -0.000533
216 -0.000420
217 -0.000312
218 -0.000250
219 -0.000171
220 -0.000118
221 -0.000063
222 0.000019
223 0.000063
224 0.000098
225 0.000140
226 0.000179
227 0.000178
228 0.000159
229 0.000130
230 0.000094
231 0.000110
232 0.000130
233 0.000172
234 0.000167
235 0.000258
236 0.000278
237 0.000268
238 0.000203
239 0.000213
240 0.000183
241 0.000219
242 0.000172
243 0.000152
244 0.000151
245 0.000201
246 0.000273
247 0.000300
248 0.000296
249 0.000248
