# i correlation
1 0.005963
2 0.005273
3 0.004746
4 0.004310
5 0.003916
6 0.003605
7 0.003372
8 0.003176
9 0.002987
10 0.002731
11 0.002539
12 0.002413
13 0.002365
14 0.002313
15 0.002310
16 0.002283
17 0.002319
18 0.002368
19 0.002474
20 0.002413
21 0.002345
22 0.002373
23 0.002410
24 0.002422
25 0.002412
26 0.002442
27 0.002462
28 0.002504
29 0.002536
30 0.002534
31 0.002590
32 0.002637
33 0.002628
34 0.002575
35 0.002459
36 0.002384
37 0.002293
38 0.002218
39 0.002150
40 0.002084
41 0.002009
42 0.001907
43 0.001846
44 0.001818
45 0.001903
46 0.001980
47 0.001981
48 0.001994
49 0.001981
50 0.001975
51 0.002013
52 0.002043
53 0.002141
54 0.002170
55 0.002138
56 0.002063
57 0.002028
58 0.002039
59 0.002088
60 0.002111
61 0.002140
62 0.002193
63 0.002158
64 0.002123
65 0.002103
66 0.002063
67 0.002052
68 0.002079
69 0.002121
70 0.002064
71 0.001982
72 0.001973
73 0.001968
74 0.001977
75 0.001972
76 0.001927
77 0.001917
78 0.001933
79 0.001906
80 0.001865
81 0.001824
82 0.001720
83 0.001674
84 0.001687
85 0.001708
86 0.001735
87 0.001747
88 0.001722
89 0.001651
90 0.001618
91 0.001674
92 0.001790
93 0.001818
94 0.001844
95 0.001804
96 0.001758
97 0.001688
98 0.001667
99 0.001686
100 0.001665
101 0.001593
102 0.001475
103 0.001420
104 0.001346
105 0.001291
106 0.001247
107 0.001251
108 0.001197
109 0.001152
110 0.001092
111 0.001084
112 0.001004
113 0.000913
114 0.000890
115 0.000820
116 0.000766
117 0.000783
118 0.000912
119 0.000999
120 0.001162
121 0.001285
122 0.001400
123 0.001568
124 0.001710
125 0.001799
126 0.001869
127 0.001872
128 0.001840
129 0.001789
130 0.001767
131 0.001754
132 0.001732
133 0.001728
134 0.001736
135 0.001673
136 0.001571
137 0.001496
138 0.001349
139 0.001242
140 0.001167
141 0.001032
142 0.000973
143 0.000971
144 0.000978
145 0.001009
146 0.001054
147 0.001112
148 0.001110
149 0.001099
150 0.001051
151 0.001088
152 0.001121
153 0.001187
154 0.001291
155 0.001283
156 0.001263
157 0.001234
158 0.001180
159 0.001115
160 0.001027
161 0.000919
162 0.000923
163 0.000840
164 0.000757
165 0.000679
166 0.000641
167 0.000579
168 0.000483
169 0.000395
170 0.000368
171 0.000405
172 0.000429
173 0.000476
174 0.000524
175 0.000582
176 0.000529
177 0.000482
178 0.000445
179 0.000397
180 0.000368
181 0.000399
182 0.000459
183 0.000506
184 0.000501
185 0.000452
186 0.000417
187 0.000423
188 0.000409
189 0.000468
190 0.000490
191 0.000426
192 0.000358
193 0.000286
194 0.000173
195 0.000079
196 0.000093
197 0.000146
198 0.000228
199 0.000298
200 0.000311
201 0.000319
202 0.000325
203 0.000275
204 0.000275
205 0.000378
206 0.000529
207 0.000628
208 0.000719
209 0.000762
210 0.000770
211 0.000707
212 0.000588
213 0.000502
214 0.000464
215 0.000505
216 0.000547
217 0.000535
218 0.000595
219 0.000636
220 0.000715
221 0.000770
222 0.000736
223 0.000695
224 0.000694
225 0.000728
226 0.000694
227 0.000657
228 0.000686
229 0.000718
230 0.000692
231 0.000601
232 0.000482
233 0.000405
234 0.000332
235 0.000214
236 0.000103
237 0.000052
238 0.000017
239 0.000010
240 -0.000020
241 0.000005
242 0.000071
243 0.000156
244 0.000245
245 0.000268
246 0.000324
247 0.000396
248 0.000433
249 0.000427
