# i correlation
1 0.004585
2 0.003919
3 0.003312
4 0.002791
5 0.002372
6 0.002097
7 0.001865
8 0.001681
9 0.001565
10 0.001497
11 0.001338
12 0.001267
13 0.001160
14 0.001043
15 0.000939
16 0.000829
17 0.000731
18 0.000709
19 0.000681
20 0.000698
21 0.000666
22 0.000661
23 0.000700
24 0.000643
25 0.000569
26 0.000588
27 0.000652
28 0.000669
29 0.000668
30 0.000689
31 0.000682
32 0.000686
33 0.000682
34 0.000719
35 0.000706
36 0.000791
37 0.000924
38 0.000964
39 0.000999
40 0.001052
41 0.001080
42 0.001091
43 0.001110
44 0.001145
45 0.001111
46 0.001059
47 0.000935
48 0.000842
49 0.000763
50 0.000781
51 0.000787
52 0.000765
53 0.000709
54 0.000650
55 0.000558
56 0.000455
57 0.000388
58 0.000287
59 0.000243
60 0.000181
61 0.000157
62 0.000165
63 0.000233
64 0.000283
65 0.000367
66 0.000382
67 0.000452
68 0.000493
69 0.000557
70 0.000605
71 0.000600
72 0.000631
73 0.000529
74 0.000458
75 0.000389
76 0.000356
77 0.000300
78 0.000304
79 0.000322
80 0.000365
81 0.000368
82 0.000360
83 0.000419
84 0.000441
85 0.000540
86 0.000593
87 0.000631
88 0.000698
89 0.000696
90 0.000639
91 0.000671
92 0.000656
93 0.000799
94 0.000934
95 0.001096
96 0.001228
97 0.001278
98 0.001197
99 0.001104
100 0.000831
101 0.000603
102 0.000373
103 0.000276
104 0.000136
105 0.000122
106 0.000099
107 0.000133
108 0.000165
109 0.000266
110 0.000245
111 0.000253
112 0.000312
113 0.000415
114 0.000395
115 0.000425
116 0.000474
117 0.000547
118 0.000573
119 0.000563
120 0.000530
121 0.000503
122 0.000440
123 0.000415
124 0.000402
125 0.000350
126 0.000300
127 0.000289
128 0.000252
129 0.000164
130 0.000151
131 0.000159
132 0.000112
133 0.000198
134 0.000208
135 0.000249
136 0.000394
137 0.000550
138 0.000597
139 0.000669
140 0.000638
141 0.000563
142 0.000543
143 0.000487
144 0.000305
145 0.000168
146 0.000030
147 -0.000019
148 0.000034
149 0.000094
150 0.000166
151 0.000199
152 0.000192
153 0.000124
154 0.000055
155 -0.000026
156 -0.000118
157 -0.000138
158 -0.000138
159 -0.000090
160 -0.000074
161 -0.000052
162 -0.000045
163 0.000003
164 0.000029
165 0.000086
166 0.000091
167 0.000131
168 0.000246
169 0.000300
170 0.000307
171 0.000251
172 0.000223
173 0.000111
174 0.000125
175 0.000158
176 0.000166
177 0.000198
178 0.000184
179 0.000195
180 0.000169
181 0.000181
182 0.000122
183 0.000010
184 -0.000036
185 -0.000061
186 -0.000078
187 -0.000089
188 0.000003
189 0.000004
190 0.000087
191 0.000140
192 0.000239
193 0.000363
194 0.000352
195 0.000315
196 0.000221
197 0.000085
198 -0.000015
199 -0.000101
200 -0.000126
201 -0.000186
202 -0.000140
203 -0.000186
204 -0.000125
205 -0.000074
206 0.000019
207 0.000030
208 0.000047
209 0.000079
210 0.000033
211 0.000045
212 0.000044
213 0.000025
214 0.000011
215 -0.000037
216 -0.000069
217 -0.000112
218 -0.000169
219 -0.000225
220 -0.000205
221 -0.000147
222 -0.000103
223 -0.000141
224 -0.000068
225 -0.000057
226 -0.000037
227 -0.000017
228 -0.000034
229 0.000001
230 0.000063
231 0.000076
232 0.000129
233 0.000171
234 0.000183
235 0.000237
236 0.000374
237 0.000458
238 0.000449
239 0.000463
240 0.000453
241 0.000419
242 0.000338
243 0.000299
244 0.000247
245 0.000266
246 0.000320
247 0.000331
248 0.000348
249 0.000290
