# i correlation
1 0.006226
2 0.005579
3 0.005129
4 0.004756
5 0.004448
6 0.004146
7 0.003828
8 0.003558
9 0.003263
10 0.003048
11 0.002960
12 0.002918
13 0.002832
14 0.002702
15 0.002598
16 0.002511
17 0.002415
18 0.002328
19 0.002327
20 0.002227
21 0.002181
22 0.002058
23 0.002031
24 0.002010
25 0.002005
26 0.002040
27 0.002066
28 0.002151
29 0.002222
30 0.002286
31 0.002376
32 0.002372
33 0.002333
34 0.002338
35 0.002317
36 0.002198
37 0.002127
38 0.002117
39 0.002119
40 0.002129
41 0.002116
42 0.002132
43 0.002134
44 0.002130
45 0.002101
46 0.002075
47 0.002060
48 0.002097
49 0.002087
50 0.002095
51 0.002145
52 0.002106
53 0.002070
54 0.002128
55 0.002224
56 0.002214
57 0.002141
58 0.002075
59 0.002002
60 0.001939
61 0.001910
62 0.001980
63 0.002112
64 0.002052
65 0.002031
66 0.002004
67 0.002052
68 0.002044
69 0.001996
70 0.002001
71 0.001985
72 0.002001
73 0.002017
74 0.002028
75 0.002029
76 0.002019
77 0.002047
78 0.002084
79 0.002111
80 0.002133
81 0.002167
82 0.002251
83 0.002267
84 0.002255
85 0.002192
86 0.002191
87 0.002184
88 0.002124
89 0.002110
90 0.002056
91 0.002020
92 0.001943
93 0.001958
94 0.001999
95 0.002043
96 0.002075
97 0.002060
98 0.002049
99 0.002108
100 0.002112
101 0.002155
102 0.002203
103 0.002194
104 0.002195
105 0.002262
106 0.002320
107 0.002321
108 0.002256
109 0.002150
110 0.002139
111 0.002093
112 0.002076
113 0.002040
114 0.001968
115 0.001917
116 0.001836
117 0.001808
118 0.001823
119 0.001834
120 0.001824
121 0.001858
122 0.001910
123 0.001945
124 0.001901
125 0.001909
126 0.001862
127 0.001816
128 0.001746
129 0.001662
130 0.001631
131 0.001642
132 0.001638
133 0.001657
134 0.001613
135 0.001638
136 0.001632
137 0.001609
138 0.001576
139 0.001500
140 0.001418
141 0.001354
142 0.001321
143 0.001242
144 0.001075
145 0.001002
146 0.000956
147 0.000970
148 0.000989
149 0.001003
150 0.001019
151 0.001065
152 0.001084
153 0.001116
154 0.001202
155 0.001173
156 0.001175
157 0.001145
158 0.001130
159 0.001110
160 0.001021
161 0.001027
162 0.001137
163 0.001131
164 0.001154
165 0.001221
166 0.001312
167 0.001395
168 0.001534
169 0.001589
170 0.001582
171 0.001518
172 0.001534
173 0.001547
174 0.001497
175 0.001391
176 0.001311
177 0.001346
178 0.001377
179 0.001317
180 0.001280
181 0.001316
182 0.001336
183 0.001360
184 0.001379
185 0.001366
186 0.001289
187 0.001196
188 0.001212
189 0.001228
190 0.001214
191 0.001189
192 0.001142
193 0.001092
194 0.001038
195 0.000981
196 0.000933
197 0.000968
198 0.000997
199 0.000951
200 0.000938
201 0.000950
202 0.000972
203 0.001054
204 0.001111
205 0.001135
206 0.001146
207 0.001168
208 0.001151
209 0.001241
210 0.001331
211 0.001347
212 0.001378
213 0.001383
214 0.001394
215 0.001328
216 0.001328
217 0.001315
218 0.001252
219 0.001173
220 0.001105
221 0.001080
222 0.001030
223 0.000980
224 0.000975
225 0.000910
226 0.000863
227 0.000844
228 0.000836
229 0.000825
230 0.000805
231 0.000823
232 0.000854
233 0.000891
234 0.000893
235 0.000959
236 0.000984
237 0.000965
238 0.000977
239 0.000888
240 0.000860
241 0.000832
242 0.000763
243 0.000768
244 0.000817
245 0.000906
246 0.000960
247 0.000986
248 0.001033
249 0.001050
