# i correlation
1 0.004866
2 0.004139
3 0.003585
4 0.003126
5 0.002755
6 0.002377
7 0.002021
8 0.001688
9 0.001475
10 0.001281
11 0.001061
12 0.000878
13 0.000774
14 0.000709
15 0.000675
16 0.000634
17 0.000573
18 0.000586
19 0.000572
20 0.000487
21 0.000414
22 0.000436
23 0.000451
24 0.000402
25 0.000446
26 0.000536
27 0.000698
28 0.000877
29 0.001001
30 0.001117
31 0.001163
32 0.001181
33 0.001172
34 0.001118
35 0.001099
36 0.001095
37 0.001149
38 0.001181
39 0.001148
40 0.001054
41 0.001052
42 0.000971
43 0.000887
44 0.000776
45 0.000679
46 0.000671
47 0.000632
48 0.000611
49 0.000549
50 0.000464
51 0.000471
52 0.000492
53 0.000442
54 0.000352
55 0.000281
56 0.000236
57 0.000184
58 0.000137
59 0.000100
60 0.000092
61 0.000058
62 0.000033
63 0.000000
64 -0.000051
65 -0.000078
66 -0.000025
67 0.000016
68 0.000059
69 0.000125
70 0.000214
71 0.000306
72 0.000353
73 0.000353
74 0.000355
75 0.000364
76 0.000423
77 0.000468
78 0.000533
79 0.000630
80 0.000632
81 0.000640
82 0.000635
83 0.000599
84 0.000480
85 0.000422
86 0.000286
87 0.000143
88 -0.000002
89 -0.000164
90 -0.000256
91 -0.000406
92 -0.000386
93 -0.000403
94 -0.000416
95 -0.000387
96 -0.000256
97 -0.000067
98 0.000050
99 -0.000003
100 -0.000074
101 -0.000099
102 -0.000153
103 -0.000225
104 -0.000304
105 -0.000343
106 -0.000327
107 -0.000317
108 -0.000263
109 -0.000180
110 -0.000050
111 0.000055
112 0.000184
113 0.000313
114 0.000445
115 0.000484
116 0.000483
117 0.000431
118 0.000334
119 0.000285
120 0.000247
121 0.000151
122 0.000070
123 0.000047
124 0.000006
125 -0.000024
126 -0.000087
127 -0.000103
128 -0.000157
129 -0.000161
130 -0.000252
131 -0.000395
132 -0.000431
133 -0.000430
134 -0.000499
135 -0.000586
136 -0.000623
137 -0.000723
138 -0.000760
139 -0.000820
140 -0.000901
141 -0.000865
142 -0.000821
143 -0.000816
144 -0.000796
145 -0.000791
146 -0.000792
147 -0.000798
148 -0.000738
149 -0.000633
150 -0.000576
151 -0.000473
152 -0.000367
153 -0.000272
154 -0.000170
155 -0.000079
156 -0.000090
157 -0.000168
158 -0.000245
159 -0.000317
160 -0.000297
161 -0.000296
162 -0.000368
163 -0.000489
164 -0.000518
165 -0.000529
166 -0.000576
167 -0.000624
168 -0.000689
169 -0.000759
170 -0.000803
171 -0.000851
172 -0.000940
173 -0.001021
174 -0.001005
175 -0.000873
176 -0.000747
177 -0.000647
178 -0.000594
179 -0.000550
180 -0.000420
181 -0.000321
182 -0.000206
183 -0.000110
184 -0.000006
185 0.000086
186 0.000053
187 -0.000022
188 -0.000068
189 -0.000108
190 -0.000037
191 0.000042
192 0.000054
193 0.000110
194 0.000218
195 0.000393
196 0.000460
197 0.000522
198 0.000532
199 0.000515
200 0.000406
201 0.000360
202 0.000397
203 0.000439
204 0.000459
205 0.000360
206 0.000290
207 0.000230
208 0.000252
209 0.000208
210 0.000132
211 0.000106
212 0.000154
213 0.000216
214 0.000252
215 0.000230
216 0.000144
217 0.000142
218 0.000037
219 -0.000073
220 -0.000124
221 -0.000141
222 -0.000164
223 -0.000146
224 -0.000183
225 -0.000194
226 -0.000171
227 -0.000187
228 -0.000255
229 -0.000302
230 -0.000243
231 -0.000163
232 -0.000067
233 0.000039
234 0.000124
235 0.000175
236 0.000287
237 0.000363
238 0.000405
239 0.000425
240 0.000466
241 0.000551
242 0.000618
243 0.000689
244 0.000734
245 0.000716
246 0.000697
247 0.000712
248 0.000697
249 0.000685
