# i correlation
1 0.005689
2 0.004917
3 0.004315
4 0.003781
5 0.003404
6 0.003069
7 0.002728
8 0.002471
9 0.002228
10 0.002023
11 0.001912
12 0.001886
13 0.001787
14 0.001721
15 0.001671
16 0.001545
17 0.001425
18 0.001366
19 0.001349
20 0.001357
21 0.001468
22 0.001544
23 0.001619
24 0.001597
25 0.001593
26 0.001620
27 0.001636
28 0.001598
29 0.001549
30 0.001453
31 0.001356
32 0.001292
33 0.001320
34 0.001361
35 0.001376
36 0.001375
37 0.001394
38 0.001390
39 0.001346
40 0.001256
41 0.001225
42 0.001082
43 0.000906
44 0.000772
45 0.000684
46 0.000632
47 0.000676
48 0.000654
49 0.000695
50 0.000681
51 0.000594
52 0.000515
53 0.000493
54 0.000397
55 0.000351
56 0.000366
57 0.000412
58 0.000457
59 0.000472
60 0.000488
61 0.000468
62 0.000466
63 0.000448
64 0.000445
65 0.000392
66 0.000334
67 0.000262
68 0.000299
69 0.000288
70 0.000284
71 0.000351
72 0.000383
73 0.000344
74 0.000355
75 0.000226
76 0.000153
77 0.000124
78 -0.000024
79 -0.000150
80 -0.000223
81 -0.000296
82 -0.000226
83 -0.000183
84 -0.000203
85 -0.000177
86 -0.000177
87 -0.000186
88 -0.000191
89 -0.000179
90 -0.000151
91 -0.000213
92 -0.000262
93 -0.000299
94 -0.000221
95 -0.000154
96 -0.000153
97 -0.000125
98 -0.000184
99 -0.000169
100 -0.000110
101 -0.000111
102 -0.000174
103 -0.000270
104 -0.000276
105 -0.000213
106 -0.000164
107 -0.000192
108 -0.000165
109 -0.000116
110 -0.000130
111 -0.000049
112 -0.000045
113 -0.000013
114 -0.000056
115 -0.000079
116 -0.000110
117 -0.000170
118 -0.000183
119 -0.000191
120 -0.000159
121 -0.000084
122 0.000055
123 0.000237
124 0.000404
125 0.000437
126 0.000503
127 0.000570
128 0.000655
129 0.000703
130 0.000760
131 0.000834
132 0.000910
133 0.000904
134 0.000912
135 0.000959
136 0.000971
137 0.000919
138 0.000869
139 0.000824
140 0.000695
141 0.000622
142 0.000628
143 0.000608
144 0.000609
145 0.000601
146 0.000586
147 0.000639
148 0.000657
149 0.000640
150 0.000583
151 0.000603
152 0.000596
153 0.000602
154 0.000564
155 0.000456
156 0.000436
157 0.000474
158 0.000532
159 0.000561
160 0.000586
161 0.000528
162 0.000532
163 0.000568
164 0.000580
165 0.000678
166 0.000789
167 0.000800
168 0.000786
169 0.000769
170 0.000718
171 0.000779
172 0.000928
173 0.001035
174 0.001077
175 0.001054
176 0.000985
177 0.000993
178 0.000965
179 0.000966
180 0.001058
181 0.001043
182 0.000982
183 0.000832
184 0.000709
185 0.000630
186 0.000581
187 0.000477
188 0.000411
189 0.000408
190 0.000337
191 0.000291
192 0.000280
193 0.000297
194 0.000339
195 0.000441
196 0.000512
197 0.000477
198 0.000431
199 0.000439
200 0.000489
201 0.000569
202 0.000619
203 0.000645
204 0.000674
205 0.000694
206 0.000667
207 0.000689
208 0.000712
209 0.000704
210 0.000741
211 0.000707
212 0.000667
213 0.000640
214 0.000603
215 0.000573
216 0.000592
217 0.000610
218 0.000612
219 0.000620
220 0.000625
221 0.000596
222 0.000605
223 0.000551
224 0.000487
225 0.000427
226 0.000386
227 0.000258
228 0.000169
229 0.000151
230 0.000123
231 0.000140
232 0.000068
233 -0.000009
234 0.000003
235 -0.000016
236 -0.000007
237 0.000052
238 0.000094
239 0.000141
240 0.000073
241 -0.000045
242 -0.000224
243 -0.000223
244 -0.000258
245 -0.000365
246 -0.000418
247 -0.000481
248 -0.000494
249 -0.000533
