# i correlation
1 0.005328
2 0.004699
3 0.004263
4 0.003812
5 0.003432
6 0.003053
7 0.002692
8 0.002414
9 0.002195
10 0.002014
11 0.001891
12 0.001785
13 0.001668
14 0.001616
15 0.001599
16 0.001603
17 0.001599
18 0.001582
19 0.001502
20 0.001401
21 0.001322
22 0.001293
23 0.001287
24 0.001207
25 0.001191
26 0.001137
27 0.001076
28 0.000997
29 0.000910
30 0.000914
31 0.000913
32 0.000862
33 0.000836
34 0.000803
35 0.000798
36 0.000800
37 0.000845
38 0.000887
39 0.000888
40 0.000792
41 0.000789
42 0.000755
43 0.000708
44 0.000664
45 0.000676
46 0.000619
47 0.000540
48 0.000559
49 0.000599
50 0.000646
51 0.000654
52 0.000689
53 0.000784
54 0.000879
55 0.000978
56 0.001077
57 0.001050
58 0.001089
59 0.001125
60 0.001153
61 0.001258
62 0.001288
63 0.001273
64 0.001272
65 0.001302
66 0.001299
67 0.001319
68 0.001318
69 0.001351
70 0.001350
71 0.001262
72 0.001152
73 0.001071
74 0.001036
75 0.001018
76 0.001073
77 0.001022
78 0.000968
79 0.000953
80 0.000953
81 0.000930
82 0.000884
83 0.000811
84 0.000760
85 0.000734
86 0.000726
87 0.000671
88 0.000630
89 0.000560
90 0.000499
91 0.000441
92 0.000415
93 0.000415
94 0.000415
95 0.000435
96 0.000405
97 0.000430
98 0.000495
99 0.000523
100 0.000495
101 0.000397
102 0.000271
103 0.000134
104 0.000073
105 0.000023
106 0.000003
107 -0.000121
108 -0.000238
109 -0.000248
110 -0.000222
111 -0.000207
112 -0.000131
113 -0.000020
114 0.000083
115 0.000215
116 0.000304
117 0.000396
118 0.000456
119 0.000417
120 0.000369
121 0.000417
122 0.000452
123 0.000496
124 0.000534
125 0.000610
126 0.000737
127 0.000803
128 0.000826
129 0.000801
130 0.000777
131 0.000740
132 0.000731
133 0.000609
134 0.000528
135 0.000514
136 0.000464
137 0.000404
138 0.000279
139 0.000178
140 0.000180
141 0.000191
142 0.000131
143 0.000070
144 0.000047
145 0.000046
146 0.000116
147 0.000168
148 0.000265
149 0.000342
150 0.000370
151 0.000392
152 0.000428
153 0.000510
154 0.000597
155 0.000635
156 0.000646
157 0.000660
158 0.000707
159 0.000711
160 0.000722
161 0.000605
162 0.000487
163 0.000420
164 0.000401
165 0.000391
166 0.000315
167 0.000246
168 0.000189
169 0.000086
170 -0.000008
171 -0.000014
172 -0.000043
173 -0.000096
174 -0.000185
175 -0.000214
176 -0.000240
177 -0.000278
178 -0.000231
179 -0.000148
180 -0.000057
181 0.000041
182 0.000077
183 0.000145
184 0.000216
185 0.000286
186 0.000368
187 0.000429
188 0.000491
189 0.000574
190 0.000623
191 0.000600
192 0.000566
193 0.000557
194 0.000516
195 0.000516
196 0.000537
197 0.000576
198 0.000639
199 0.000649
200 0.000583
201 0.000540
202 0.000512
203 0.000538
204 0.000550
205 0.000475
206 0.000390
207 0.000270
208 0.000187
209 0.000137
210 0.000114
211 0.000100
212 0.000112
213 0.000139
214 0.000216
215 0.000247
216 0.000281
217 0.000268
218 0.000236
219 0.000171
220 0.000102
221 0.000064
222 0.000033
223 -0.000049
224 -0.000159
225 -0.000253
226 -0.000310
227 -0.000323
228 -0.000360
229 -0.000329
230 -0.000301
231 -0.000293
232 -0.000229
233 -0.000199
234 -0.000115
235 -0.000035
236 -0.000044
237 -0.000050
238 -0.000071
239 -0.000074
240 -0.000001
241 0.000116
242 0.000239
243 0.000285
244 0.000294
245 0.000355
246 0.000436
247 0.000534
248 0.000603
249 0.000593
