# i correlation
1 0.006541
2 0.005819
3 0.005181
4 0.004697
5 0.004303
6 0.003932
7 0.003616
8 0.003411
9 0.003359
10 0.003341
11 0.003304
12 0.003290
13 0.003230
14 0.003233
15 0.003118
16 0.002945
17 0.002679
18 0.002582
19 0.002481
20 0.002438
21 0.002343
22 0.002211
23 0.002168
24 0.002145
25 0.002155
26 0.002177
27 0.002248
28 0.002309
29 0.002386
30 0.002476
31 0.002517
32 0.002515
33 0.002522
34 0.002568
35 0.002536
36 0.002486
37 0.002443
38 0.002512
39 0.002509
40 0.002518
41 0.002541
42 0.002511
43 0.002513
44 0.002459
45 0.002467
46 0.002496
47 0.002511
48 0.002591
49 0.002675
50 0.002783
51 0.002854
52 0.002845
53 0.002831
54 0.002696
55 0.002576
56 0.002511
57 0.002436
58 0.002375
59 0.002244
60 0.002172
61 0.002167
62 0.002151
63 0.002162
64 0.002151
65 0.002203
66 0.002207
67 0.002201
68 0.002217
69 0.002163
70 0.002111
71 0.002063
72 0.002089
73 0.002068
74 0.002014
75 0.001930
76 0.001886
77 0.001849
78 0.001832
79 0.001880
80 0.001942
81 0.002050
82 0.002097
83 0.002090
84 0.002106
85 0.002055
86 0.002061
87 0.001965
88 0.001936
89 0.001854
90 0.001771
91 0.001734
92 0.001750
93 0.001693
94 0.001579
95 0.001399
96 0.001342
97 0.001265
98 0.001222
99 0.001213
100 0.001261
101 0.001338
102 0.001434
103 0.001475
104 0.001509
105 0.001504
106 0.001574
107 0.001619
108 0.001649
109 0.001580
110 0.001508
111 0.001448
112 0.001422
113 0.001411
114 0.001417
115 0.001387
116 0.001393
117 0.001499
118 0.001618
119 0.001645
120 0.001695
121 0.001762
122 0.001810
123 0.001829
124 0.001775
125 0.001715
126 0.001677
127 0.001664
128 0.001603
129 0.001622
130 0.001690
131 0.001803
132 0.001940
133 0.002004
134 0.002062
135 0.002055
136 0.002054
137 0.002032
138 0.002003
139 0.001935
140 0.001767
141 0.001558
142 0.001334
143 0.001177
144 0.001135
145 0.001124
146 0.001074
147 0.001025
148 0.000981
149 0.001037
150 0.001110
151 0.001053
152 0.001039
153 0.001010
154 0.001032
155 0.001011
156 0.000979
157 0.001001
158 0.000989
159 0.000984
160 0.000941
161 0.000906
162 0.000798
163 0.000722
164 0.000769
165 0.000799
166 0.000890
167 0.000929
168 0.000947
169 0.000873
170 0.000878
171 0.000876
172 0.000878
173 0.000855
174 0.000842
175 0.000818
176 0.000826
177 0.000857
178 0.000899
179 0.000989
180 0.001083
181 0.001044
182 0.001025
183 0.000991
184 0.001022
185 0.001061
186 0.001138
187 0.001096
188 0.001143
189 0.001178
190 0.001241
191 0.001256
192 0.001189
193 0.001135
194 0.001116
195 0.001060
196 0.000961
197 0.000846
198 0.000793
199 0.000794
200 0.000829
201 0.000772
202 0.000729
203 0.000649
204 0.000624
205 0.000571
206 0.000530
207 0.000450
208 0.000305
209 0.000254
210 0.000197
211 0.000126
212 0.000037
213 0.000007
214 0.000007
215 0.000018
216 -0.000048
217 -0.000072
218 -0.000004
219 0.000122
220 0.000231
221 0.000265
222 0.000252
223 0.000251
224 0.000268
225 0.000258
226 0.000152
227 0.000016
228 -0.000086
229 -0.000034
230 0.000015
231 0.000062
232 0.000039
233 0.000066
234 0.000167
235 0.000225
236 0.000246
237 0.000206
238 0.000196
239 0.000203
240 0.000231
241 0.000261
242 0.000286
243 0.000361
244 0.000429
245 0.000511
246 0.000585
247 0.000690
248 0.000727
249 0.000751
