# i correlation
1 0.004897
2 0.004171
3 0.003489
4 0.002909
5 0.002438
6 0.002105
7 0.001807
8 0.001569
9 0.001355
10 0.001183
11 0.001043
12 0.000982
13 0.000886
14 0.000881
15 0.000870
16 0.000876
17 0.000869
18 0.000892
19 0.000858
20 0.000818
21 0.000826
22 0.000826
23 0.000831
24 0.000813
25 0.000717
26 0.000572
27 0.000389
28 0.000254
29 0.000101
30 -0.000032
31 -0.000108
32 -0.000122
33 -0.000122
34 -0.000050
35 0.000073
36 0.000113
37 0.000230
38 0.000341
39 0.000441
40 0.000562
41 0.000652
42 0.000724
43 0.000728
44 0.000724
45 0.000704
46 0.000758
47 0.000804
48 0.000793
49 0.000715
50 0.000693
51 0.000627
52 0.000571
53 0.000565
54 0.000610
55 0.000631
56 0.000672
57 0.000629
58 0.000712
59 0.000797
60 0.000889
61 0.000906
62 0.000910
63 0.000877
64 0.000779
65 0.000713
66 0.000710
67 0.000697
68 0.000761
69 0.000842
70 0.001001
71 0.001087
72 0.001212
73 0.001230
74 0.001203
75 0.001094
76 0.000898
77 0.000805
78 0.000716
79 0.000608
80 0.000552
81 0.000502
82 0.000353
83 0.000241
84 0.000218
85 0.000123
86 0.000025
87 -0.000049
88 -0.000140
89 -0.000170
90 -0.000186
91 -0.000201
92 -0.000219
93 -0.000193
94 -0.000268
95 -0.000255
96 -0.000186
97 -0.000138
98 -0.000038
99 -0.000007
100 -0.000019
101 -0.000027
102 -0.000011
103 -0.000027
104 -0.000004
105 -0.000001
106 0.000015
107 -0.000004
108 0.000017
109 0.000076
110 0.000165
111 0.000281
112 0.000443
113 0.000490
114 0.000641
115 0.000756
116 0.000886
117 0.001002
118 0.001136
119 0.001242
120 0.001317
121 0.001238
122 0.001073
123 0.000928
124 0.000823
125 0.000773
126 0.000712
127 0.000660
128 0.000680
129 0.000600
130 0.000553
131 0.000527
132 0.000533
133 0.000509
134 0.000493
135 0.000523
136 0.000518
137 0.000475
138 0.000423
139 0.000409
140 0.000458
141 0.000421
142 0.000365
143 0.000389
144 0.000425
145 0.000356
146 0.000272
147 0.000182
148 0.000063
149 -0.000050
150 -0.000058
151 0.000001
152 0.000046
153 0.000091
154 0.000102
155 0.000101
156 0.000140
157 0.000178
158 0.000196
159 0.000195
160 0.000143
161 0.000038
162 -0.000025
163 -0.000022
164 -0.000083
165 -0.000089
166 -0.000058
167 -0.000023
168 0.000070
169 0.000026
170 0.000041
171 0.000013
172 -0.000091
173 -0.000191
174 -0.000245
175 -0.000298
176 -0.000269
177 -0.000329
178 -0.000278
179 -0.000200
180 -0.000104
181 -0.000004
182 0.000058
183 0.000115
184 0.000172
185 0.000223
186 0.000276
187 0.000351
188 0.000407
189 0.000462
190 0.000440
191 0.000485
192 0.000520
193 0.000533
194 0.000568
195 0.000539
196 0.000490
197 0.000466
198 0.000458
199 0.000451
200 0.000442
201 0.000364
202 0.000238
203 0.000235
204 0.000192
205 0.000213
206 0.000263
207 0.000290
208 0.000254
209 0.000296
210 0.000326
211 0.000340
212 0.000217
213 0.000120
214 -0.000009
215 -0.000060
216 -0.000100
217 -0.000113
218 -0.000082
219 -0.000147
220 -0.000229
221 -0.000325
222 -0.000430
223 -0.000531
224 -0.000574
225 -0.000538
226 -0.000419
227 -0.000352
228 -0.000206
229 -0.000119
230 -0.000076
231 -0.000018
232 -0.000060
233 -0.000112
234 -0.000158
235 -0.000182
236 -0.000166
237 -0.000101
238 -0.000013
239 0.000058
240 0.000165
241 0.000214
242 0.000237
243 0.000216
244 0.000221
245 0.000143
246 0.000117
247 0.000138
248 0.000169
249 0.000275
