# i correlation
1 0.005254
2 0.004613
3 0.004048
4 0.003551
5 0.003173
6 0.002889
7 0.002649
8 0.002454
9 0.002306
10 0.002052
11 0.001879
12 0.001762
13 0.001654
14 0.001605
15 0.001596
16 0.001547
17 0.001535
18 0.001517
19 0.001445
20 0.001410
21 0.001290
22 0.001180
23 0.001022
24 0.000910
25 0.000844
26 0.000779
27 0.000761
28 0.000797
29 0.000906
30 0.000964
31 0.000987
32 0.001020
33 0.001114
34 0.001214
35 0.001260
36 0.001271
37 0.001362
38 0.001404
39 0.001430
40 0.001431
41 0.001308
42 0.001156
43 0.001012
44 0.000903
45 0.000782
46 0.000674
47 0.000619
48 0.000514
49 0.000547
50 0.000523
51 0.000553
52 0.000641
53 0.000748
54 0.000811
55 0.000819
56 0.000810
57 0.000826
58 0.000827
59 0.000870
60 0.001001
61 0.001171
62 0.001255
63 0.001279
64 0.001278
65 0.001250
66 0.001281
67 0.001302
68 0.001306
69 0.001277
70 0.001246
71 0.001253
72 0.001266
73 0.001206
74 0.001110
75 0.001003
76 0.000910
77 0.000798
78 0.000710
79 0.000612
80 0.000590
81 0.000657
82 0.000715
83 0.000760
84 0.000818
85 0.000815
86 0.000828
87 0.000753
88 0.000719
89 0.000753
90 0.000880
91 0.001026
92 0.001131
93 0.001241
94 0.001330
95 0.001366
96 0.001399
97 0.001324
98 0.001316
99 0.001303
100 0.001315
101 0.001435
102 0.001514
103 0.001570
104 0.001571
105 0.001486
106 0.001385
107 0.001264
108 0.001170
109 0.001082
110 0.000961
111 0.000851
112 0.000763
113 0.000694
114 0.000647
115 0.000605
116 0.000584
117 0.000479
118 0.000412
119 0.000369
120 0.000333
121 0.000373
122 0.000396
123 0.000520
124 0.000587
125 0.000596
126 0.000544
127 0.000493
128 0.000517
129 0.000525
130 0.000608
131 0.000732
132 0.000921
133 0.001052
134 0.001159
135 0.001229
136 0.001251
137 0.001217
138 0.001105
139 0.000996
140 0.000867
141 0.000776
142 0.000625
143 0.000548
144 0.000463
145 0.000418
146 0.000362
147 0.000305
148 0.000297
149 0.000268
150 0.000218
151 0.000116
152 0.000096
153 0.000136
154 0.000170
155 0.000131
156 0.000096
157 0.000129
158 0.000185
159 0.000197
160 0.000228
161 0.000284
162 0.000344
163 0.000361
164 0.000339
165 0.000348
166 0.000453
167 0.000537
168 0.000552
169 0.000577
170 0.000646
171 0.000678
172 0.000711
173 0.000717
174 0.000719
175 0.000701
176 0.000678
177 0.000624
178 0.000527
179 0.000427
180 0.000307
181 0.000161
182 0.000068
183 -0.000048
184 -0.000112
185 -0.000091
186 -0.000098
187 -0.000100
188 -0.000074
189 -0.000078
190 -0.000108
191 -0.000129
192 -0.000158
193 -0.000168
194 -0.000085
195 0.000039
196 0.000129
197 0.000168
198 0.000230
199 0.000290
200 0.000325
201 0.000364
202 0.000405
203 0.000345
204 0.000308
205 0.000298
206 0.000297
207 0.000321
208 0.000274
209 0.000235
210 0.000189
211 0.000127
212 0.000004
213 0.000002
214 0.000005
215 0.000057
216 0.000080
217 0.000055
218 0.000064
219 0.000114
220 0.000122
221 0.000073
222 0.000067
223 0.000084
224 0.000173
225 0.000299
226 0.000397
227 0.000511
228 0.000615
229 0.000717
230 0.000778
231 0.000858
232 0.000905
233 0.000940
234 0.001008
235 0.001131
236 0.001205
237 0.001210
238 0.001241
239 0.001277
240 0.001235
241 0.001099
242 0.000917
243 0.000726
244 0.000620
245 0.000448
246 0.000271
247 0.000164
248 0.000083
249 0.000002
