# i correlation
1 0.001746
2 0.001694
3 0.001647
4 0.001608
5 0.001572
6 0.001540
7 0.001517
8 0.001503
9 0.001490
10 0.001480
11 0.001466
12 0.001453
13 0.001441
14 0.001431
15 0.001421
16 0.001403
17 0.001386
18 0.001369
19 0.001352
20 0.001340
21 0.001326
22 0.001317
23 0.001308
24 0.001299
25 0.001290
26 0.001277
27 0.001264
28 0.001253
29 0.001245
30 0.001239
31 0.001231
32 0.001221
33 0.001211
34 0.001203
35 0.001197
36 0.001191
37 0.001188
38 0.001184
39 0.001182
40 0.001171
41 0.001157
42 0.001147
43 0.001133
44 0.001118
45 0.001105
46 0.001095
47 0.001088
48 0.001081
49 0.001076
50 0.001071
51 0.001065
52 0.001059
53 0.001057
54 0.001050
55 0.001039
56 0.001028
57 0.001019
58 0.001006
59 0.000989
60 0.000971
61 0.000961
62 0.000959
63 0.000959
64 0.000961
65 0.000958
66 0.000956
67 0.000957
68 0.000956
69 0.000953
70 0.000953
71 0.000954
72 0.000954
73 0.000954
74 0.000956
75 0.000954
76 0.000946
77 0.000936
78 0.000929
79 0.000922
80 0.000914
81 0.000909
82 0.000908
83 0.000905
84 0.000905
85 0.000902
86 0.000900
87 0.000900
88 0.000902
89 0.000900
90 0.000891
91 0.000883
92 0.000881
93 0.000882
94 0.000881
95 0.000878
96 0.000879
97 0.000879
98 0.000880
99 0.000876
100 0.000870
101 0.000868
102 0.000865
103 0.000858
104 0.000855
105 0.000855
106 0.000858
107 0.000859
108 0.000862
109 0.000862
110 0.000866
111 0.000866
112 0.000856
113 0.000845
114 0.000836
115 0.000830
116 0.000822
117 0.000820
118 0.000818
119 0.000821
120 0.000818
121 0.000819
122 0.000823
123 0.000822
124 0.000817
125 0.000809
126 0.000799
127 0.000796
128 0.000792
129 0.000791
130 0.000791
131 0.000794
132 0.000794
133 0.000796
134 0.000791
135 0.000787
136 0.000783
137 0.000780
138 0.000778
139 0.000781
140 0.000782
141 0.000782
142 0.000782
143 0.000784
144 0.000789
145 0.000793
146 0.000799
147 0.000800
148 0.000801
149 0.000803
150 0.000808
151 0.000813
152 0.000813
153 0.000807
154 0.000803
155 0.000799
156 0.000795
157 0.000786
158 0.000777
159 0.000775
160 0.000776
161 0.000776
162 0.000772
163 0.000763
164 0.000759
165 0.000754
166 0.000749
167 0.000741
168 0.000735
169 0.000728
170 0.000727
171 0.000722
172 0.000717
173 0.000709
174 0.000704
175 0.000699
176 0.000703
177 0.000701
178 0.000701
179 0.000697
180 0.000700
181 0.000706
182 0.000704
183 0.000699
184 0.000698
185 0.000697
186 0.000698
187 0.000694
188 0.000692
189 0.000693
190 0.000692
191 0.000691
192 0.000691
193 0.000692
194 0.000694
195 0.000699
196 0.000700
197 0.000705
198 0.000711
199 0.000716
200 0.000713
201 0.000710
202 0.000701
203 0.000697
204 0.000692
205 0.000688
206 0.000687
207 0.000686
208 0.000687
209 0.000686
210 0.000687
211 0.000687
212 0.000692
213 0.000696
214 0.000699
215 0.000700
216 0.000702
217 0.000707
218 0.000719
219 0.000727
220 0.000736
221 0.000739
222 0.000737
223 0.000738
224 0.000736
225 0.000732
226 0.000731
227 0.000733
228 0.000743
229 0.000754
230 0.000758
231 0.000756
232 0.000756
233 0.000758
234 0.000759
235 0.000761
236 0.000761
237 0.000761
238 0.000759
239 0.000758
240 0.000755
241 0.000752
242 0.000748
243 0.000748
244 0.000744
245 0.000743
246 0.000737
247 0.000729
248 0.000724
249 0.000719
