# i correlation
1 0.001229
2 0.001174
3 0.001125
4 0.001086
5 0.001055
6 0.001028
7 0.001000
8 0.000972
9 0.000946
10 0.000928
11 0.000916
12 0.000904
13 0.000892
14 0.000888
15 0.000886
16 0.000887
17 0.000890
18 0.000892
19 0.000885
20 0.000875
21 0.000871
22 0.000874
23 0.000871
24 0.000868
25 0.000863
26 0.000859
27 0.000854
28 0.000850
29 0.000850
30 0.000843
31 0.000835
32 0.000826
33 0.000815
34 0.000807
35 0.000806
36 0.000805
37 0.000805
38 0.000799
39 0.000791
40 0.000785
41 0.000785
42 0.000786
43 0.000786
44 0.000787
45 0.000786
46 0.000781
47 0.000782
48 0.000777
49 0.000769
50 0.000756
51 0.000745
52 0.000737
53 0.000734
54 0.000729
55 0.000725
56 0.000719
57 0.000711
58 0.000702
59 0.000702
60 0.000703
61 0.000698
62 0.000694
63 0.000689
64 0.000683
65 0.000684
66 0.000686
67 0.000688
68 0.000689
69 0.000692
70 0.000695
71 0.000702
72 0.000702
73 0.000707
74 0.000711
75 0.000714
76 0.000710
77 0.000706
78 0.000704
79 0.000702
80 0.000697
81 0.000695
82 0.000692
83 0.000689
84 0.000687
85 0.000683
86 0.000680
87 0.000683
88 0.000689
89 0.000689
90 0.000688
91 0.000685
92 0.000679
93 0.000671
94 0.000667
95 0.000668
96 0.000666
97 0.000664
98 0.000663
99 0.000660
100 0.000657
101 0.000653
102 0.000656
103 0.000662
104 0.000669
105 0.000676
106 0.000682
107 0.000683
108 0.000679
109 0.000674
110 0.000664
111 0.000658
112 0.000654
113 0.000654
114 0.000653
115 0.000648
116 0.000642
117 0.000642
118 0.000636
119 0.000632
120 0.000622
121 0.000613
122 0.000610
123 0.000611
124 0.000607
125 0.000606
126 0.000599
127 0.000593
128 0.000591
129 0.000592
130 0.000599
131 0.000602
132 0.000606
133 0.000609
134 0.000610
135 0.000614
136 0.000616
137 0.000617
138 0.000608
139 0.000596
140 0.000584
141 0.000572
142 0.000561
143 0.000551
144 0.000547
145 0.000544
146 0.000539
147 0.000538
148 0.000537
149 0.000540
150 0.000547
151 0.000555
152 0.000557
153 0.000556
154 0.000557
155 0.000550
156 0.000543
157 0.000534
158 0.000523
159 0.000516
160 0.000511
161 0.000511
162 0.000513
163 0.000502
164 0.000492
165 0.000491
166 0.000497
167 0.000504
168 0.000510
169 0.000513
170 0.000515
171 0.000515
172 0.000519
173 0.000524
174 0.000535
175 0.000537
176 0.000547
177 0.000553
178 0.000555
179 0.000557
180 0.000558
181 0.000555
182 0.000557
183 0.000556
184 0.000555
185 0.000548
186 0.000540
187 0.000525
188 0.000514
189 0.000500
190 0.000490
191 0.000482
192 0.000483
193 0.000479
194 0.000475
195 0.000463
196 0.000456
197 0.000456
198 0.000462
199 0.000469
200 0.000474
201 0.000479
202 0.000480
203 0.000479
204 0.000480
205 0.000480
206 0.000481
207 0.000481
208 0.000480
209 0.000478
210 0.000479
211 0.000482
212 0.000484
213 0.000482
214 0.000478
215 0.000471
216 0.000469
217 0.000465
218 0.000465
219 0.000463
220 0.000461
221 0.000464
222 0.000463
223 0.000462
224 0.000457
225 0.000452
226 0.000447
227 0.000443
228 0.000438
229 0.000430
230 0.000423
231 0.000413
232 0.000401
233 0.000389
234 0.000373
235 0.000363
236 0.000359
237 0.000356
238 0.000352
239 0.000349
240 0.000347
241 0.000348
242 0.000348
243 0.000350
244 0.000349
245 0.000354
246 0.000355
247 0.000360
248 0.000363
249 0.000369
