# i correlation
1 0.001794
2 0.001738
3 0.001689
4 0.001650
5 0.001617
6 0.001590
7 0.001565
8 0.001540
9 0.001517
10 0.001499
11 0.001483
12 0.001470
13 0.001460
14 0.001452
15 0.001442
16 0.001431
17 0.001421
18 0.001413
19 0.001401
20 0.001393
21 0.001386
22 0.001379
23 0.001374
24 0.001373
25 0.001370
26 0.001370
27 0.001366
28 0.001361
29 0.001356
30 0.001351
31 0.001341
32 0.001333
33 0.001329
34 0.001330
35 0.001327
36 0.001325
37 0.001329
38 0.001333
39 0.001334
40 0.001326
41 0.001319
42 0.001318
43 0.001316
44 0.001311
45 0.001303
46 0.001288
47 0.001276
48 0.001265
49 0.001255
50 0.001246
51 0.001241
52 0.001237
53 0.001233
54 0.001230
55 0.001229
56 0.001228
57 0.001222
58 0.001208
59 0.001193
60 0.001177
61 0.001164
62 0.001152
63 0.001145
64 0.001133
65 0.001126
66 0.001120
67 0.001117
68 0.001120
69 0.001120
70 0.001120
71 0.001121
72 0.001116
73 0.001116
74 0.001120
75 0.001122
76 0.001124
77 0.001127
78 0.001126
79 0.001120
80 0.001108
81 0.001094
82 0.001081
83 0.001066
84 0.001055
85 0.001048
86 0.001043
87 0.001033
88 0.001023
89 0.001016
90 0.001013
91 0.001007
92 0.000999
93 0.000993
94 0.000983
95 0.000970
96 0.000961
97 0.000956
98 0.000949
99 0.000943
100 0.000941
101 0.000941
102 0.000941
103 0.000938
104 0.000938
105 0.000931
106 0.000924
107 0.000917
108 0.000914
109 0.000908
110 0.000899
111 0.000898
112 0.000898
113 0.000898
114 0.000901
115 0.000909
116 0.000912
117 0.000911
118 0.000908
119 0.000904
120 0.000902
121 0.000897
122 0.000892
123 0.000891
124 0.000892
125 0.000889
126 0.000883
127 0.000876
128 0.000874
129 0.000878
130 0.000881
131 0.000881
132 0.000881
133 0.000873
134 0.000864
135 0.000859
136 0.000857
137 0.000853
138 0.000849
139 0.000841
140 0.000829
141 0.000823
142 0.000821
143 0.000824
144 0.000827
145 0.000832
146 0.000835
147 0.000833
148 0.000829
149 0.000826
150 0.000823
151 0.000825
152 0.000830
153 0.000835
154 0.000838
155 0.000835
156 0.000830
157 0.000819
158 0.000808
159 0.000802
160 0.000798
161 0.000794
162 0.000791
163 0.000788
164 0.000787
165 0.000785
166 0.000782
167 0.000779
168 0.000779
169 0.000782
170 0.000783
171 0.000783
172 0.000784
173 0.000780
174 0.000777
175 0.000775
176 0.000780
177 0.000779
178 0.000783
179 0.000779
180 0.000777
181 0.000776
182 0.000775
183 0.000776
184 0.000772
185 0.000765
186 0.000762
187 0.000763
188 0.000765
189 0.000767
190 0.000772
191 0.000775
192 0.000782
193 0.000787
194 0.000792
195 0.000798
196 0.000796
197 0.000794
198 0.000797
199 0.000796
200 0.000796
201 0.000795
202 0.000793
203 0.000793
204 0.000792
205 0.000792
206 0.000790
207 0.000790
208 0.000791
209 0.000791
210 0.000793
211 0.000788
212 0.000783
213 0.000777
214 0.000769
215 0.000763
216 0.000758
217 0.000755
218 0.000751
219 0.000750
220 0.000749
221 0.000752
222 0.000755
223 0.000757
224 0.000759
225 0.000759
226 0.000760
227 0.000761
228 0.000764
229 0.000765
230 0.000768
231 0.000768
232 0.000772
233 0.000777
234 0.000780
235 0.000779
236 0.000770
237 0.000764
238 0.000757
239 0.000750
240 0.000745
241 0.000736
242 0.000723
243 0.000712
244 0.000702
245 0.000701
246 0.000697
247 0.000692
248 0.000684
249 0.000684
