# i correlation
1 0.001765
2 0.001709
3 0.001662
4 0.001621
5 0.001592
6 0.001566
7 0.001541
8 0.001513
9 0.001489
10 0.001473
11 0.001461
12 0.001453
13 0.001442
14 0.001432
15 0.001427
16 0.001419
17 0.001410
18 0.001402
19 0.001397
20 0.001391
21 0.001387
22 0.001377
23 0.001362
24 0.001353
25 0.001340
26 0.001326
27 0.001312
28 0.001306
29 0.001296
30 0.001285
31 0.001278
32 0.001265
33 0.001254
34 0.001246
35 0.001233
36 0.001224
37 0.001215
38 0.001207
39 0.001201
40 0.001200
41 0.001196
42 0.001191
43 0.001187
44 0.001183
45 0.001181
46 0.001181
47 0.001180
48 0.001179
49 0.001175
50 0.001169
51 0.001159
52 0.001153
53 0.001146
54 0.001136
55 0.001129
56 0.001122
57 0.001119
58 0.001117
59 0.001116
60 0.001116
61 0.001114
62 0.001109
63 0.001100
64 0.001091
65 0.001084
66 0.001077
67 0.001076
68 0.001081
69 0.001084
70 0.001087
71 0.001083
72 0.001078
73 0.001069
74 0.001063
75 0.001056
76 0.001050
77 0.001046
78 0.001045
79 0.001051
80 0.001058
81 0.001063
82 0.001063
83 0.001059
84 0.001056
85 0.001049
86 0.001044
87 0.001036
88 0.001029
89 0.001026
90 0.001023
91 0.001031
92 0.001038
93 0.001045
94 0.001051
95 0.001050
96 0.001045
97 0.001036
98 0.001034
99 0.001031
100 0.001029
101 0.001023
102 0.001011
103 0.000999
104 0.000993
105 0.000989
106 0.000984
107 0.000973
108 0.000963
109 0.000959
110 0.000959
111 0.000958
112 0.000958
113 0.000961
114 0.000963
115 0.000970
116 0.000969
117 0.000967
118 0.000966
119 0.000964
120 0.000961
121 0.000961
122 0.000956
123 0.000947
124 0.000935
125 0.000931
126 0.000927
127 0.000924
128 0.000926
129 0.000926
130 0.000931
131 0.000937
132 0.000944
133 0.000951
134 0.000954
135 0.000949
136 0.000940
137 0.000934
138 0.000932
139 0.000928
140 0.000927
141 0.000922
142 0.000919
143 0.000914
144 0.000905
145 0.000899
146 0.000891
147 0.000889
148 0.000886
149 0.000888
150 0.000890
151 0.000888
152 0.000885
153 0.000884
154 0.000881
155 0.000876
156 0.000870
157 0.000861
158 0.000859
159 0.000863
160 0.000864
161 0.000865
162 0.000864
163 0.000862
164 0.000860
165 0.000856
166 0.000853
167 0.000841
168 0.000830
169 0.000817
170 0.000803
171 0.000797
172 0.000789
173 0.000786
174 0.000789
175 0.000793
176 0.000799
177 0.000801
178 0.000805
179 0.000810
180 0.000817
181 0.000822
182 0.000821
183 0.000821
184 0.000822
185 0.000822
186 0.000820
187 0.000819
188 0.000817
189 0.000812
190 0.000806
191 0.000805
192 0.000805
193 0.000806
194 0.000803
195 0.000796
196 0.000788
197 0.000784
198 0.000779
199 0.000779
200 0.000786
201 0.000788
202 0.000787
203 0.000784
204 0.000784
205 0.000785
206 0.000787
207 0.000792
208 0.000793
209 0.000792
210 0.000789
211 0.000786
212 0.000792
213 0.000801
214 0.000807
215 0.000805
216 0.000799
217 0.000795
218 0.000788
219 0.000788
220 0.000787
221 0.000786
222 0.000783
223 0.000781
224 0.000777
225 0.000775
226 0.000771
227 0.000765
228 0.000761
229 0.000757
230 0.000747
231 0.000742
232 0.000739
233 0.000740
234 0.000746
235 0.000748
236 0.000754
237 0.000752
238 0.000754
239 0.000751
240 0.000751
241 0.000751
242 0.000745
243 0.000744
244 0.000738
245 0.000734
246 0.000728
247 0.000722
248 0.000714
249 0.000705
