# i correlation
1 0.001531
2 0.001473
3 0.001425
4 0.001385
5 0.001354
6 0.001324
7 0.001293
8 0.001259
9 0.001235
10 0.001215
11 0.001193
12 0.001178
13 0.001169
14 0.001168
15 0.001168
16 0.001163
17 0.001157
18 0.001153
19 0.001145
20 0.001134
21 0.001129
22 0.001118
23 0.001111
24 0.001102
25 0.001090
26 0.001084
27 0.001082
28 0.001074
29 0.001076
30 0.001074
31 0.001071
32 0.001063
33 0.001057
34 0.001047
35 0.001039
36 0.001030
37 0.001024
38 0.001012
39 0.000999
40 0.000988
41 0.000983
42 0.000981
43 0.000977
44 0.000983
45 0.000982
46 0.000981
47 0.000976
48 0.000978
49 0.000973
50 0.000972
51 0.000973
52 0.000975
53 0.000967
54 0.000957
55 0.000949
56 0.000940
57 0.000925
58 0.000916
59 0.000905
60 0.000900
61 0.000893
62 0.000884
63 0.000877
64 0.000867
65 0.000860
66 0.000861
67 0.000858
68 0.000854
69 0.000844
70 0.000842
71 0.000836
72 0.000838
73 0.000838
74 0.000833
75 0.000828
76 0.000816
77 0.000809
78 0.000803
79 0.000803
80 0.000800
81 0.000802
82 0.000803
83 0.000795
84 0.000786
85 0.000773
86 0.000756
87 0.000741
88 0.000731
89 0.000724
90 0.000717
91 0.000710
92 0.000698
93 0.000690
94 0.000685
95 0.000689
96 0.000701
97 0.000711
98 0.000718
99 0.000724
100 0.000729
101 0.000735
102 0.000736
103 0.000739
104 0.000740
105 0.000735
106 0.000729
107 0.000726
108 0.000720
109 0.000711
110 0.000712
111 0.000712
112 0.000713
113 0.000708
114 0.000710
115 0.000706
116 0.000703
117 0.000698
118 0.000684
119 0.000666
120 0.000646
121 0.000631
122 0.000616
123 0.000603
124 0.000590
125 0.000584
126 0.000580
127 0.000574
128 0.000569
129 0.000570
130 0.000573
131 0.000580
132 0.000589
133 0.000592
134 0.000590
135 0.000592
136 0.000590
137 0.000583
138 0.000579
139 0.000570
140 0.000565
141 0.000557
142 0.000548
143 0.000542
144 0.000536
145 0.000531
146 0.000524
147 0.000520
148 0.000513
149 0.000511
150 0.000512
151 0.000513
152 0.000515
153 0.000516
154 0.000522
155 0.000524
156 0.000533
157 0.000531
158 0.000532
159 0.000534
160 0.000528
161 0.000517
162 0.000514
163 0.000514
164 0.000512
165 0.000512
166 0.000509
167 0.000504
168 0.000502
169 0.000500
170 0.000501
171 0.000504
172 0.000498
173 0.000491
174 0.000490
175 0.000491
176 0.000484
177 0.000487
178 0.000488
179 0.000482
180 0.000481
181 0.000485
182 0.000488
183 0.000490
184 0.000490
185 0.000494
186 0.000500
187 0.000505
188 0.000503
189 0.000502
190 0.000494
191 0.000491
192 0.000486
193 0.000480
194 0.000472
195 0.000465
196 0.000462
197 0.000456
198 0.000456
199 0.000448
200 0.000438
201 0.000437
202 0.000435
203 0.000430
204 0.000433
205 0.000441
206 0.000442
207 0.000453
208 0.000462
209 0.000462
210 0.000459
211 0.000458
212 0.000460
213 0.000465
214 0.000470
215 0.000470
216 0.000469
217 0.000469
218 0.000467
219 0.000467
220 0.000462
221 0.000451
222 0.000444
223 0.000442
224 0.000442
225 0.000439
226 0.000435
227 0.000429
228 0.000421
229 0.000423
230 0.000418
231 0.000414
232 0.000410
233 0.000405
234 0.000398
235 0.000390
236 0.000388
237 0.000384
238 0.000380
239 0.000384
240 0.000387
241 0.000390
242 0.000396
243 0.000398
244 0.000395
245 0.000393
246 0.000393
247 0.000394
248 0.000392
249 0.000396
