# i correlation
1 0.001676
2 0.001612
3 0.001556
4 0.001517
5 0.001486
6 0.001454
7 0.001423
8 0.001394
9 0.001363
10 0.001338
11 0.001317
12 0.001292
13 0.001263
14 0.001241
15 0.001232
16 0.001221
17 0.001207
18 0.001191
19 0.001178
20 0.001164
21 0.001154
22 0.001142
23 0.001130
24 0.001118
25 0.001108
26 0.001103
27 0.001088
28 0.001076
29 0.001070
30 0.001067
31 0.001067
32 0.001063
33 0.001055
34 0.001047
35 0.001033
36 0.001025
37 0.001014
38 0.001017
39 0.001014
40 0.001013
41 0.001016
42 0.001019
43 0.001023
44 0.001020
45 0.001017
46 0.001009
47 0.001002
48 0.001002
49 0.001001
50 0.000991
51 0.000981
52 0.000966
53 0.000955
54 0.000940
55 0.000928
56 0.000918
57 0.000904
58 0.000894
59 0.000880
60 0.000871
61 0.000865
62 0.000866
63 0.000857
64 0.000854
65 0.000852
66 0.000849
67 0.000844
68 0.000839
69 0.000833
70 0.000828
71 0.000829
72 0.000836
73 0.000844
74 0.000843
75 0.000837
76 0.000837
77 0.000834
78 0.000832
79 0.000833
80 0.000838
81 0.000834
82 0.000833
83 0.000830
84 0.000831
85 0.000833
86 0.000839
87 0.000845
88 0.000852
89 0.000856
90 0.000857
91 0.000848
92 0.000840
93 0.000831
94 0.000826
95 0.000824
96 0.000813
97 0.000801
98 0.000797
99 0.000796
100 0.000792
101 0.000784
102 0.000775
103 0.000768
104 0.000762
105 0.000760
106 0.000753
107 0.000750
108 0.000744
109 0.000740
110 0.000737
111 0.000736
112 0.000726
113 0.000713
114 0.000710
115 0.000711
116 0.000712
117 0.000707
118 0.000698
119 0.000696
120 0.000692
121 0.000691
122 0.000683
123 0.000680
124 0.000680
125 0.000682
126 0.000681
127 0.000691
128 0.000698
129 0.000699
130 0.000696
131 0.000694
132 0.000685
133 0.000681
134 0.000673
135 0.000672
136 0.000669
137 0.000667
138 0.000669
139 0.000667
140 0.000663
141 0.000650
142 0.000643
143 0.000641
144 0.000636
145 0.000628
146 0.000629
147 0.000630
148 0.000630
149 0.000630
150 0.000633
151 0.000637
152 0.000639
153 0.000641
154 0.000641
155 0.000643
156 0.000642
157 0.000638
158 0.000635
159 0.000635
160 0.000636
161 0.000640
162 0.000643
163 0.000644
164 0.000644
165 0.000636
166 0.000634
167 0.000637
168 0.000639
169 0.000646
170 0.000644
171 0.000651
172 0.000652
173 0.000648
174 0.000637
175 0.000630
176 0.000633
177 0.000635
178 0.000645
179 0.000651
180 0.000655
181 0.000661
182 0.000663
183 0.000666
184 0.000665
185 0.000658
186 0.000650
187 0.000653
188 0.000655
189 0.000654
190 0.000648
191 0.000646
192 0.000646
193 0.000648
194 0.000647
195 0.000645
196 0.000640
197 0.000642
198 0.000642
199 0.000638
200 0.000639
201 0.000635
202 0.000635
203 0.000633
204 0.000631
205 0.000631
206 0.000621
207 0.000611
208 0.000598
209 0.000593
210 0.000586
211 0.000579
212 0.000570
213 0.000567
214 0.000565
215 0.000561
216 0.000558
217 0.000560
218 0.000553
219 0.000552
220 0.000552
221 0.000546
222 0.000546
223 0.000546
224 0.000548
225 0.000547
226 0.000551
227 0.000555
228 0.000555
229 0.000551
230 0.000543
231 0.000535
232 0.000528
233 0.000523
234 0.000520
235 0.000517
236 0.000514
237 0.000501
238 0.000491
239 0.000477
240 0.000471
241 0.000461
242 0.000452
243 0.000451
244 0.000449
245 0.000446
246 0.000452
247 0.000453
248 0.000452
249 0.000454
