# i correlation
1 0.001745
2 0.001682
3 0.001627
4 0.001579
5 0.001535
6 0.001499
7 0.001468
8 0.001449
9 0.001442
10 0.001429
11 0.001408
12 0.001393
13 0.001383
14 0.001372
15 0.001363
16 0.001363
17 0.001368
18 0.001372
19 0.001367
20 0.001361
21 0.001356
22 0.001345
23 0.001330
24 0.001311
25 0.001297
26 0.001292
27 0.001280
28 0.001274
29 0.001270
30 0.001269
31 0.001271
32 0.001280
33 0.001283
34 0.001287
35 0.001288
36 0.001280
37 0.001267
38 0.001264
39 0.001253
40 0.001242
41 0.001228
42 0.001224
43 0.001221
44 0.001216
45 0.001206
46 0.001199
47 0.001201
48 0.001208
49 0.001208
50 0.001212
51 0.001219
52 0.001223
53 0.001221
54 0.001221
55 0.001223
56 0.001223
57 0.001219
58 0.001211
59 0.001202
60 0.001189
61 0.001179
62 0.001163
63 0.001147
64 0.001135
65 0.001128
66 0.001121
67 0.001115
68 0.001118
69 0.001119
70 0.001123
71 0.001127
72 0.001130
73 0.001129
74 0.001130
75 0.001130
76 0.001121
77 0.001119
78 0.001117
79 0.001115
80 0.001109
81 0.001105
82 0.001104
83 0.001099
84 0.001096
85 0.001094
86 0.001094
87 0.001091
88 0.001091
89 0.001090
90 0.001082
91 0.001080
92 0.001072
93 0.001066
94 0.001059
95 0.001051
96 0.001043
97 0.001039
98 0.001032
99 0.001023
100 0.001009
101 0.000996
102 0.000990
103 0.000981
104 0.000967
105 0.000955
106 0.000948
107 0.000943
108 0.000940
109 0.000935
110 0.000939
111 0.000944
112 0.000948
113 0.000947
114 0.000946
115 0.000943
116 0.000934
117 0.000926
118 0.000914
119 0.000906
120 0.000911
121 0.000908
122 0.000905
123 0.000908
124 0.000908
125 0.000909
126 0.000908
127 0.000902
128 0.000896
129 0.000897
130 0.000902
131 0.000911
132 0.000911
133 0.000915
134 0.000915
135 0.000916
136 0.000916
137 0.000915
138 0.000912
139 0.000903
140 0.000897
141 0.000893
142 0.000899
143 0.000895
144 0.000891
145 0.000881
146 0.000873
147 0.000869
148 0.000861
149 0.000853
150 0.000846
151 0.000832
152 0.000822
153 0.000809
154 0.000808
155 0.000803
156 0.000804
157 0.000806
158 0.000807
159 0.000806
160 0.000801
161 0.000791
162 0.000776
163 0.000768
164 0.000759
165 0.000759
166 0.000756
167 0.000758
168 0.000759
169 0.000758
170 0.000753
171 0.000745
172 0.000737
173 0.000730
174 0.000729
175 0.000729
176 0.000729
177 0.000737
178 0.000740
179 0.000739
180 0.000737
181 0.000733
182 0.000733
183 0.000727
184 0.000728
185 0.000732
186 0.000736
187 0.000740
188 0.000739
189 0.000734
190 0.000736
191 0.000736
192 0.000735
193 0.000739
194 0.000739
195 0.000742
196 0.000740
197 0.000743
198 0.000744
199 0.000739
200 0.000734
201 0.000728
202 0.000720
203 0.000718
204 0.000713
205 0.000712
206 0.000706
207 0.000694
208 0.000689
209 0.000681
210 0.000671
211 0.000668
212 0.000666
213 0.000672
214 0.000682
215 0.000691
216 0.000693
217 0.000697
218 0.000693
219 0.000694
220 0.000692
221 0.000684
222 0.000680
223 0.000677
224 0.000676
225 0.000669
226 0.000665
227 0.000664
228 0.000664
229 0.000664
230 0.000660
231 0.000660
232 0.000662
233 0.000666
234 0.000666
235 0.000665
236 0.000665
237 0.000668
238 0.000667
239 0.000661
240 0.000658
241 0.000658
242 0.000653
243 0.000646
244 0.000632
245 0.000628
246 0.000628
247 0.000624
248 0.000620
249 0.000616
