# i correlation
1 0.001581
2 0.001519
3 0.001465
4 0.001424
5 0.001386
6 0.001351
7 0.001320
8 0.001297
9 0.001274
10 0.001250
11 0.001237
12 0.001226
13 0.001212
14 0.001194
15 0.001183
16 0.001170
17 0.001156
18 0.001150
19 0.001142
20 0.001131
21 0.001121
22 0.001112
23 0.001106
24 0.001101
25 0.001094
26 0.001081
27 0.001080
28 0.001070
29 0.001057
30 0.001039
31 0.001029
32 0.001023
33 0.001015
34 0.001007
35 0.000993
36 0.000989
37 0.000977
38 0.000966
39 0.000958
40 0.000955
41 0.000949
42 0.000938
43 0.000925
44 0.000914
45 0.000919
46 0.000922
47 0.000927
48 0.000932
49 0.000940
50 0.000939
51 0.000934
52 0.000923
53 0.000906
54 0.000899
55 0.000891
56 0.000895
57 0.000893
58 0.000885
59 0.000878
60 0.000874
61 0.000871
62 0.000873
63 0.000871
64 0.000870
65 0.000868
66 0.000860
67 0.000850
68 0.000847
69 0.000847
70 0.000852
71 0.000848
72 0.000849
73 0.000845
74 0.000836
75 0.000831
76 0.000823
77 0.000809
78 0.000796
79 0.000786
80 0.000779
81 0.000774
82 0.000761
83 0.000757
84 0.000753
85 0.000749
86 0.000744
87 0.000739
88 0.000741
89 0.000735
90 0.000731
91 0.000725
92 0.000717
93 0.000706
94 0.000691
95 0.000681
96 0.000681
97 0.000683
98 0.000687
99 0.000689
100 0.000684
101 0.000677
102 0.000669
103 0.000662
104 0.000653
105 0.000654
106 0.000649
107 0.000650
108 0.000654
109 0.000658
110 0.000657
111 0.000662
112 0.000662
113 0.000661
114 0.000658
115 0.000661
116 0.000656
117 0.000647
118 0.000635
119 0.000619
120 0.000607
121 0.000605
122 0.000601
123 0.000592
124 0.000582
125 0.000570
126 0.000568
127 0.000567
128 0.000563
129 0.000565
130 0.000572
131 0.000574
132 0.000579
133 0.000583
134 0.000587
135 0.000592
136 0.000600
137 0.000601
138 0.000602
139 0.000603
140 0.000596
141 0.000589
142 0.000587
143 0.000578
144 0.000567
145 0.000564
146 0.000556
147 0.000552
148 0.000551
149 0.000547
150 0.000543
151 0.000537
152 0.000523
153 0.000516
154 0.000513
155 0.000513
156 0.000508
157 0.000511
158 0.000508
159 0.000502
160 0.000505
161 0.000508
162 0.000515
163 0.000526
164 0.000529
165 0.000530
166 0.000525
167 0.000519
168 0.000513
169 0.000507
170 0.000500
171 0.000501
172 0.000505
173 0.000513
174 0.000514
175 0.000514
176 0.000515
177 0.000517
178 0.000520
179 0.000518
180 0.000516
181 0.000517
182 0.000516
183 0.000522
184 0.000524
185 0.000527
186 0.000534
187 0.000541
188 0.000549
189 0.000556
190 0.000563
191 0.000568
192 0.000566
193 0.000562
194 0.000562
195 0.000560
196 0.000565
197 0.000567
198 0.000566
199 0.000566
200 0.000560
201 0.000553
202 0.000552
203 0.000547
204 0.000545
205 0.000545
206 0.000547
207 0.000554
208 0.000553
209 0.000553
210 0.000553
211 0.000551
212 0.000544
213 0.000537
214 0.000537
215 0.000533
216 0.000524
217 0.000514
218 0.000505
219 0.000501
220 0.000500
221 0.000493
222 0.000488
223 0.000490
224 0.000490
225 0.000495
226 0.000503
227 0.000515
228 0.000520
229 0.000520
230 0.000522
231 0.000519
232 0.000513
233 0.000500
234 0.000492
235 0.000484
236 0.000478
237 0.000470
238 0.000472
239 0.000473
240 0.000466
241 0.000466
242 0.000466
243 0.000470
244 0.000474
245 0.000477
246 0.000485
247 0.000495
248 0.000497
249 0.000490
