# i correlation
1 0.001860
2 0.001801
3 0.001746
4 0.001695
5 0.001652
6 0.001621
7 0.001598
8 0.001582
9 0.001578
10 0.001570
11 0.001557
12 0.001542
13 0.001528
14 0.001516
15 0.001494
16 0.001475
17 0.001458
18 0.001437
19 0.001422
20 0.001409
21 0.001395
22 0.001384
23 0.001368
24 0.001350
25 0.001336
26 0.001325
27 0.001312
28 0.001299
29 0.001291
30 0.001288
31 0.001290
32 0.001294
33 0.001296
34 0.001295
35 0.001292
36 0.001285
37 0.001278
38 0.001274
39 0.001277
40 0.001279
41 0.001277
42 0.001277
43 0.001274
44 0.001270
45 0.001270
46 0.001261
47 0.001256
48 0.001257
49 0.001261
50 0.001263
51 0.001260
52 0.001260
53 0.001263
54 0.001272
55 0.001272
56 0.001269
57 0.001266
58 0.001258
59 0.001247
60 0.001237
61 0.001225
62 0.001218
63 0.001213
64 0.001216
65 0.001214
66 0.001216
67 0.001216
68 0.001217
69 0.001220
70 0.001217
71 0.001215
72 0.001207
73 0.001194
74 0.001181
75 0.001172
76 0.001175
77 0.001169
78 0.001167
79 0.001162
80 0.001154
81 0.001152
82 0.001142
83 0.001135
84 0.001129
85 0.001123
86 0.001118
87 0.001114
88 0.001101
89 0.001090
90 0.001082
91 0.001065
92 0.001054
93 0.001045
94 0.001034
95 0.001019
96 0.001010
97 0.001005
98 0.001005
99 0.001005
100 0.000997
101 0.000994
102 0.000991
103 0.000988
104 0.000981
105 0.000977
106 0.000972
107 0.000969
108 0.000962
109 0.000957
110 0.000952
111 0.000945
112 0.000935
113 0.000922
114 0.000909
115 0.000899
116 0.000892
117 0.000882
118 0.000880
119 0.000877
120 0.000871
121 0.000872
122 0.000871
123 0.000865
124 0.000862
125 0.000857
126 0.000851
127 0.000844
128 0.000836
129 0.000830
130 0.000830
131 0.000829
132 0.000831
133 0.000833
134 0.000829
135 0.000830
136 0.000824
137 0.000819
138 0.000815
139 0.000808
140 0.000804
141 0.000803
142 0.000803
143 0.000803
144 0.000809
145 0.000813
146 0.000810
147 0.000807
148 0.000801
149 0.000789
150 0.000780
151 0.000766
152 0.000760
153 0.000746
154 0.000733
155 0.000726
156 0.000725
157 0.000727
158 0.000732
159 0.000735
160 0.000734
161 0.000736
162 0.000734
163 0.000732
164 0.000728
165 0.000725
166 0.000720
167 0.000715
168 0.000705
169 0.000700
170 0.000691
171 0.000678
172 0.000674
173 0.000674
174 0.000674
175 0.000677
176 0.000681
177 0.000679
178 0.000675
179 0.000676
180 0.000670
181 0.000666
182 0.000667
183 0.000669
184 0.000674
185 0.000676
186 0.000680
187 0.000684
188 0.000685
189 0.000680
190 0.000668
191 0.000657
192 0.000646
193 0.000636
194 0.000620
195 0.000609
196 0.000601
197 0.000596
198 0.000592
199 0.000581
200 0.000567
201 0.000556
202 0.000553
203 0.000549
204 0.000541
205 0.000535
206 0.000531
207 0.000518
208 0.000510
209 0.000503
210 0.000492
211 0.000483
212 0.000478
213 0.000467
214 0.000459
215 0.000455
216 0.000456
217 0.000452
218 0.000446
219 0.000440
220 0.000431
221 0.000421
222 0.000415
223 0.000413
224 0.000412
225 0.000412
226 0.000415
227 0.000414
228 0.000419
229 0.000426
230 0.000426
231 0.000422
232 0.000422
233 0.000422
234 0.000421
235 0.000420
236 0.000423
237 0.000437
238 0.000451
239 0.000463
240 0.000469
241 0.000467
242 0.000464
243 0.000460
244 0.000458
245 0.000456
246 0.000457
247 0.000462
248 0.000471
249 0.000471
