# i correlation
1 0.001970
2 0.001913
3 0.001866
4 0.001818
5 0.001786
6 0.001754
7 0.001732
8 0.001709
9 0.001689
10 0.001669
11 0.001656
12 0.001643
13 0.001635
14 0.001628
15 0.001613
16 0.001603
17 0.001601
18 0.001594
19 0.001586
20 0.001574
21 0.001564
22 0.001551
23 0.001544
24 0.001542
25 0.001537
26 0.001533
27 0.001526
28 0.001520
29 0.001510
30 0.001498
31 0.001490
32 0.001481
33 0.001472
34 0.001453
35 0.001433
36 0.001416
37 0.001399
38 0.001388
39 0.001373
40 0.001356
41 0.001340
42 0.001324
43 0.001312
44 0.001302
45 0.001290
46 0.001270
47 0.001253
48 0.001241
49 0.001228
50 0.001216
51 0.001209
52 0.001204
53 0.001202
54 0.001196
55 0.001191
56 0.001187
57 0.001183
58 0.001178
59 0.001175
60 0.001171
61 0.001173
62 0.001181
63 0.001180
64 0.001181
65 0.001173
66 0.001172
67 0.001173
68 0.001168
69 0.001166
70 0.001165
71 0.001158
72 0.001150
73 0.001139
74 0.001123
75 0.001115
76 0.001105
77 0.001093
78 0.001089
79 0.001082
80 0.001073
81 0.001075
82 0.001072
83 0.001069
84 0.001069
85 0.001067
86 0.001071
87 0.001080
88 0.001079
89 0.001076
90 0.001074
91 0.001069
92 0.001063
93 0.001061
94 0.001058
95 0.001064
96 0.001065
97 0.001061
98 0.001064
99 0.001059
100 0.001055
101 0.001052
102 0.001050
103 0.001051
104 0.001051
105 0.001049
106 0.001049
107 0.001047
108 0.001046
109 0.001043
110 0.001034
111 0.001029
112 0.001019
113 0.001011
114 0.001001
115 0.001000
116 0.001004
117 0.000997
118 0.000991
119 0.000987
120 0.000991
121 0.000998
122 0.001004
123 0.001009
124 0.001014
125 0.001011
126 0.001008
127 0.001010
128 0.001016
129 0.001021
130 0.001027
131 0.001030
132 0.001026
133 0.001021
134 0.001023
135 0.001017
136 0.001010
137 0.001004
138 0.000996
139 0.000994
140 0.000989
141 0.000984
142 0.000984
143 0.000973
144 0.000965
145 0.000955
146 0.000948
147 0.000943
148 0.000938
149 0.000931
150 0.000927
151 0.000927
152 0.000922
153 0.000933
154 0.000944
155 0.000952
156 0.000961
157 0.000959
158 0.000954
159 0.000945
160 0.000941
161 0.000938
162 0.000940
163 0.000944
164 0.000940
165 0.000936
166 0.000931
167 0.000924
168 0.000916
169 0.000903
170 0.000898
171 0.000899
172 0.000899
173 0.000899
174 0.000893
175 0.000887
176 0.000876
177 0.000874
178 0.000873
179 0.000875
180 0.000877
181 0.000874
182 0.000875
183 0.000874
184 0.000869
185 0.000864
186 0.000862
187 0.000853
188 0.000844
189 0.000838
190 0.000837
191 0.000842
192 0.000845
193 0.000845
194 0.000842
195 0.000842
196 0.000840
197 0.000839
198 0.000839
199 0.000840
200 0.000840
201 0.000837
202 0.000831
203 0.000824
204 0.000818
205 0.000812
206 0.000806
207 0.000797
208 0.000791
209 0.000790
210 0.000791
211 0.000789
212 0.000787
213 0.000776
214 0.000764
215 0.000764
216 0.000759
217 0.000761
218 0.000765
219 0.000766
220 0.000765
221 0.000761
222 0.000755
223 0.000754
224 0.000749
225 0.000749
226 0.000750
227 0.000753
228 0.000757
229 0.000764
230 0.000763
231 0.000756
232 0.000755
233 0.000749
234 0.000741
235 0.000740
236 0.000739
237 0.000737
238 0.000729
239 0.000722
240 0.000718
241 0.000717
242 0.000710
243 0.000707
244 0.000706
245 0.000702
246 0.000701
247 0.000697
248 0.000690
249 0.000687
