# i correlation
1 0.001480
2 0.001422
3 0.001372
4 0.001324
5 0.001279
6 0.001244
7 0.001210
8 0.001187
9 0.001169
10 0.001153
11 0.001141
12 0.001129
13 0.001112
14 0.001104
15 0.001094
16 0.001093
17 0.001093
18 0.001091
19 0.001088
20 0.001087
21 0.001083
22 0.001086
23 0.001090
24 0.001092
25 0.001093
26 0.001092
27 0.001087
28 0.001085
29 0.001082
30 0.001081
31 0.001078
32 0.001076
33 0.001067
34 0.001064
35 0.001056
36 0.001047
37 0.001037
38 0.001024
39 0.001019
40 0.001020
41 0.001018
42 0.001018
43 0.001022
44 0.001021
45 0.001020
46 0.001023
47 0.001026
48 0.001020
49 0.001012
50 0.001004
51 0.000994
52 0.000991
53 0.000988
54 0.000982
55 0.000974
56 0.000969
57 0.000965
58 0.000961
59 0.000954
60 0.000942
61 0.000932
62 0.000922
63 0.000914
64 0.000905
65 0.000901
66 0.000901
67 0.000902
68 0.000897
69 0.000896
70 0.000896
71 0.000889
72 0.000880
73 0.000875
74 0.000872
75 0.000867
76 0.000869
77 0.000859
78 0.000846
79 0.000839
80 0.000834
81 0.000827
82 0.000821
83 0.000817
84 0.000818
85 0.000819
86 0.000828
87 0.000836
88 0.000841
89 0.000846
90 0.000855
91 0.000854
92 0.000851
93 0.000846
94 0.000834
95 0.000820
96 0.000815
97 0.000812
98 0.000810
99 0.000805
100 0.000795
101 0.000791
102 0.000794
103 0.000791
104 0.000792
105 0.000792
106 0.000790
107 0.000787
108 0.000778
109 0.000769
110 0.000761
111 0.000756
112 0.000753
113 0.000754
114 0.000749
115 0.000748
116 0.000749
117 0.000743
118 0.000738
119 0.000735
120 0.000733
121 0.000736
122 0.000743
123 0.000745
124 0.000742
125 0.000732
126 0.000725
127 0.000719
128 0.000715
129 0.000713
130 0.000711
131 0.000707
132 0.000706
133 0.000708
134 0.000706
135 0.000696
136 0.000682
137 0.000672
138 0.000667
139 0.000663
140 0.000656
141 0.000654
142 0.000650
143 0.000653
144 0.000653
145 0.000661
146 0.000670
147 0.000676
148 0.000673
149 0.000673
150 0.000669
151 0.000667
152 0.000663
153 0.000657
154 0.000654
155 0.000652
156 0.000651
157 0.000651
158 0.000647
159 0.000649
160 0.000648
161 0.000643
162 0.000638
163 0.000636
164 0.000632
165 0.000630
166 0.000623
167 0.000610
168 0.000600
169 0.000594
170 0.000591
171 0.000590
172 0.000588
173 0.000583
174 0.000580
175 0.000581
176 0.000579
177 0.000578
178 0.000582
179 0.000585
180 0.000589
181 0.000593
182 0.000595
183 0.000595
184 0.000588
185 0.000583
186 0.000580
187 0.000576
188 0.000578
189 0.000578
190 0.000579
191 0.000577
192 0.000570
193 0.000562
194 0.000556
195 0.000547
196 0.000538
197 0.000533
198 0.000530
199 0.000527
200 0.000527
201 0.000527
202 0.000531
203 0.000537
204 0.000549
205 0.000554
206 0.000563
207 0.000565
208 0.000563
209 0.000563
210 0.000563
211 0.000563
212 0.000567
213 0.000572
214 0.000572
215 0.000572
216 0.000571
217 0.000571
218 0.000572
219 0.000564
220 0.000563
221 0.000559
222 0.000556
223 0.000555
224 0.000549
225 0.000541
226 0.000530
227 0.000517
228 0.000505
229 0.000493
230 0.000483
231 0.000476
232 0.000476
233 0.000475
234 0.000473
235 0.000480
236 0.000486
237 0.000491
238 0.000494
239 0.000496
240 0.000495
241 0.000493
242 0.000491
243 0.000487
244 0.000484
245 0.000486
246 0.000488
247 0.000492
248 0.000496
249 0.000501
