# i correlation
1 0.001586
2 0.001528
3 0.001489
4 0.001452
5 0.001406
6 0.001362
7 0.001339
8 0.001326
9 0.001307
10 0.001288
11 0.001271
12 0.001267
13 0.001253
14 0.001237
15 0.001219
16 0.001209
17 0.001191
18 0.001165
19 0.001139
20 0.001118
21 0.001106
22 0.001089
23 0.001076
24 0.001071
25 0.001064
26 0.001059
27 0.001053
28 0.001047
29 0.001042
30 0.001037
31 0.001027
32 0.001022
33 0.001021
34 0.001015
35 0.001008
36 0.000998
37 0.001001
38 0.000997
39 0.000995
40 0.000991
41 0.000986
42 0.000982
43 0.000974
44 0.000967
45 0.000960
46 0.000952
47 0.000947
48 0.000938
49 0.000932
50 0.000919
51 0.000914
52 0.000907
53 0.000899
54 0.000889
55 0.000887
56 0.000887
57 0.000883
58 0.000877
59 0.000873
60 0.000875
61 0.000868
62 0.000860
63 0.000858
64 0.000848
65 0.000836
66 0.000820
67 0.000812
68 0.000803
69 0.000786
70 0.000770
71 0.000759
72 0.000749
73 0.000741
74 0.000731
75 0.000724
76 0.000724
77 0.000732
78 0.000731
79 0.000731
80 0.000724
81 0.000727
82 0.000726
83 0.000722
84 0.000711
85 0.000709
86 0.000710
87 0.000710
88 0.000706
89 0.000707
90 0.000704
91 0.000700
92 0.000697
93 0.000703
94 0.000710
95 0.000719
96 0.000715
97 0.000714
98 0.000710
99 0.000709
100 0.000708
101 0.000707
102 0.000705
103 0.000698
104 0.000700
105 0.000696
106 0.000695
107 0.000701
108 0.000702
109 0.000700
110 0.000699
111 0.000701
112 0.000699
113 0.000692
114 0.000688
115 0.000679
116 0.000676
117 0.000676
118 0.000671
119 0.000662
120 0.000661
121 0.000668
122 0.000678
123 0.000680
124 0.000676
125 0.000683
126 0.000689
127 0.000691
128 0.000695
129 0.000694
130 0.000697
131 0.000695
132 0.000693
133 0.000694
134 0.000694
135 0.000693
136 0.000690
137 0.000686
138 0.000687
139 0.000691
140 0.000694
141 0.000697
142 0.000692
143 0.000691
144 0.000690
145 0.000694
146 0.000701
147 0.000703
148 0.000707
149 0.000709
150 0.000711
151 0.000708
152 0.000696
153 0.000691
154 0.000687
155 0.000691
156 0.000693
157 0.000703
158 0.000709
159 0.000709
160 0.000710
161 0.000705
162 0.000708
163 0.000706
164 0.000705
165 0.000705
166 0.000696
167 0.000689
168 0.000687
169 0.000685
170 0.000682
171 0.000675
172 0.000673
173 0.000677
174 0.000683
175 0.000679
176 0.000672
177 0.000668
178 0.000665
179 0.000649
180 0.000637
181 0.000634
182 0.000634
183 0.000632
184 0.000633
185 0.000637
186 0.000646
187 0.000646
188 0.000649
189 0.000655
190 0.000668
191 0.000667
192 0.000666
193 0.000665
194 0.000667
195 0.000669
196 0.000669
197 0.000669
198 0.000671
199 0.000673
200 0.000670
201 0.000662
202 0.000654
203 0.000654
204 0.000654
205 0.000651
206 0.000658
207 0.000669
208 0.000674
209 0.000672
210 0.000670
211 0.000670
212 0.000659
213 0.000647
214 0.000638
215 0.000633
216 0.000630
217 0.000628
218 0.000621
219 0.000612
220 0.000602
221 0.000595
222 0.000596
223 0.000592
224 0.000586
225 0.000585
226 0.000580
227 0.000569
228 0.000557
229 0.000551
230 0.000551
231 0.000543
232 0.000544
233 0.000549
234 0.000556
235 0.000558
236 0.000561
237 0.000565
238 0.000569
239 0.000571
240 0.000568
241 0.000559
242 0.000551
243 0.000542
244 0.000534
245 0.000529
246 0.000533
247 0.000532
248 0.000536
249 0.000538
