# i correlation
1 0.001549
2 0.001482
3 0.001423
4 0.001382
5 0.001343
6 0.001306
7 0.001278
8 0.001256
9 0.001236
10 0.001218
11 0.001201
12 0.001182
13 0.001166
14 0.001145
15 0.001126
16 0.001114
17 0.001101
18 0.001095
19 0.001087
20 0.001074
21 0.001064
22 0.001050
23 0.001035
24 0.001023
25 0.001014
26 0.001005
27 0.001001
28 0.000994
29 0.000994
30 0.000992
31 0.000989
32 0.000987
33 0.000984
34 0.000978
35 0.000973
36 0.000967
37 0.000966
38 0.000961
39 0.000953
40 0.000947
41 0.000938
42 0.000931
43 0.000931
44 0.000930
45 0.000924
46 0.000919
47 0.000908
48 0.000906
49 0.000906
50 0.000908
51 0.000907
52 0.000907
53 0.000906
54 0.000901
55 0.000892
56 0.000886
57 0.000875
58 0.000860
59 0.000842
60 0.000828
61 0.000817
62 0.000806
63 0.000802
64 0.000801
65 0.000805
66 0.000803
67 0.000798
68 0.000785
69 0.000777
70 0.000772
71 0.000763
72 0.000754
73 0.000742
74 0.000734
75 0.000722
76 0.000711
77 0.000701
78 0.000694
79 0.000690
80 0.000686
81 0.000679
82 0.000671
83 0.000663
84 0.000660
85 0.000649
86 0.000645
87 0.000643
88 0.000635
89 0.000628
90 0.000620
91 0.000610
92 0.000600
93 0.000587
94 0.000577
95 0.000575
96 0.000575
97 0.000577
98 0.000574
99 0.000570
100 0.000564
101 0.000561
102 0.000563
103 0.000566
104 0.000570
105 0.000574
106 0.000575
107 0.000575
108 0.000579
109 0.000583
110 0.000584
111 0.000584
112 0.000585
113 0.000588
114 0.000593
115 0.000592
116 0.000588
117 0.000586
118 0.000586
119 0.000581
120 0.000578
121 0.000578
122 0.000580
123 0.000580
124 0.000588
125 0.000590
126 0.000594
127 0.000598
128 0.000602
129 0.000601
130 0.000596
131 0.000594
132 0.000602
133 0.000613
134 0.000624
135 0.000627
136 0.000631
137 0.000633
138 0.000629
139 0.000621
140 0.000616
141 0.000616
142 0.000611
143 0.000612
144 0.000615
145 0.000619
146 0.000613
147 0.000608
148 0.000605
149 0.000595
150 0.000587
151 0.000576
152 0.000562
153 0.000557
154 0.000556
155 0.000551
156 0.000542
157 0.000531
158 0.000525
159 0.000524
160 0.000519
161 0.000518
162 0.000521
163 0.000519
164 0.000512
165 0.000503
166 0.000500
167 0.000502
168 0.000501
169 0.000497
170 0.000495
171 0.000498
172 0.000504
173 0.000515
174 0.000524
175 0.000535
176 0.000542
177 0.000554
178 0.000570
179 0.000577
180 0.000588
181 0.000593
182 0.000599
183 0.000602
184 0.000612
185 0.000617
186 0.000617
187 0.000623
188 0.000631
189 0.000636
190 0.000637
191 0.000634
192 0.000630
193 0.000628
194 0.000622
195 0.000607
196 0.000597
197 0.000590
198 0.000579
199 0.000572
200 0.000565
201 0.000565
202 0.000567
203 0.000567
204 0.000565
205 0.000565
206 0.000567
207 0.000564
208 0.000557
209 0.000547
210 0.000541
211 0.000532
212 0.000524
213 0.000521
214 0.000516
215 0.000511
216 0.000510
217 0.000505
218 0.000503
219 0.000499
220 0.000498
221 0.000501
222 0.000501
223 0.000506
224 0.000513
225 0.000519
226 0.000526
227 0.000524
228 0.000527
229 0.000522
230 0.000509
231 0.000494
232 0.000487
233 0.000483
234 0.000487
235 0.000485
236 0.000484
237 0.000483
238 0.000484
239 0.000481
240 0.000479
241 0.000473
242 0.000467
243 0.000466
244 0.000464
245 0.000472
246 0.000480
247 0.000486
248 0.000489
249 0.000494
