# i correlation
1 0.001850
2 0.001780
3 0.001720
4 0.001667
5 0.001622
6 0.001591
7 0.001561
8 0.001525
9 0.001492
10 0.001456
11 0.001414
12 0.001386
13 0.001364
14 0.001340
15 0.001320
16 0.001303
17 0.001287
18 0.001270
19 0.001261
20 0.001257
21 0.001247
22 0.001239
23 0.001232
24 0.001221
25 0.001209
26 0.001196
27 0.001185
28 0.001177
29 0.001173
30 0.001169
31 0.001164
32 0.001164
33 0.001163
34 0.001162
35 0.001162
36 0.001171
37 0.001176
38 0.001179
39 0.001177
40 0.001175
41 0.001171
42 0.001168
43 0.001168
44 0.001176
45 0.001185
46 0.001187
47 0.001182
48 0.001177
49 0.001170
50 0.001160
51 0.001149
52 0.001133
53 0.001115
54 0.001097
55 0.001085
56 0.001074
57 0.001060
58 0.001046
59 0.001027
60 0.001010
61 0.000992
62 0.000979
63 0.000974
64 0.000970
65 0.000969
66 0.000959
67 0.000950
68 0.000940
69 0.000928
70 0.000921
71 0.000919
72 0.000913
73 0.000907
74 0.000903
75 0.000902
76 0.000906
77 0.000907
78 0.000908
79 0.000907
80 0.000914
81 0.000921
82 0.000928
83 0.000928
84 0.000924
85 0.000924
86 0.000922
87 0.000915
88 0.000908
89 0.000900
90 0.000894
91 0.000884
92 0.000873
93 0.000862
94 0.000852
95 0.000843
96 0.000840
97 0.000833
98 0.000822
99 0.000811
100 0.000800
101 0.000787
102 0.000777
103 0.000772
104 0.000767
105 0.000764
106 0.000760
107 0.000748
108 0.000737
109 0.000726
110 0.000723
111 0.000721
112 0.000718
113 0.000722
114 0.000724
115 0.000720
116 0.000712
117 0.000705
118 0.000699
119 0.000698
120 0.000701
121 0.000699
122 0.000693
123 0.000685
124 0.000677
125 0.000672
126 0.000674
127 0.000676
128 0.000677
129 0.000676
130 0.000682
131 0.000688
132 0.000686
133 0.000686
134 0.000683
135 0.000681
136 0.000682
137 0.000678
138 0.000676
139 0.000678
140 0.000674
141 0.000670
142 0.000657
143 0.000650
144 0.000640
145 0.000633
146 0.000631
147 0.000629
148 0.000626
149 0.000622
150 0.000623
151 0.000625
152 0.000622
153 0.000618
154 0.000614
155 0.000610
156 0.000608
157 0.000605
158 0.000601
159 0.000603
160 0.000605
161 0.000606
162 0.000604
163 0.000600
164 0.000597
165 0.000591
166 0.000584
167 0.000576
168 0.000572
169 0.000576
170 0.000577
171 0.000579
172 0.000575
173 0.000570
174 0.000568
175 0.000566
176 0.000567
177 0.000572
178 0.000577
179 0.000582
180 0.000580
181 0.000574
182 0.000568
183 0.000560
184 0.000553
185 0.000547
186 0.000547
187 0.000548
188 0.000550
189 0.000546
190 0.000537
191 0.000531
192 0.000521
193 0.000514
194 0.000509
195 0.000504
196 0.000508
197 0.000517
198 0.000528
199 0.000526
200 0.000527
201 0.000528
202 0.000530
203 0.000528
204 0.000524
205 0.000521
206 0.000518
207 0.000512
208 0.000510
209 0.000509
210 0.000505
211 0.000504
212 0.000502
213 0.000497
214 0.000493
215 0.000493
216 0.000495
217 0.000497
218 0.000504
219 0.000510
220 0.000515
221 0.000525
222 0.000533
223 0.000539
224 0.000548
225 0.000559
226 0.000570
227 0.000574
228 0.000577
229 0.000578
230 0.000571
231 0.000562
232 0.000555
233 0.000548
234 0.000546
235 0.000541
236 0.000535
237 0.000528
238 0.000518
239 0.000510
240 0.000499
241 0.000492
242 0.000487
243 0.000471
244 0.000456
245 0.000448
246 0.000446
247 0.000439
248 0.000425
249 0.000415
