# i correlation
1 0.002167
2 0.002104
3 0.002050
4 0.001999
5 0.001959
6 0.001915
7 0.001873
8 0.001842
9 0.001814
10 0.001786
11 0.001763
12 0.001739
13 0.001721
14 0.001704
15 0.001695
16 0.001675
17 0.001659
18 0.001641
19 0.001626
20 0.001608
21 0.001591
22 0.001579
23 0.001569
24 0.001560
25 0.001547
26 0.001537
27 0.001523
28 0.001512
29 0.001507
30 0.001508
31 0.001509
32 0.001510
33 0.001507
34 0.001500
35 0.001498
36 0.001481
37 0.001469
38 0.001457
39 0.001447
40 0.001438
41 0.001433
42 0.001427
43 0.001419
44 0.001407
45 0.001404
46 0.001404
47 0.001400
48 0.001393
49 0.001388
50 0.001383
51 0.001380
52 0.001382
53 0.001385
54 0.001390
55 0.001392
56 0.001394
57 0.001399
58 0.001413
59 0.001416
60 0.001418
61 0.001415
62 0.001404
63 0.001395
64 0.001388
65 0.001381
66 0.001366
67 0.001349
68 0.001328
69 0.001318
70 0.001312
71 0.001307
72 0.001301
73 0.001295
74 0.001285
75 0.001271
76 0.001265
77 0.001264
78 0.001264
79 0.001265
80 0.001268
81 0.001271
82 0.001274
83 0.001269
84 0.001268
85 0.001266
86 0.001254
87 0.001247
88 0.001242
89 0.001238
90 0.001226
91 0.001220
92 0.001213
93 0.001203
94 0.001199
95 0.001194
96 0.001192
97 0.001188
98 0.001179
99 0.001175
100 0.001173
101 0.001165
102 0.001157
103 0.001151
104 0.001145
105 0.001137
106 0.001133
107 0.001130
108 0.001118
109 0.001110
110 0.001103
111 0.001095
112 0.001092
113 0.001083
114 0.001069
115 0.001066
116 0.001060
117 0.001055
118 0.001050
119 0.001049
120 0.001047
121 0.001038
122 0.001035
123 0.001030
124 0.001028
125 0.001028
126 0.001027
127 0.001019
128 0.001010
129 0.001004
130 0.001010
131 0.001013
132 0.001015
133 0.001016
134 0.001024
135 0.001027
136 0.001028
137 0.001030
138 0.001030
139 0.001030
140 0.001027
141 0.001017
142 0.001012
143 0.000998
144 0.000988
145 0.000981
146 0.000971
147 0.000964
148 0.000955
149 0.000946
150 0.000939
151 0.000933
152 0.000937
153 0.000937
154 0.000933
155 0.000934
156 0.000931
157 0.000933
158 0.000934
159 0.000931
160 0.000922
161 0.000918
162 0.000914
163 0.000908
164 0.000903
165 0.000906
166 0.000909
167 0.000915
168 0.000927
169 0.000941
170 0.000945
171 0.000951
172 0.000951
173 0.000951
174 0.000940
175 0.000925
176 0.000918
177 0.000915
178 0.000910
179 0.000900
180 0.000891
181 0.000885
182 0.000878
183 0.000865
184 0.000857
185 0.000846
186 0.000835
187 0.000819
188 0.000806
189 0.000793
190 0.000789
191 0.000787
192 0.000788
193 0.000787
194 0.000788
195 0.000786
196 0.000784
197 0.000780
198 0.000773
199 0.000770
200 0.000768
201 0.000767
202 0.000766
203 0.000763
204 0.000761
205 0.000754
206 0.000743
207 0.000737
208 0.000728
209 0.000716
210 0.000702
211 0.000693
212 0.000685
213 0.000679
214 0.000673
215 0.000670
216 0.000665
217 0.000661
218 0.000652
219 0.000646
220 0.000635
221 0.000613
222 0.000604
223 0.000589
224 0.000579
225 0.000576
226 0.000572
227 0.000578
228 0.000584
229 0.000592
230 0.000597
231 0.000606
232 0.000609
233 0.000612
234 0.000619
235 0.000625
236 0.000631
237 0.000638
238 0.000642
239 0.000643
240 0.000637
241 0.000634
242 0.000634
243 0.000625
244 0.000623
245 0.000617
246 0.000618
247 0.000618
248 0.000616
249 0.000614
