# i correlation
1 0.001663
2 0.001605
3 0.001555
4 0.001517
5 0.001482
6 0.001453
7 0.001422
8 0.001394
9 0.001374
10 0.001355
11 0.001342
12 0.001332
13 0.001322
14 0.001313
15 0.001300
16 0.001285
17 0.001271
18 0.001259
19 0.001250
20 0.001238
21 0.001230
22 0.001215
23 0.001201
24 0.001190
25 0.001185
26 0.001170
27 0.001160
28 0.001154
29 0.001154
30 0.001143
31 0.001135
32 0.001130
33 0.001123
34 0.001124
35 0.001124
36 0.001128
37 0.001127
38 0.001123
39 0.001120
40 0.001113
41 0.001108
42 0.001100
43 0.001091
44 0.001085
45 0.001080
46 0.001083
47 0.001085
48 0.001086
49 0.001089
50 0.001091
51 0.001092
52 0.001080
53 0.001066
54 0.001053
55 0.001037
56 0.001014
57 0.000993
58 0.000973
59 0.000957
60 0.000945
61 0.000932
62 0.000925
63 0.000922
64 0.000922
65 0.000924
66 0.000918
67 0.000909
68 0.000912
69 0.000910
70 0.000909
71 0.000901
72 0.000895
73 0.000891
74 0.000897
75 0.000901
76 0.000896
77 0.000888
78 0.000882
79 0.000878
80 0.000877
81 0.000871
82 0.000867
83 0.000867
84 0.000868
85 0.000878
86 0.000880
87 0.000878
88 0.000877
89 0.000877
90 0.000874
91 0.000873
92 0.000866
93 0.000864
94 0.000854
95 0.000844
96 0.000829
97 0.000820
98 0.000814
99 0.000818
100 0.000818
101 0.000813
102 0.000812
103 0.000809
104 0.000810
105 0.000813
106 0.000810
107 0.000807
108 0.000802
109 0.000795
110 0.000799
111 0.000804
112 0.000799
113 0.000795
114 0.000798
115 0.000802
116 0.000813
117 0.000826
118 0.000830
119 0.000829
120 0.000829
121 0.000829
122 0.000829
123 0.000832
124 0.000838
125 0.000837
126 0.000830
127 0.000823
128 0.000815
129 0.000811
130 0.000807
131 0.000803
132 0.000802
133 0.000797
134 0.000799
135 0.000801
136 0.000795
137 0.000787
138 0.000782
139 0.000778
140 0.000774
141 0.000765
142 0.000758
143 0.000760
144 0.000763
145 0.000759
146 0.000755
147 0.000745
148 0.000737
149 0.000737
150 0.000731
151 0.000724
152 0.000718
153 0.000715
154 0.000712
155 0.000708
156 0.000705
157 0.000701
158 0.000701
159 0.000701
160 0.000696
161 0.000688
162 0.000682
163 0.000680
164 0.000679
165 0.000680
166 0.000677
167 0.000677
168 0.000681
169 0.000681
170 0.000680
171 0.000676
172 0.000673
173 0.000667
174 0.000659
175 0.000648
176 0.000634
177 0.000625
178 0.000615
179 0.000604
180 0.000587
181 0.000574
182 0.000558
183 0.000547
184 0.000538
185 0.000527
186 0.000525
187 0.000522
188 0.000518
189 0.000509
190 0.000508
191 0.000500
192 0.000495
193 0.000494
194 0.000490
195 0.000486
196 0.000485
197 0.000479
198 0.000476
199 0.000476
200 0.000476
201 0.000476
202 0.000476
203 0.000483
204 0.000487
205 0.000488
206 0.000492
207 0.000498
208 0.000503
209 0.000510
210 0.000508
211 0.000501
212 0.000497
213 0.000493
214 0.000490
215 0.000493
216 0.000498
217 0.000496
218 0.000494
219 0.000492
220 0.000491
221 0.000487
222 0.000487
223 0.000491
224 0.000496
225 0.000501
226 0.000503
227 0.000502
228 0.000501
229 0.000502
230 0.000499
231 0.000493
232 0.000489
233 0.000486
234 0.000489
235 0.000492
236 0.000488
237 0.000489
238 0.000493
239 0.000494
240 0.000490
241 0.000490
242 0.000490
243 0.000495
244 0.000500
245 0.000506
246 0.000508
247 0.000509
248 0.000510
249 0.000510
