# i correlation
1 0.001429
2 0.001374
3 0.001326
4 0.001291
5 0.001255
6 0.001224
7 0.001199
8 0.001176
9 0.001156
10 0.001148
11 0.001146
12 0.001143
13 0.001130
14 0.001118
15 0.001112
16 0.001100
17 0.001090
18 0.001079
19 0.001067
20 0.001054
21 0.001041
22 0.001033
23 0.001024
24 0.001017
25 0.001010
26 0.001005
27 0.001001
28 0.000995
29 0.000989
30 0.000984
31 0.000980
32 0.000972
33 0.000964
34 0.000958
35 0.000955
36 0.000946
37 0.000944
38 0.000939
39 0.000942
40 0.000937
41 0.000937
42 0.000933
43 0.000934
44 0.000938
45 0.000946
46 0.000949
47 0.000956
48 0.000959
49 0.000963
50 0.000964
51 0.000959
52 0.000951
53 0.000945
54 0.000937
55 0.000922
56 0.000909
57 0.000900
58 0.000887
59 0.000875
60 0.000859
61 0.000848
62 0.000842
63 0.000836
64 0.000835
65 0.000834
66 0.000835
67 0.000833
68 0.000835
69 0.000838
70 0.000839
71 0.000834
72 0.000830
73 0.000822
74 0.000819
75 0.000818
76 0.000820
77 0.000821
78 0.000823
79 0.000812
80 0.000813
81 0.000810
82 0.000806
83 0.000797
84 0.000794
85 0.000788
86 0.000779
87 0.000767
88 0.000761
89 0.000762
90 0.000758
91 0.000756
92 0.000763
93 0.000770
94 0.000771
95 0.000776
96 0.000782
97 0.000786
98 0.000786
99 0.000790
100 0.000784
101 0.000784
102 0.000782
103 0.000778
104 0.000774
105 0.000769
106 0.000762
107 0.000753
108 0.000746
109 0.000735
110 0.000720
111 0.000710
112 0.000704
113 0.000698
114 0.000692
115 0.000687
116 0.000688
117 0.000686
118 0.000675
119 0.000671
120 0.000662
121 0.000659
122 0.000657
123 0.000663
124 0.000666
125 0.000666
126 0.000666
127 0.000670
128 0.000668
129 0.000669
130 0.000659
131 0.000657
132 0.000653
133 0.000646
134 0.000642
135 0.000641
136 0.000633
137 0.000628
138 0.000627
139 0.000630
140 0.000634
141 0.000638
142 0.000639
143 0.000645
144 0.000645
145 0.000643
146 0.000646
147 0.000649
148 0.000653
149 0.000650
150 0.000642
151 0.000634
152 0.000631
153 0.000638
154 0.000641
155 0.000641
156 0.000633
157 0.000616
158 0.000601
159 0.000586
160 0.000571
161 0.000565
162 0.000553
163 0.000542
164 0.000533
165 0.000531
166 0.000535
167 0.000534
168 0.000533
169 0.000533
170 0.000541
171 0.000553
172 0.000554
173 0.000560
174 0.000563
175 0.000566
176 0.000568
177 0.000568
178 0.000570
179 0.000566
180 0.000561
181 0.000553
182 0.000550
183 0.000547
184 0.000545
185 0.000545
186 0.000549
187 0.000548
188 0.000547
189 0.000545
190 0.000549
191 0.000548
192 0.000550
193 0.000553
194 0.000556
195 0.000551
196 0.000546
197 0.000548
198 0.000548
199 0.000542
200 0.000537
201 0.000532
202 0.000527
203 0.000520
204 0.000516
205 0.000509
206 0.000498
207 0.000488
208 0.000482
209 0.000480
210 0.000479
211 0.000476
212 0.000472
213 0.000470
214 0.000464
215 0.000464
216 0.000459
217 0.000451
218 0.000445
219 0.000443
220 0.000440
221 0.000444
222 0.000443
223 0.000446
224 0.000455
225 0.000464
226 0.000467
227 0.000467
228 0.000465
229 0.000466
230 0.000469
231 0.000467
232 0.000459
233 0.000456
234 0.000452
235 0.000445
236 0.000442
237 0.000438
238 0.000430
239 0.000428
240 0.000432
241 0.000434
242 0.000436
243 0.000442
244 0.000447
245 0.000444
246 0.000443
247 0.000447
248 0.000447
249 0.000442
