# i correlation
1 0.001627
2 0.001576
3 0.001528
4 0.001495
5 0.001461
6 0.001434
7 0.001408
8 0.001381
9 0.001356
10 0.001338
11 0.001321
12 0.001309
13 0.001300
14 0.001293
15 0.001282
16 0.001277
17 0.001268
18 0.001263
19 0.001259
20 0.001251
21 0.001243
22 0.001227
23 0.001213
24 0.001205
25 0.001194
26 0.001188
27 0.001180
28 0.001175
29 0.001172
30 0.001167
31 0.001154
32 0.001141
33 0.001127
34 0.001118
35 0.001103
36 0.001093
37 0.001094
38 0.001096
39 0.001095
40 0.001094
41 0.001092
42 0.001091
43 0.001093
44 0.001091
45 0.001082
46 0.001073
47 0.001068
48 0.001065
49 0.001057
50 0.001051
51 0.001048
52 0.001047
53 0.001052
54 0.001046
55 0.001038
56 0.001034
57 0.001030
58 0.001023
59 0.001015
60 0.001006
61 0.001002
62 0.000993
63 0.000987
64 0.000978
65 0.000966
66 0.000959
67 0.000952
68 0.000938
69 0.000928
70 0.000922
71 0.000920
72 0.000916
73 0.000919
74 0.000920
75 0.000919
76 0.000913
77 0.000910
78 0.000910
79 0.000906
80 0.000905
81 0.000900
82 0.000900
83 0.000898
84 0.000899
85 0.000899
86 0.000903
87 0.000903
88 0.000900
89 0.000891
90 0.000885
91 0.000883
92 0.000881
93 0.000881
94 0.000878
95 0.000875
96 0.000875
97 0.000874
98 0.000871
99 0.000870
100 0.000870
101 0.000869
102 0.000865
103 0.000863
104 0.000857
105 0.000854
106 0.000848
107 0.000842
108 0.000838
109 0.000831
110 0.000823
111 0.000812
112 0.000808
113 0.000805
114 0.000803
115 0.000801
116 0.000803
117 0.000805
118 0.000804
119 0.000796
120 0.000789
121 0.000784
122 0.000775
123 0.000778
124 0.000777
125 0.000775
126 0.000775
127 0.000780
128 0.000781
129 0.000779
130 0.000773
131 0.000763
132 0.000751
133 0.000742
134 0.000730
135 0.000724
136 0.000720
137 0.000718
138 0.000714
139 0.000712
140 0.000710
141 0.000713
142 0.000717
143 0.000715
144 0.000719
145 0.000717
146 0.000716
147 0.000723
148 0.000722
149 0.000723
150 0.000720
151 0.000712
152 0.000704
153 0.000699
154 0.000695
155 0.000694
156 0.000691
157 0.000690
158 0.000686
159 0.000678
160 0.000667
161 0.000661
162 0.000654
163 0.000650
164 0.000639
165 0.000631
166 0.000630
167 0.000629
168 0.000629
169 0.000629
170 0.000631
171 0.000639
172 0.000636
173 0.000634
174 0.000638
175 0.000640
176 0.000638
177 0.000639
178 0.000634
179 0.000631
180 0.000626
181 0.000633
182 0.000630
183 0.000630
184 0.000629
185 0.000630
186 0.000625
187 0.000631
188 0.000631
189 0.000634
190 0.000637
191 0.000642
192 0.000642
193 0.000643
194 0.000640
195 0.000638
196 0.000634
197 0.000630
198 0.000623
199 0.000618
200 0.000621
201 0.000626
202 0.000634
203 0.000641
204 0.000641
205 0.000643
206 0.000640
207 0.000636
208 0.000641
209 0.000641
210 0.000641
211 0.000641
212 0.000634
213 0.000630
214 0.000631
215 0.000629
216 0.000625
217 0.000617
218 0.000608
219 0.000599
220 0.000589
221 0.000585
222 0.000575
223 0.000572
224 0.000572
225 0.000572
226 0.000568
227 0.000567
228 0.000563
229 0.000563
230 0.000564
231 0.000567
232 0.000572
233 0.000572
234 0.000580
235 0.000583
236 0.000578
237 0.000569
238 0.000564
239 0.000559
240 0.000552
241 0.000547
242 0.000541
243 0.000533
244 0.000526
245 0.000521
246 0.000517
247 0.000509
248 0.000500
249 0.000491
