# i correlation
1 0.001727
2 0.001666
3 0.001618
4 0.001575
5 0.001540
6 0.001510
7 0.001489
8 0.001471
9 0.001464
10 0.001451
11 0.001437
12 0.001413
13 0.001391
14 0.001373
15 0.001353
16 0.001333
17 0.001310
18 0.001293
19 0.001283
20 0.001274
21 0.001260
22 0.001248
23 0.001238
24 0.001222
25 0.001210
26 0.001201
27 0.001196
28 0.001197
29 0.001199
30 0.001208
31 0.001213
32 0.001217
33 0.001223
34 0.001229
35 0.001228
36 0.001215
37 0.001215
38 0.001208
39 0.001196
40 0.001185
41 0.001182
42 0.001181
43 0.001175
44 0.001173
45 0.001167
46 0.001160
47 0.001154
48 0.001143
49 0.001126
50 0.001113
51 0.001100
52 0.001093
53 0.001093
54 0.001090
55 0.001085
56 0.001078
57 0.001074
58 0.001070
59 0.001056
60 0.001036
61 0.001024
62 0.001014
63 0.001014
64 0.001018
65 0.001019
66 0.001011
67 0.001004
68 0.001000
69 0.000998
70 0.000996
71 0.000994
72 0.000995
73 0.000996
74 0.000998
75 0.001000
76 0.000998
77 0.000996
78 0.000993
79 0.000995
80 0.000996
81 0.000991
82 0.000981
83 0.000978
84 0.000972
85 0.000965
86 0.000957
87 0.000947
88 0.000942
89 0.000932
90 0.000920
91 0.000908
92 0.000897
93 0.000891
94 0.000882
95 0.000876
96 0.000867
97 0.000859
98 0.000852
99 0.000851
100 0.000846
101 0.000836
102 0.000829
103 0.000819
104 0.000805
105 0.000793
106 0.000785
107 0.000781
108 0.000780
109 0.000783
110 0.000789
111 0.000795
112 0.000798
113 0.000795
114 0.000786
115 0.000774
116 0.000764
117 0.000753
118 0.000753
119 0.000749
120 0.000747
121 0.000743
122 0.000743
123 0.000745
124 0.000742
125 0.000740
126 0.000740
127 0.000739
128 0.000734
129 0.000723
130 0.000719
131 0.000713
132 0.000709
133 0.000707
134 0.000705
135 0.000699
136 0.000690
137 0.000679
138 0.000666
139 0.000654
140 0.000642
141 0.000641
142 0.000640
143 0.000632
144 0.000626
145 0.000619
146 0.000616
147 0.000614
148 0.000604
149 0.000602
150 0.000596
151 0.000588
152 0.000583
153 0.000581
154 0.000577
155 0.000576
156 0.000576
157 0.000578
158 0.000583
159 0.000582
160 0.000586
161 0.000586
162 0.000584
163 0.000577
164 0.000574
165 0.000570
166 0.000566
167 0.000564
168 0.000559
169 0.000557
170 0.000558
171 0.000560
172 0.000560
173 0.000562
174 0.000565
175 0.000565
176 0.000571
177 0.000566
178 0.000562
179 0.000563
180 0.000564
181 0.000566
182 0.000573
183 0.000579
184 0.000585
185 0.000591
186 0.000592
187 0.000595
188 0.000592
189 0.000590
190 0.000586
191 0.000583
192 0.000579
193 0.000576
194 0.000573
195 0.000570
196 0.000567
197 0.000563
198 0.000560
199 0.000560
200 0.000552
201 0.000541
202 0.000535
203 0.000527
204 0.000519
205 0.000515
206 0.000516
207 0.000522
208 0.000527
209 0.000533
210 0.000533
211 0.000537
212 0.000534
213 0.000536
214 0.000544
215 0.000552
216 0.000557
217 0.000562
218 0.000569
219 0.000569
220 0.000565
221 0.000560
222 0.000557
223 0.000557
224 0.000564
225 0.000572
226 0.000574
227 0.000579
228 0.000580
229 0.000578
230 0.000575
231 0.000569
232 0.000562
233 0.000557
234 0.000552
235 0.000546
236 0.000544
237 0.000542
238 0.000541
239 0.000534
240 0.000530
241 0.000530
242 0.000527
243 0.000523
244 0.000520
245 0.000514
246 0.000507
247 0.000498
248 0.000492
249 0.000487
