# i correlation
1 0.001553
2 0.001503
3 0.001455
4 0.001420
5 0.001381
6 0.001352
7 0.001329
8 0.001306
9 0.001282
10 0.001262
11 0.001246
12 0.001225
13 0.001207
14 0.001192
15 0.001175
16 0.001159
17 0.001147
18 0.001135
19 0.001123
20 0.001114
21 0.001103
22 0.001095
23 0.001083
24 0.001073
25 0.001056
26 0.001049
27 0.001037
28 0.001025
29 0.001010
30 0.001001
31 0.001001
32 0.000995
33 0.000992
34 0.000984
35 0.000968
36 0.000954
37 0.000944
38 0.000936
39 0.000930
40 0.000922
41 0.000912
42 0.000906
43 0.000896
44 0.000889
45 0.000879
46 0.000871
47 0.000862
48 0.000859
49 0.000854
50 0.000852
51 0.000847
52 0.000845
53 0.000843
54 0.000838
55 0.000838
56 0.000840
57 0.000837
58 0.000830
59 0.000829
60 0.000824
61 0.000820
62 0.000805
63 0.000799
64 0.000789
65 0.000786
66 0.000777
67 0.000773
68 0.000770
69 0.000770
70 0.000771
71 0.000773
72 0.000774
73 0.000773
74 0.000769
75 0.000763
76 0.000756
77 0.000747
78 0.000737
79 0.000736
80 0.000733
81 0.000732
82 0.000731
83 0.000727
84 0.000724
85 0.000724
86 0.000720
87 0.000717
88 0.000714
89 0.000713
90 0.000713
91 0.000709
92 0.000705
93 0.000704
94 0.000701
95 0.000698
96 0.000696
97 0.000694
98 0.000690
99 0.000693
100 0.000695
101 0.000699
102 0.000696
103 0.000705
104 0.000707
105 0.000703
106 0.000701
107 0.000705
108 0.000708
109 0.000703
110 0.000700
111 0.000693
112 0.000691
113 0.000688
114 0.000688
115 0.000687
116 0.000692
117 0.000694
118 0.000691
119 0.000689
120 0.000685
121 0.000681
122 0.000679
123 0.000677
124 0.000676
125 0.000676
126 0.000675
127 0.000675
128 0.000680
129 0.000679
130 0.000684
131 0.000681
132 0.000683
133 0.000686
134 0.000688
135 0.000682
136 0.000679
137 0.000671
138 0.000664
139 0.000659
140 0.000658
141 0.000654
142 0.000649
143 0.000645
144 0.000641
145 0.000636
146 0.000640
147 0.000644
148 0.000646
149 0.000644
150 0.000646
151 0.000647
152 0.000645
153 0.000639
154 0.000638
155 0.000635
156 0.000632
157 0.000626
158 0.000628
159 0.000628
160 0.000628
161 0.000629
162 0.000632
163 0.000635
164 0.000635
165 0.000634
166 0.000634
167 0.000640
168 0.000640
169 0.000636
170 0.000636
171 0.000636
172 0.000639
173 0.000643
174 0.000649
175 0.000652
176 0.000649
177 0.000644
178 0.000647
179 0.000647
180 0.000645
181 0.000644
182 0.000641
183 0.000637
184 0.000630
185 0.000624
186 0.000618
187 0.000614
188 0.000607
189 0.000607
190 0.000599
191 0.000596
192 0.000592
193 0.000597
194 0.000602
195 0.000604
196 0.000607
197 0.000611
198 0.000617
199 0.000621
200 0.000625
201 0.000631
202 0.000632
203 0.000632
204 0.000632
205 0.000633
206 0.000635
207 0.000644
208 0.000642
209 0.000639
210 0.000628
211 0.000624
212 0.000614
213 0.000603
214 0.000592
215 0.000595
216 0.000597
217 0.000604
218 0.000611
219 0.000613
220 0.000610
221 0.000604
222 0.000598
223 0.000594
224 0.000587
225 0.000579
226 0.000573
227 0.000568
228 0.000557
229 0.000550
230 0.000545
231 0.000544
232 0.000541
233 0.000541
234 0.000534
235 0.000530
236 0.000521
237 0.000512
238 0.000508
239 0.000510
240 0.000510
241 0.000507
242 0.000504
243 0.000501
244 0.000499
245 0.000495
246 0.000490
247 0.000491
248 0.000490
249 0.000497
