# i correlation
1 0.001704
2 0.001646
3 0.001600
4 0.001568
5 0.001537
6 0.001506
7 0.001479
8 0.001453
9 0.001440
10 0.001431
11 0.001426
12 0.001419
13 0.001413
14 0.001405
15 0.001397
16 0.001386
17 0.001366
18 0.001353
19 0.001346
20 0.001344
21 0.001338
22 0.001335
23 0.001334
24 0.001326
25 0.001325
26 0.001316
27 0.001304
28 0.001291
29 0.001273
30 0.001260
31 0.001242
32 0.001223
33 0.001202
34 0.001189
35 0.001183
36 0.001183
37 0.001177
38 0.001177
39 0.001175
40 0.001176
41 0.001181
42 0.001179
43 0.001175
44 0.001166
45 0.001157
46 0.001148
47 0.001135
48 0.001130
49 0.001128
50 0.001125
51 0.001118
52 0.001111
53 0.001104
54 0.001093
55 0.001076
56 0.001068
57 0.001056
58 0.001045
59 0.001034
60 0.001021
61 0.001016
62 0.001015
63 0.001019
64 0.001021
65 0.001017
66 0.001019
67 0.001015
68 0.001011
69 0.001006
70 0.000995
71 0.000988
72 0.000979
73 0.000973
74 0.000967
75 0.000964
76 0.000961
77 0.000956
78 0.000957
79 0.000963
80 0.000970
81 0.000972
82 0.000978
83 0.000977
84 0.000985
85 0.000983
86 0.000983
87 0.000983
88 0.000987
89 0.000996
90 0.001000
91 0.001005
92 0.001003
93 0.001003
94 0.001007
95 0.001014
96 0.001015
97 0.001013
98 0.001005
99 0.000999
100 0.000987
101 0.000979
102 0.000975
103 0.000971
104 0.000968
105 0.000964
106 0.000960
107 0.000956
108 0.000952
109 0.000952
110 0.000953
111 0.000946
112 0.000941
113 0.000937
114 0.000933
115 0.000937
116 0.000941
117 0.000948
118 0.000948
119 0.000949
120 0.000948
121 0.000949
122 0.000954
123 0.000953
124 0.000948
125 0.000944
126 0.000938
127 0.000927
128 0.000926
129 0.000929
130 0.000928
131 0.000923
132 0.000921
133 0.000921
134 0.000918
135 0.000918
136 0.000916
137 0.000914
138 0.000915
139 0.000915
140 0.000918
141 0.000915
142 0.000918
143 0.000920
144 0.000920
145 0.000924
146 0.000924
147 0.000922
148 0.000917
149 0.000909
150 0.000897
151 0.000888
152 0.000880
153 0.000871
154 0.000865
155 0.000862
156 0.000853
157 0.000846
158 0.000845
159 0.000846
160 0.000847
161 0.000846
162 0.000843
163 0.000834
164 0.000830
165 0.000827
166 0.000824
167 0.000820
168 0.000821
169 0.000821
170 0.000815
171 0.000818
172 0.000815
173 0.000816
174 0.000810
175 0.000803
176 0.000794
177 0.000791
178 0.000795
179 0.000801
180 0.000805
181 0.000805
182 0.000800
183 0.000802
184 0.000807
185 0.000814
186 0.000814
187 0.000812
188 0.000807
189 0.000804
190 0.000798
191 0.000792
192 0.000787
193 0.000784
194 0.000782
195 0.000783
196 0.000786
197 0.000787
198 0.000785
199 0.000781
200 0.000776
201 0.000777
202 0.000771
203 0.000762
204 0.000756
205 0.000747
206 0.000737
207 0.000729
208 0.000729
209 0.000730
210 0.000732
211 0.000736
212 0.000735
213 0.000734
214 0.000730
215 0.000726
216 0.000716
217 0.000706
218 0.000702
219 0.000699
220 0.000700
221 0.000699
222 0.000700
223 0.000697
224 0.000697
225 0.000699
226 0.000697
227 0.000695
228 0.000690
229 0.000689
230 0.000687
231 0.000683
232 0.000678
233 0.000675
234 0.000678
235 0.000685
236 0.000691
237 0.000694
238 0.000698
239 0.000701
240 0.000707
241 0.000708
242 0.000711
243 0.000715
244 0.000722
245 0.000726
246 0.000726
247 0.000726
248 0.000723
249 0.000721
