# i correlation
1 0.001801
2 0.001735
3 0.001693
4 0.001652
5 0.001619
6 0.001591
7 0.001562
8 0.001535
9 0.001509
10 0.001492
11 0.001468
12 0.001450
13 0.001439
14 0.001432
15 0.001427
16 0.001431
17 0.001430
18 0.001423
19 0.001423
20 0.001423
21 0.001414
22 0.001402
23 0.001384
24 0.001368
25 0.001353
26 0.001337
27 0.001323
28 0.001314
29 0.001310
30 0.001298
31 0.001284
32 0.001277
33 0.001269
34 0.001263
35 0.001253
36 0.001244
37 0.001232
38 0.001226
39 0.001213
40 0.001205
41 0.001193
42 0.001177
43 0.001166
44 0.001154
45 0.001140
46 0.001129
47 0.001116
48 0.001112
49 0.001112
50 0.001106
51 0.001100
52 0.001099
53 0.001100
54 0.001098
55 0.001096
56 0.001090
57 0.001087
58 0.001087
59 0.001091
60 0.001092
61 0.001088
62 0.001084
63 0.001086
64 0.001083
65 0.001082
66 0.001072
67 0.001050
68 0.001036
69 0.001034
70 0.001029
71 0.001024
72 0.001019
73 0.001021
74 0.001026
75 0.001028
76 0.001027
77 0.001021
78 0.001018
79 0.001024
80 0.001027
81 0.001031
82 0.001032
83 0.001031
84 0.001037
85 0.001050
86 0.001052
87 0.001051
88 0.001051
89 0.001048
90 0.001050
91 0.001053
92 0.001050
93 0.001052
94 0.001049
95 0.001048
96 0.001044
97 0.001039
98 0.001037
99 0.001032
100 0.001025
101 0.001018
102 0.001012
103 0.001006
104 0.000995
105 0.000986
106 0.000982
107 0.000979
108 0.000976
109 0.000976
110 0.000975
111 0.000971
112 0.000968
113 0.000967
114 0.000964
115 0.000955
116 0.000941
117 0.000932
118 0.000928
119 0.000931
120 0.000932
121 0.000924
122 0.000914
123 0.000907
124 0.000902
125 0.000894
126 0.000882
127 0.000873
128 0.000868
129 0.000860
130 0.000849
131 0.000839
132 0.000826
133 0.000816
134 0.000814
135 0.000809
136 0.000801
137 0.000796
138 0.000791
139 0.000790
140 0.000791
141 0.000791
142 0.000785
143 0.000778
144 0.000774
145 0.000772
146 0.000764
147 0.000748
148 0.000736
149 0.000724
150 0.000717
151 0.000708
152 0.000699
153 0.000695
154 0.000688
155 0.000680
156 0.000681
157 0.000677
158 0.000676
159 0.000675
160 0.000671
161 0.000668
162 0.000670
163 0.000665
164 0.000656
165 0.000653
166 0.000655
167 0.000653
168 0.000647
169 0.000634
170 0.000625
171 0.000622
172 0.000626
173 0.000628
174 0.000624
175 0.000630
176 0.000637
177 0.000639
178 0.000644
179 0.000646
180 0.000643
181 0.000645
182 0.000646
183 0.000647
184 0.000645
185 0.000644
186 0.000645
187 0.000641
188 0.000634
189 0.000629
190 0.000623
191 0.000617
192 0.000611
193 0.000604
194 0.000602
195 0.000595
196 0.000590
197 0.000592
198 0.000592
199 0.000596
200 0.000596
201 0.000597
202 0.000597
203 0.000595
204 0.000600
205 0.000610
206 0.000617
207 0.000623
208 0.000624
209 0.000628
210 0.000630
211 0.000636
212 0.000634
213 0.000628
214 0.000621
215 0.000618
216 0.000616
217 0.000609
218 0.000608
219 0.000613
220 0.000608
221 0.000610
222 0.000614
223 0.000608
224 0.000603
225 0.000604
226 0.000601
227 0.000600
228 0.000601
229 0.000592
230 0.000591
231 0.000598
232 0.000602
233 0.000602
234 0.000598
235 0.000588
236 0.000578
237 0.000577
238 0.000579
239 0.000581
240 0.000587
241 0.000598
242 0.000603
243 0.000605
244 0.000602
245 0.000600
246 0.000596
247 0.000597
248 0.000601
249 0.000601
