# i correlation
1 0.001635
2 0.001570
3 0.001519
4 0.001475
5 0.001443
6 0.001410
7 0.001380
8 0.001345
9 0.001302
10 0.001271
11 0.001241
12 0.001220
13 0.001200
14 0.001166
15 0.001142
16 0.001122
17 0.001107
18 0.001092
19 0.001074
20 0.001065
21 0.001055
22 0.001044
23 0.001044
24 0.001043
25 0.001041
26 0.001029
27 0.001016
28 0.001005
29 0.001000
30 0.001000
31 0.001003
32 0.000998
33 0.001002
34 0.001000
35 0.000990
36 0.000976
37 0.000969
38 0.000970
39 0.000974
40 0.000977
41 0.000974
42 0.000973
43 0.000971
44 0.000966
45 0.000964
46 0.000966
47 0.000957
48 0.000953
49 0.000947
50 0.000943
51 0.000938
52 0.000933
53 0.000929
54 0.000921
55 0.000911
56 0.000903
57 0.000892
58 0.000886
59 0.000886
60 0.000879
61 0.000867
62 0.000854
63 0.000846
64 0.000848
65 0.000847
66 0.000842
67 0.000837
68 0.000834
69 0.000832
70 0.000828
71 0.000824
72 0.000826
73 0.000822
74 0.000816
75 0.000813
76 0.000818
77 0.000825
78 0.000823
79 0.000818
80 0.000814
81 0.000808
82 0.000806
83 0.000803
84 0.000806
85 0.000812
86 0.000804
87 0.000801
88 0.000804
89 0.000809
90 0.000803
91 0.000787
92 0.000782
93 0.000778
94 0.000775
95 0.000772
96 0.000765
97 0.000760
98 0.000766
99 0.000775
100 0.000787
101 0.000793
102 0.000795
103 0.000790
104 0.000777
105 0.000770
106 0.000763
107 0.000760
108 0.000759
109 0.000756
110 0.000747
111 0.000743
112 0.000738
113 0.000737
114 0.000738
115 0.000740
116 0.000740
117 0.000739
118 0.000739
119 0.000739
120 0.000745
121 0.000748
122 0.000749
123 0.000748
124 0.000748
125 0.000749
126 0.000745
127 0.000745
128 0.000746
129 0.000745
130 0.000743
131 0.000745
132 0.000748
133 0.000750
134 0.000750
135 0.000749
136 0.000745
137 0.000740
138 0.000740
139 0.000739
140 0.000742
141 0.000749
142 0.000750
143 0.000748
144 0.000741
145 0.000738
146 0.000735
147 0.000736
148 0.000740
149 0.000741
150 0.000737
151 0.000731
152 0.000725
153 0.000728
154 0.000729
155 0.000724
156 0.000719
157 0.000716
158 0.000716
159 0.000718
160 0.000715
161 0.000709
162 0.000708
163 0.000703
164 0.000701
165 0.000699
166 0.000697
167 0.000696
168 0.000693
169 0.000687
170 0.000683
171 0.000681
172 0.000672
173 0.000661
174 0.000657
175 0.000653
176 0.000647
177 0.000636
178 0.000626
179 0.000612
180 0.000604
181 0.000595
182 0.000591
183 0.000586
184 0.000579
185 0.000566
186 0.000554
187 0.000553
188 0.000558
189 0.000554
190 0.000546
191 0.000528
192 0.000512
193 0.000504
194 0.000490
195 0.000479
196 0.000468
197 0.000455
198 0.000441
199 0.000425
200 0.000415
201 0.000413
202 0.000408
203 0.000407
204 0.000406
205 0.000409
206 0.000403
207 0.000393
208 0.000390
209 0.000384
210 0.000379
211 0.000380
212 0.000378
213 0.000381
214 0.000384
215 0.000383
216 0.000382
217 0.000382
218 0.000386
219 0.000391
220 0.000394
221 0.000408
222 0.000418
223 0.000431
224 0.000444
225 0.000444
226 0.000450
227 0.000455
228 0.000459
229 0.000461
230 0.000465
231 0.000468
232 0.000472
233 0.000471
234 0.000473
235 0.000475
236 0.000480
237 0.000478
238 0.000476
239 0.000474
240 0.000473
241 0.000471
242 0.000469
243 0.000467
244 0.000464
245 0.000450
246 0.000443
247 0.000445
248 0.000452
249 0.000454
