# i correlation
1 0.001728
2 0.001666
3 0.001608
4 0.001555
5 0.001513
6 0.001471
7 0.001440
8 0.001418
9 0.001397
10 0.001375
11 0.001355
12 0.001342
13 0.001326
14 0.001310
15 0.001301
16 0.001294
17 0.001289
18 0.001286
19 0.001283
20 0.001273
21 0.001264
22 0.001252
23 0.001240
24 0.001228
25 0.001215
26 0.001212
27 0.001210
28 0.001207
29 0.001207
30 0.001207
31 0.001204
32 0.001192
33 0.001181
34 0.001177
35 0.001178
36 0.001174
37 0.001167
38 0.001164
39 0.001162
40 0.001160
41 0.001164
42 0.001166
43 0.001161
44 0.001158
45 0.001158
46 0.001158
47 0.001162
48 0.001163
49 0.001164
50 0.001168
51 0.001164
52 0.001161
53 0.001152
54 0.001138
55 0.001120
56 0.001104
57 0.001089
58 0.001068
59 0.001048
60 0.001028
61 0.001017
62 0.001008
63 0.001003
64 0.000999
65 0.001000
66 0.001003
67 0.000996
68 0.000987
69 0.000975
70 0.000962
71 0.000954
72 0.000946
73 0.000942
74 0.000936
75 0.000942
76 0.000951
77 0.000957
78 0.000961
79 0.000956
80 0.000950
81 0.000950
82 0.000947
83 0.000947
84 0.000945
85 0.000939
86 0.000938
87 0.000933
88 0.000927
89 0.000921
90 0.000918
91 0.000912
92 0.000911
93 0.000902
94 0.000898
95 0.000896
96 0.000899
97 0.000901
98 0.000897
99 0.000896
100 0.000896
101 0.000902
102 0.000907
103 0.000911
104 0.000910
105 0.000904
106 0.000892
107 0.000878
108 0.000869
109 0.000858
110 0.000847
111 0.000834
112 0.000821
113 0.000812
114 0.000801
115 0.000792
116 0.000783
117 0.000773
118 0.000767
119 0.000752
120 0.000739
121 0.000727
122 0.000711
123 0.000701
124 0.000693
125 0.000692
126 0.000687
127 0.000686
128 0.000689
129 0.000695
130 0.000702
131 0.000707
132 0.000709
133 0.000713
134 0.000706
135 0.000696
136 0.000688
137 0.000683
138 0.000680
139 0.000673
140 0.000665
141 0.000656
142 0.000654
143 0.000650
144 0.000654
145 0.000657
146 0.000659
147 0.000660
148 0.000655
149 0.000651
150 0.000649
151 0.000646
152 0.000643
153 0.000642
154 0.000649
155 0.000656
156 0.000661
157 0.000662
158 0.000651
159 0.000643
160 0.000634
161 0.000618
162 0.000606
163 0.000595
164 0.000586
165 0.000577
166 0.000573
167 0.000570
168 0.000566
169 0.000560
170 0.000549
171 0.000542
172 0.000539
173 0.000540
174 0.000547
175 0.000554
176 0.000557
177 0.000556
178 0.000555
179 0.000552
180 0.000555
181 0.000561
182 0.000567
183 0.000573
184 0.000580
185 0.000590
186 0.000603
187 0.000613
188 0.000619
189 0.000614
190 0.000612
191 0.000614
192 0.000611
193 0.000611
194 0.000608
195 0.000607
196 0.000615
197 0.000615
198 0.000612
199 0.000608
200 0.000602
201 0.000594
202 0.000586
203 0.000577
204 0.000576
205 0.000578
206 0.000579
207 0.000583
208 0.000587
209 0.000594
210 0.000604
211 0.000609
212 0.000613
213 0.000618
214 0.000621
215 0.000618
216 0.000610
217 0.000603
218 0.000590
219 0.000576
220 0.000563
221 0.000555
222 0.000553
223 0.000547
224 0.000537
225 0.000524
226 0.000510
227 0.000500
228 0.000495
229 0.000493
230 0.000492
231 0.000495
232 0.000508
233 0.000518
234 0.000533
235 0.000539
236 0.000539
237 0.000540
238 0.000537
239 0.000530
240 0.000526
241 0.000529
242 0.000526
243 0.000527
244 0.000525
245 0.000522
246 0.000522
247 0.000519
248 0.000514
249 0.000516
