# i correlation
1 0.002225
2 0.002166
3 0.002111
4 0.002069
5 0.002024
6 0.001985
7 0.001953
8 0.001927
9 0.001898
10 0.001866
11 0.001840
12 0.001813
13 0.001788
14 0.001760
15 0.001737
16 0.001720
17 0.001704
18 0.001693
19 0.001676
20 0.001659
21 0.001642
22 0.001622
23 0.001619
24 0.001616
25 0.001607
26 0.001598
27 0.001595
28 0.001588
29 0.001584
30 0.001571
31 0.001562
32 0.001549
33 0.001541
34 0.001533
35 0.001518
36 0.001504
37 0.001494
38 0.001482
39 0.001472
40 0.001463
41 0.001453
42 0.001445
43 0.001440
44 0.001439
45 0.001433
46 0.001422
47 0.001410
48 0.001405
49 0.001404
50 0.001403
51 0.001394
52 0.001385
53 0.001378
54 0.001372
55 0.001358
56 0.001345
57 0.001338
58 0.001330
59 0.001315
60 0.001299
61 0.001291
62 0.001281
63 0.001277
64 0.001274
65 0.001280
66 0.001283
67 0.001291
68 0.001294
69 0.001302
70 0.001303
71 0.001307
72 0.001320
73 0.001340
74 0.001361
75 0.001377
76 0.001389
77 0.001404
78 0.001414
79 0.001420
80 0.001410
81 0.001405
82 0.001397
83 0.001386
84 0.001380
85 0.001382
86 0.001380
87 0.001380
88 0.001378
89 0.001368
90 0.001358
91 0.001342
92 0.001334
93 0.001323
94 0.001304
95 0.001291
96 0.001276
97 0.001264
98 0.001250
99 0.001234
100 0.001224
101 0.001215
102 0.001215
103 0.001217
104 0.001215
105 0.001213
106 0.001213
107 0.001203
108 0.001197
109 0.001184
110 0.001180
111 0.001176
112 0.001172
113 0.001163
114 0.001151
115 0.001137
116 0.001128
117 0.001121
118 0.001116
119 0.001115
120 0.001106
121 0.001102
122 0.001095
123 0.001093
124 0.001095
125 0.001083
126 0.001077
127 0.001068
128 0.001057
129 0.001043
130 0.001038
131 0.001038
132 0.001042
133 0.001038
134 0.001039
135 0.001041
136 0.001041
137 0.001036
138 0.001028
139 0.001021
140 0.001016
141 0.001010
142 0.001004
143 0.000999
144 0.000998
145 0.000997
146 0.000995
147 0.000991
148 0.000991
149 0.000989
150 0.000988
151 0.000990
152 0.000988
153 0.000993
154 0.000998
155 0.001008
156 0.001010
157 0.001017
158 0.001019
159 0.001018
160 0.001023
161 0.001029
162 0.001039
163 0.001043
164 0.001052
165 0.001058
166 0.001062
167 0.001067
168 0.001068
169 0.001073
170 0.001074
171 0.001069
172 0.001064
173 0.001052
174 0.001043
175 0.001035
176 0.001030
177 0.001034
178 0.001037
179 0.001039
180 0.001045
181 0.001049
182 0.001051
183 0.001051
184 0.001042
185 0.001043
186 0.001035
187 0.001024
188 0.001008
189 0.000998
190 0.000991
191 0.000981
192 0.000971
193 0.000966
194 0.000953
195 0.000948
196 0.000942
197 0.000939
198 0.000933
199 0.000927
200 0.000922
201 0.000925
202 0.000926
203 0.000924
204 0.000920
205 0.000916
206 0.000909
207 0.000893
208 0.000887
209 0.000886
210 0.000882
211 0.000880
212 0.000877
213 0.000874
214 0.000872
215 0.000863
216 0.000858
217 0.000848
218 0.000838
219 0.000834
220 0.000839
221 0.000838
222 0.000841
223 0.000840
224 0.000836
225 0.000825
226 0.000822
227 0.000814
228 0.000808
229 0.000812
230 0.000818
231 0.000824
232 0.000828
233 0.000828
234 0.000826
235 0.000823
236 0.000823
237 0.000824
238 0.000825
239 0.000825
240 0.000823
241 0.000818
242 0.000820
243 0.000819
244 0.000820
245 0.000821
246 0.000826
247 0.000830
248 0.000827
249 0.000826
