# i correlation
1 0.001607
2 0.001550
3 0.001494
4 0.001445
5 0.001412
6 0.001380
7 0.001354
8 0.001334
9 0.001312
10 0.001290
11 0.001269
12 0.001248
13 0.001230
14 0.001213
15 0.001200
16 0.001190
17 0.001177
18 0.001164
19 0.001150
20 0.001136
21 0.001128
22 0.001122
23 0.001123
24 0.001120
25 0.001118
26 0.001116
27 0.001119
28 0.001117
29 0.001113
30 0.001106
31 0.001095
32 0.001085
33 0.001082
34 0.001081
35 0.001082
36 0.001076
37 0.001067
38 0.001061
39 0.001055
40 0.001047
41 0.001042
42 0.001031
43 0.001029
44 0.001021
45 0.001016
46 0.001014
47 0.001014
48 0.001015
49 0.001016
50 0.001013
51 0.001004
52 0.001000
53 0.000990
54 0.000978
55 0.000972
56 0.000962
57 0.000958
58 0.000958
59 0.000955
60 0.000958
61 0.000964
62 0.000971
63 0.000969
64 0.000974
65 0.000974
66 0.000970
67 0.000959
68 0.000952
69 0.000945
70 0.000939
71 0.000932
72 0.000927
73 0.000922
74 0.000918
75 0.000913
76 0.000907
77 0.000902
78 0.000903
79 0.000898
80 0.000898
81 0.000904
82 0.000907
83 0.000910
84 0.000909
85 0.000907
86 0.000901
87 0.000900
88 0.000895
89 0.000891
90 0.000881
91 0.000874
92 0.000864
93 0.000855
94 0.000848
95 0.000839
96 0.000833
97 0.000821
98 0.000808
99 0.000802
100 0.000791
101 0.000782
102 0.000773
103 0.000764
104 0.000765
105 0.000773
106 0.000778
107 0.000786
108 0.000793
109 0.000797
110 0.000799
111 0.000801
112 0.000806
113 0.000815
114 0.000823
115 0.000830
116 0.000838
117 0.000843
118 0.000847
119 0.000855
120 0.000854
121 0.000858
122 0.000864
123 0.000862
124 0.000861
125 0.000856
126 0.000853
127 0.000848
128 0.000839
129 0.000832
130 0.000836
131 0.000838
132 0.000840
133 0.000839
134 0.000839
135 0.000838
136 0.000838
137 0.000831
138 0.000825
139 0.000819
140 0.000816
141 0.000808
142 0.000803
143 0.000798
144 0.000790
145 0.000785
146 0.000781
147 0.000775
148 0.000770
149 0.000770
150 0.000760
151 0.000750
152 0.000738
153 0.000725
154 0.000718
155 0.000711
156 0.000707
157 0.000711
158 0.000714
159 0.000719
160 0.000717
161 0.000711
162 0.000705
163 0.000704
164 0.000700
165 0.000700
166 0.000696
167 0.000697
168 0.000696
169 0.000701
170 0.000704
171 0.000714
172 0.000716
173 0.000721
174 0.000725
175 0.000726
176 0.000724
177 0.000721
178 0.000713
179 0.000709
180 0.000699
181 0.000690
182 0.000686
183 0.000688
184 0.000691
185 0.000689
186 0.000685
187 0.000684
188 0.000684
189 0.000683
190 0.000686
191 0.000691
192 0.000699
193 0.000708
194 0.000714
195 0.000719
196 0.000724
197 0.000730
198 0.000731
199 0.000726
200 0.000728
201 0.000726
202 0.000732
203 0.000739
204 0.000741
205 0.000742
206 0.000738
207 0.000732
208 0.000725
209 0.000718
210 0.000701
211 0.000682
212 0.000668
213 0.000652
214 0.000638
215 0.000628
216 0.000617
217 0.000612
218 0.000611
219 0.000603
220 0.000600
221 0.000598
222 0.000590
223 0.000587
224 0.000588
225 0.000587
226 0.000584
227 0.000583
228 0.000579
229 0.000575
230 0.000568
231 0.000564
232 0.000563
233 0.000558
234 0.000553
235 0.000554
236 0.000556
237 0.000558
238 0.000558
239 0.000562
240 0.000570
241 0.000579
242 0.000588
243 0.000593
244 0.000600
245 0.000605
246 0.000607
247 0.000610
248 0.000608
249 0.000602
