# i correlation
1 0.001878
2 0.001812
3 0.001762
4 0.001722
5 0.001686
6 0.001661
7 0.001643
8 0.001625
9 0.001615
10 0.001604
11 0.001596
12 0.001595
13 0.001592
14 0.001588
15 0.001578
16 0.001566
17 0.001554
18 0.001546
19 0.001533
20 0.001519
21 0.001509
22 0.001503
23 0.001497
24 0.001496
25 0.001494
26 0.001491
27 0.001486
28 0.001472
29 0.001453
30 0.001437
31 0.001430
32 0.001418
33 0.001416
34 0.001412
35 0.001410
36 0.001404
37 0.001396
38 0.001399
39 0.001404
40 0.001403
41 0.001394
42 0.001387
43 0.001379
44 0.001379
45 0.001383
46 0.001388
47 0.001387
48 0.001386
49 0.001380
50 0.001374
51 0.001372
52 0.001364
53 0.001355
54 0.001345
55 0.001343
56 0.001340
57 0.001342
58 0.001338
59 0.001330
60 0.001324
61 0.001315
62 0.001306
63 0.001294
64 0.001282
65 0.001270
66 0.001259
67 0.001259
68 0.001253
69 0.001247
70 0.001236
71 0.001230
72 0.001223
73 0.001213
74 0.001206
75 0.001198
76 0.001192
77 0.001184
78 0.001182
79 0.001181
80 0.001177
81 0.001173
82 0.001163
83 0.001151
84 0.001143
85 0.001143
86 0.001138
87 0.001129
88 0.001123
89 0.001112
90 0.001103
91 0.001099
92 0.001095
93 0.001093
94 0.001097
95 0.001096
96 0.001096
97 0.001094
98 0.001092
99 0.001091
100 0.001093
101 0.001099
102 0.001104
103 0.001105
104 0.001106
105 0.001106
106 0.001111
107 0.001115
108 0.001112
109 0.001117
110 0.001118
111 0.001112
112 0.001106
113 0.001105
114 0.001103
115 0.001106
116 0.001106
117 0.001104
118 0.001104
119 0.001108
120 0.001108
121 0.001109
122 0.001096
123 0.001082
124 0.001066
125 0.001058
126 0.001049
127 0.001044
128 0.001044
129 0.001046
130 0.001052
131 0.001061
132 0.001064
133 0.001068
134 0.001070
135 0.001072
136 0.001073
137 0.001075
138 0.001072
139 0.001070
140 0.001068
141 0.001062
142 0.001056
143 0.001058
144 0.001059
145 0.001060
146 0.001058
147 0.001055
148 0.001054
149 0.001050
150 0.001045
151 0.001043
152 0.001041
153 0.001037
154 0.001042
155 0.001048
156 0.001052
157 0.001051
158 0.001050
159 0.001052
160 0.001048
161 0.001052
162 0.001051
163 0.001048
164 0.001042
165 0.001044
166 0.001047
167 0.001046
168 0.001043
169 0.001043
170 0.001043
171 0.001043
172 0.001040
173 0.001040
174 0.001032
175 0.001018
176 0.001007
177 0.001000
178 0.000994
179 0.000996
180 0.001002
181 0.001006
182 0.001001
183 0.000997
184 0.000988
185 0.000983
186 0.000973
187 0.000972
188 0.000970
189 0.000964
190 0.000962
191 0.000954
192 0.000945
193 0.000940
194 0.000938
195 0.000939
196 0.000936
197 0.000936
198 0.000935
199 0.000933
200 0.000933
201 0.000927
202 0.000920
203 0.000911
204 0.000900
205 0.000893
206 0.000891
207 0.000890
208 0.000889
209 0.000887
210 0.000877
211 0.000872
212 0.000874
213 0.000877
214 0.000876
215 0.000878
216 0.000883
217 0.000880
218 0.000875
219 0.000869
220 0.000859
221 0.000852
222 0.000847
223 0.000842
224 0.000831
225 0.000829
226 0.000821
227 0.000815
228 0.000811
229 0.000809
230 0.000809
231 0.000812
232 0.000810
233 0.000805
234 0.000802
235 0.000792
236 0.000780
237 0.000769
238 0.000763
239 0.000755
240 0.000751
241 0.000747
242 0.000749
243 0.000744
244 0.000739
245 0.000739
246 0.000741
247 0.000746
248 0.000743
249 0.000740
