# i correlation
1 0.001914
2 0.001850
3 0.001798
4 0.001752
5 0.001713
6 0.001679
7 0.001652
8 0.001634
9 0.001625
10 0.001615
11 0.001605
12 0.001591
13 0.001577
14 0.001556
15 0.001541
16 0.001524
17 0.001505
18 0.001496
19 0.001487
20 0.001472
21 0.001454
22 0.001442
23 0.001425
24 0.001408
25 0.001392
26 0.001370
27 0.001352
28 0.001332
29 0.001316
30 0.001300
31 0.001289
32 0.001279
33 0.001271
34 0.001259
35 0.001247
36 0.001235
37 0.001221
38 0.001213
39 0.001203
40 0.001196
41 0.001197
42 0.001202
43 0.001207
44 0.001218
45 0.001223
46 0.001218
47 0.001213
48 0.001212
49 0.001212
50 0.001202
51 0.001188
52 0.001179
53 0.001180
54 0.001179
55 0.001177
56 0.001176
57 0.001177
58 0.001181
59 0.001183
60 0.001186
61 0.001185
62 0.001182
63 0.001181
64 0.001191
65 0.001199
66 0.001209
67 0.001224
68 0.001226
69 0.001220
70 0.001204
71 0.001193
72 0.001180
73 0.001167
74 0.001159
75 0.001149
76 0.001143
77 0.001148
78 0.001157
79 0.001153
80 0.001153
81 0.001151
82 0.001150
83 0.001144
84 0.001139
85 0.001136
86 0.001129
87 0.001121
88 0.001118
89 0.001116
90 0.001113
91 0.001110
92 0.001104
93 0.001097
94 0.001083
95 0.001073
96 0.001066
97 0.001056
98 0.001059
99 0.001061
100 0.001060
101 0.001062
102 0.001066
103 0.001075
104 0.001081
105 0.001084
106 0.001090
107 0.001103
108 0.001113
109 0.001128
110 0.001133
111 0.001136
112 0.001140
113 0.001138
114 0.001133
115 0.001127
116 0.001120
117 0.001113
118 0.001104
119 0.001100
120 0.001100
121 0.001096
122 0.001087
123 0.001081
124 0.001070
125 0.001065
126 0.001066
127 0.001066
128 0.001070
129 0.001076
130 0.001077
131 0.001080
132 0.001080
133 0.001073
134 0.001069
135 0.001064
136 0.001061
137 0.001053
138 0.001048
139 0.001048
140 0.001041
141 0.001033
142 0.001027
143 0.001027
144 0.001019
145 0.001013
146 0.001009
147 0.001001
148 0.000998
149 0.000994
150 0.000988
151 0.000983
152 0.000978
153 0.000970
154 0.000963
155 0.000959
156 0.000958
157 0.000955
158 0.000956
159 0.000951
160 0.000948
161 0.000940
162 0.000932
163 0.000924
164 0.000915
165 0.000913
166 0.000909
167 0.000904
168 0.000899
169 0.000896
170 0.000894
171 0.000891
172 0.000883
173 0.000884
174 0.000879
175 0.000871
176 0.000873
177 0.000871
178 0.000868
179 0.000862
180 0.000856
181 0.000850
182 0.000840
183 0.000838
184 0.000838
185 0.000839
186 0.000838
187 0.000845
188 0.000851
189 0.000853
190 0.000852
191 0.000841
192 0.000836
193 0.000828
194 0.000818
195 0.000807
196 0.000800
197 0.000788
198 0.000784
199 0.000782
200 0.000776
201 0.000767
202 0.000760
203 0.000758
204 0.000745
205 0.000735
206 0.000726
207 0.000725
208 0.000722
209 0.000718
210 0.000721
211 0.000724
212 0.000727
213 0.000724
214 0.000719
215 0.000713
216 0.000707
217 0.000696
218 0.000695
219 0.000692
220 0.000687
221 0.000689
222 0.000689
223 0.000689
224 0.000687
225 0.000683
226 0.000678
227 0.000674
228 0.000672
229 0.000670
230 0.000663
231 0.000657
232 0.000657
233 0.000653
234 0.000653
235 0.000647
236 0.000640
237 0.000627
238 0.000620
239 0.000610
240 0.000599
241 0.000589
242 0.000583
243 0.000578
244 0.000575
245 0.000573
246 0.000571
247 0.000568
248 0.000572
249 0.000569
