# i correlation
1 0.001966
2 0.001895
3 0.001833
4 0.001785
5 0.001748
6 0.001716
7 0.001682
8 0.001643
9 0.001614
10 0.001583
11 0.001555
12 0.001529
13 0.001508
14 0.001494
15 0.001481
16 0.001470
17 0.001466
18 0.001464
19 0.001465
20 0.001462
21 0.001453
22 0.001442
23 0.001433
24 0.001418
25 0.001402
26 0.001386
27 0.001376
28 0.001361
29 0.001351
30 0.001346
31 0.001342
32 0.001335
33 0.001329
34 0.001322
35 0.001317
36 0.001316
37 0.001314
38 0.001313
39 0.001314
40 0.001313
41 0.001313
42 0.001307
43 0.001292
44 0.001282
45 0.001274
46 0.001261
47 0.001244
48 0.001230
49 0.001224
50 0.001220
51 0.001216
52 0.001208
53 0.001197
54 0.001177
55 0.001165
56 0.001154
57 0.001146
58 0.001146
59 0.001144
60 0.001138
61 0.001132
62 0.001125
63 0.001118
64 0.001115
65 0.001121
66 0.001133
67 0.001142
68 0.001147
69 0.001147
70 0.001138
71 0.001135
72 0.001139
73 0.001144
74 0.001142
75 0.001138
76 0.001134
77 0.001130
78 0.001129
79 0.001120
80 0.001113
81 0.001104
82 0.001103
83 0.001106
84 0.001108
85 0.001107
86 0.001107
87 0.001107
88 0.001107
89 0.001117
90 0.001126
91 0.001131
92 0.001124
93 0.001114
94 0.001101
95 0.001083
96 0.001069
97 0.001061
98 0.001054
99 0.001046
100 0.001043
101 0.001042
102 0.001044
103 0.001044
104 0.001045
105 0.001045
106 0.001047
107 0.001056
108 0.001057
109 0.001056
110 0.001056
111 0.001062
112 0.001064
113 0.001067
114 0.001051
115 0.001031
116 0.001016
117 0.001005
118 0.000991
119 0.000977
120 0.000963
121 0.000953
122 0.000952
123 0.000942
124 0.000937
125 0.000932
126 0.000926
127 0.000919
128 0.000909
129 0.000892
130 0.000876
131 0.000861
132 0.000849
133 0.000838
134 0.000828
135 0.000817
136 0.000804
137 0.000789
138 0.000779
139 0.000775
140 0.000775
141 0.000778
142 0.000777
143 0.000777
144 0.000771
145 0.000769
146 0.000768
147 0.000760
148 0.000754
149 0.000753
150 0.000753
151 0.000754
152 0.000751
153 0.000747
154 0.000740
155 0.000733
156 0.000724
157 0.000716
158 0.000713
159 0.000707
160 0.000700
161 0.000695
162 0.000696
163 0.000695
164 0.000690
165 0.000687
166 0.000677
167 0.000669
168 0.000667
169 0.000665
170 0.000656
171 0.000657
172 0.000655
173 0.000655
174 0.000654
175 0.000652
176 0.000653
177 0.000654
178 0.000662
179 0.000667
180 0.000672
181 0.000669
182 0.000665
183 0.000658
184 0.000654
185 0.000657
186 0.000656
187 0.000651
188 0.000648
189 0.000642
190 0.000640
191 0.000642
192 0.000640
193 0.000634
194 0.000632
195 0.000635
196 0.000643
197 0.000651
198 0.000658
199 0.000657
200 0.000653
201 0.000654
202 0.000657
203 0.000661
204 0.000667
205 0.000671
206 0.000667
207 0.000667
208 0.000670
209 0.000676
210 0.000677
211 0.000679
212 0.000678
213 0.000682
214 0.000690
215 0.000698
216 0.000706
217 0.000708
218 0.000709
219 0.000710
220 0.000709
221 0.000707
222 0.000694
223 0.000681
224 0.000677
225 0.000662
226 0.000653
227 0.000642
228 0.000632
229 0.000630
230 0.000636
231 0.000642
232 0.000649
233 0.000648
234 0.000641
235 0.000637
236 0.000632
237 0.000628
238 0.000628
239 0.000627
240 0.000619
241 0.000614
242 0.000607
243 0.000600
244 0.000592
245 0.000585
246 0.000577
247 0.000574
248 0.000565
249 0.000559
