# i correlation
1 0.001564
2 0.001495
3 0.001433
4 0.001384
5 0.001329
6 0.001284
7 0.001252
8 0.001220
9 0.001195
10 0.001178
11 0.001160
12 0.001144
13 0.001130
14 0.001117
15 0.001097
16 0.001078
17 0.001065
18 0.001054
19 0.001043
20 0.001029
21 0.001023
22 0.001020
23 0.001023
24 0.001020
25 0.001020
26 0.001019
27 0.001014
28 0.001004
29 0.001000
30 0.000995
31 0.000982
32 0.000972
33 0.000967
34 0.000958
35 0.000940
36 0.000930
37 0.000925
38 0.000920
39 0.000910
40 0.000905
41 0.000900
42 0.000891
43 0.000886
44 0.000878
45 0.000860
46 0.000844
47 0.000826
48 0.000814
49 0.000802
50 0.000793
51 0.000789
52 0.000794
53 0.000799
54 0.000794
55 0.000790
56 0.000786
57 0.000778
58 0.000768
59 0.000764
60 0.000754
61 0.000747
62 0.000732
63 0.000729
64 0.000720
65 0.000706
66 0.000706
67 0.000708
68 0.000713
69 0.000716
70 0.000718
71 0.000716
72 0.000706
73 0.000698
74 0.000692
75 0.000688
76 0.000676
77 0.000667
78 0.000662
79 0.000648
80 0.000646
81 0.000644
82 0.000650
83 0.000654
84 0.000657
85 0.000661
86 0.000663
87 0.000662
88 0.000656
89 0.000649
90 0.000646
91 0.000638
92 0.000641
93 0.000643
94 0.000636
95 0.000632
96 0.000635
97 0.000635
98 0.000626
99 0.000615
100 0.000605
101 0.000598
102 0.000586
103 0.000581
104 0.000578
105 0.000575
106 0.000571
107 0.000572
108 0.000572
109 0.000571
110 0.000565
111 0.000566
112 0.000567
113 0.000569
114 0.000570
115 0.000570
116 0.000559
117 0.000543
118 0.000526
119 0.000504
120 0.000486
121 0.000476
122 0.000464
123 0.000455
124 0.000447
125 0.000443
126 0.000437
127 0.000438
128 0.000441
129 0.000442
130 0.000442
131 0.000438
132 0.000433
133 0.000430
134 0.000423
135 0.000413
136 0.000408
137 0.000406
138 0.000408
139 0.000408
140 0.000407
141 0.000412
142 0.000412
143 0.000406
144 0.000397
145 0.000393
146 0.000390
147 0.000382
148 0.000375
149 0.000373
150 0.000373
151 0.000378
152 0.000377
153 0.000376
154 0.000379
155 0.000382
156 0.000383
157 0.000380
158 0.000373
159 0.000365
160 0.000361
161 0.000353
162 0.000349
163 0.000342
164 0.000341
165 0.000343
166 0.000346
167 0.000352
168 0.000355
169 0.000350
170 0.000356
171 0.000366
172 0.000373
173 0.000380
174 0.000388
175 0.000398
176 0.000397
177 0.000394
178 0.000394
179 0.000391
180 0.000383
181 0.000383
182 0.000388
183 0.000392
184 0.000396
185 0.000404
186 0.000409
187 0.000410
188 0.000409
189 0.000410
190 0.000409
191 0.000404
192 0.000401
193 0.000394
194 0.000383
195 0.000371
196 0.000363
197 0.000356
198 0.000351
199 0.000345
200 0.000340
201 0.000339
202 0.000338
203 0.000335
204 0.000340
205 0.000352
206 0.000357
207 0.000361
208 0.000374
209 0.000379
210 0.000383
211 0.000381
212 0.000381
213 0.000381
214 0.000378
215 0.000378
216 0.000372
217 0.000366
218 0.000362
219 0.000361
220 0.000357
221 0.000352
222 0.000351
223 0.000355
224 0.000349
225 0.000348
226 0.000344
227 0.000343
228 0.000342
229 0.000337
230 0.000328
231 0.000327
232 0.000322
233 0.000310
234 0.000303
235 0.000298
236 0.000292
237 0.000285
238 0.000290
239 0.000288
240 0.000283
241 0.000275
242 0.000278
243 0.000283
244 0.000286
245 0.000291
246 0.000293
247 0.000295
248 0.000299
249 0.000300
