# i correlation
1 0.001829
2 0.001764
3 0.001711
4 0.001667
5 0.001628
6 0.001592
7 0.001561
8 0.001535
9 0.001515
10 0.001497
11 0.001484
12 0.001478
13 0.001473
14 0.001469
15 0.001460
16 0.001451
17 0.001438
18 0.001431
19 0.001421
20 0.001407
21 0.001395
22 0.001388
23 0.001379
24 0.001373
25 0.001370
26 0.001370
27 0.001373
28 0.001367
29 0.001360
30 0.001347
31 0.001337
32 0.001333
33 0.001329
34 0.001315
35 0.001300
36 0.001292
37 0.001298
38 0.001305
39 0.001307
40 0.001310
41 0.001306
42 0.001302
43 0.001303
44 0.001303
45 0.001306
46 0.001306
47 0.001301
48 0.001296
49 0.001290
50 0.001279
51 0.001276
52 0.001270
53 0.001259
54 0.001249
55 0.001234
56 0.001216
57 0.001205
58 0.001199
59 0.001191
60 0.001185
61 0.001174
62 0.001170
63 0.001165
64 0.001161
65 0.001161
66 0.001157
67 0.001155
68 0.001152
69 0.001148
70 0.001152
71 0.001154
72 0.001156
73 0.001155
74 0.001150
75 0.001153
76 0.001152
77 0.001153
78 0.001158
79 0.001160
80 0.001163
81 0.001159
82 0.001155
83 0.001153
84 0.001149
85 0.001133
86 0.001126
87 0.001121
88 0.001114
89 0.001106
90 0.001106
91 0.001107
92 0.001111
93 0.001114
94 0.001113
95 0.001109
96 0.001107
97 0.001108
98 0.001108
99 0.001108
100 0.001108
101 0.001097
102 0.001088
103 0.001081
104 0.001073
105 0.001062
106 0.001057
107 0.001047
108 0.001042
109 0.001042
110 0.001041
111 0.001035
112 0.001025
113 0.001020
114 0.001015
115 0.001014
116 0.001017
117 0.001022
118 0.001021
119 0.001018
120 0.001013
121 0.001002
122 0.000995
123 0.000988
124 0.000983
125 0.000979
126 0.000979
127 0.000977
128 0.000979
129 0.000984
130 0.000984
131 0.000982
132 0.000977
133 0.000971
134 0.000956
135 0.000942
136 0.000928
137 0.000915
138 0.000901
139 0.000888
140 0.000876
141 0.000872
142 0.000876
143 0.000882
144 0.000890
145 0.000899
146 0.000900
147 0.000898
148 0.000893
149 0.000887
150 0.000882
151 0.000881
152 0.000870
153 0.000857
154 0.000847
155 0.000837
156 0.000826
157 0.000814
158 0.000811
159 0.000809
160 0.000805
161 0.000800
162 0.000796
163 0.000793
164 0.000791
165 0.000789
166 0.000790
167 0.000786
168 0.000784
169 0.000781
170 0.000780
171 0.000779
172 0.000778
173 0.000781
174 0.000787
175 0.000790
176 0.000795
177 0.000799
178 0.000804
179 0.000806
180 0.000801
181 0.000793
182 0.000790
183 0.000788
184 0.000780
185 0.000773
186 0.000769
187 0.000769
188 0.000777
189 0.000778
190 0.000786
191 0.000794
192 0.000801
193 0.000808
194 0.000813
195 0.000820
196 0.000823
197 0.000819
198 0.000815
199 0.000810
200 0.000803
201 0.000794
202 0.000786
203 0.000778
204 0.000772
205 0.000768
206 0.000765
207 0.000758
208 0.000756
209 0.000755
210 0.000764
211 0.000767
212 0.000770
213 0.000772
214 0.000771
215 0.000770
216 0.000772
217 0.000779
218 0.000786
219 0.000785
220 0.000781
221 0.000778
222 0.000771
223 0.000762
224 0.000751
225 0.000742
226 0.000734
227 0.000723
228 0.000717
229 0.000713
230 0.000708
231 0.000708
232 0.000710
233 0.000719
234 0.000726
235 0.000722
236 0.000714
237 0.000714
238 0.000712
239 0.000710
240 0.000706
241 0.000699
242 0.000699
243 0.000699
244 0.000696
245 0.000694
246 0.000696
247 0.000702
248 0.000701
249 0.000695
