# i correlation
1 0.001905
2 0.001842
3 0.001789
4 0.001744
5 0.001708
6 0.001686
7 0.001664
8 0.001651
9 0.001635
10 0.001624
11 0.001612
12 0.001608
13 0.001599
14 0.001591
15 0.001581
16 0.001571
17 0.001563
18 0.001553
19 0.001538
20 0.001527
21 0.001514
22 0.001508
23 0.001504
24 0.001497
25 0.001494
26 0.001484
27 0.001466
28 0.001450
29 0.001440
30 0.001433
31 0.001423
32 0.001409
33 0.001393
34 0.001387
35 0.001385
36 0.001381
37 0.001374
38 0.001362
39 0.001353
40 0.001356
41 0.001362
42 0.001368
43 0.001376
44 0.001377
45 0.001368
46 0.001356
47 0.001347
48 0.001333
49 0.001330
50 0.001328
51 0.001328
52 0.001325
53 0.001325
54 0.001325
55 0.001329
56 0.001319
57 0.001304
58 0.001288
59 0.001272
60 0.001257
61 0.001245
62 0.001229
63 0.001215
64 0.001206
65 0.001194
66 0.001191
67 0.001194
68 0.001190
69 0.001188
70 0.001181
71 0.001180
72 0.001186
73 0.001197
74 0.001200
75 0.001206
76 0.001205
77 0.001195
78 0.001186
79 0.001176
80 0.001168
81 0.001165
82 0.001155
83 0.001147
84 0.001140
85 0.001131
86 0.001121
87 0.001119
88 0.001116
89 0.001108
90 0.001107
91 0.001104
92 0.001102
93 0.001105
94 0.001106
95 0.001106
96 0.001115
97 0.001123
98 0.001134
99 0.001145
100 0.001152
101 0.001153
102 0.001148
103 0.001143
104 0.001137
105 0.001138
106 0.001139
107 0.001143
108 0.001142
109 0.001144
110 0.001144
111 0.001146
112 0.001151
113 0.001154
114 0.001148
115 0.001147
116 0.001147
117 0.001141
118 0.001146
119 0.001152
120 0.001152
121 0.001153
122 0.001148
123 0.001145
124 0.001150
125 0.001150
126 0.001148
127 0.001146
128 0.001145
129 0.001142
130 0.001141
131 0.001138
132 0.001137
133 0.001131
134 0.001129
135 0.001131
136 0.001130
137 0.001128
138 0.001118
139 0.001104
140 0.001094
141 0.001087
142 0.001085
143 0.001082
144 0.001078
145 0.001073
146 0.001071
147 0.001067
148 0.001066
149 0.001065
150 0.001077
151 0.001086
152 0.001094
153 0.001097
154 0.001100
155 0.001099
156 0.001095
157 0.001086
158 0.001075
159 0.001067
160 0.001065
161 0.001060
162 0.001057
163 0.001048
164 0.001035
165 0.001023
166 0.001011
167 0.000994
168 0.000982
169 0.000972
170 0.000961
171 0.000954
172 0.000953
173 0.000958
174 0.000962
175 0.000963
176 0.000964
177 0.000966
178 0.000961
179 0.000960
180 0.000955
181 0.000953
182 0.000948
183 0.000942
184 0.000932
185 0.000930
186 0.000926
187 0.000927
188 0.000929
189 0.000932
190 0.000935
191 0.000937
192 0.000932
193 0.000933
194 0.000929
195 0.000921
196 0.000919
197 0.000917
198 0.000910
199 0.000908
200 0.000903
201 0.000900
202 0.000890
203 0.000885
204 0.000878
205 0.000876
206 0.000876
207 0.000872
208 0.000867
209 0.000870
210 0.000864
211 0.000860
212 0.000857
213 0.000852
214 0.000847
215 0.000847
216 0.000844
217 0.000845
218 0.000843
219 0.000841
220 0.000835
221 0.000828
222 0.000823
223 0.000824
224 0.000827
225 0.000833
226 0.000840
227 0.000841
228 0.000846
229 0.000850
230 0.000855
231 0.000849
232 0.000847
233 0.000847
234 0.000851
235 0.000852
236 0.000854
237 0.000855
238 0.000854
239 0.000843
240 0.000837
241 0.000830
242 0.000824
243 0.000811
244 0.000799
245 0.000791
246 0.000785
247 0.000776
248 0.000776
249 0.000775
