# i correlation
1 0.014487
2 0.011663
3 0.009442
4 0.007508
5 0.006195
6 0.004955
7 0.004041
8 0.003595
9 0.003339
10 0.003176
11 0.003011
12 0.002765
13 0.002513
14 0.001934
15 0.001578
16 0.001192
17 0.000852
18 0.000759
19 0.000798
20 0.000712
21 0.000546
22 0.000267
23 -0.000201
24 -0.000815
25 -0.001463
26 -0.001782
27 -0.001727
28 -0.001248
29 -0.000720
30 -0.000492
31 -0.000419
32 -0.000438
33 -0.000220
34 -0.000167
35 -0.000274
36 -0.000462
37 -0.000676
38 -0.000884
39 -0.000864
40 -0.000718
41 -0.000415
42 -0.000089
43 -0.000080
44 -0.000064
45 0.000005
46 -0.000061
47 -0.000106
48 0.000159
49 0.000279
50 0.000717
51 0.001294
52 0.001659
53 0.002020
54 0.001899
55 0.001831
56 0.001760
57 0.001487
58 0.001250
59 0.001263
60 0.001328
61 0.001585
62 0.001667
63 0.001412
64 0.001117
65 0.000679
66 0.000105
67 -0.000501
68 -0.000736
69 -0.000983
70 -0.001357
71 -0.001729
72 -0.001665
73 -0.001527
74 -0.001413
75 -0.001603
76 -0.001806
77 -0.001827
78 -0.001856
79 -0.002133
80 -0.002557
81 -0.002535
82 -0.002375
83 -0.001879
84 -0.001547
85 -0.001349
86 -0.001174
87 -0.001100
88 -0.001098
89 -0.000821
90 -0.000707
91 -0.000788
92 -0.000522
93 -0.000096
94 0.000455
95 0.000613
96 0.000871
97 0.001194
98 0.000985
99 0.000713
100 0.000268
101 0.000207
102 0.000155
103 0.000291
104 0.000714
105 0.001113
106 0.001485
107 0.002028
108 0.002350
109 0.002159
110 0.001718
111 0.001387
112 0.001339
113 0.001212
114 0.000999
115 0.000753
116 0.000776
117 0.000864
118 0.000712
119 0.000580
120 0.000604
121 0.000448
122 0.000134
123 -0.000170
124 -0.000076
125 0.000061
126 0.000312
127 0.000045
128 -0.000096
129 -0.000238
130 -0.000513
131 -0.000818
132 -0.001346
133 -0.001923
134 -0.002142
135 -0.002339
136 -0.002119
137 -0.002054
138 -0.001940
139 -0.001610
140 -0.001330
141 -0.000704
142 -0.000115
143 0.000274
144 0.000600
145 0.000739
146 0.000602
147 0.000670
148 0.000570
149 0.000600
150 0.000581
151 0.000522
152 0.000438
153 0.000284
154 0.000317
155 0.000542
156 0.000875
157 0.001051
158 0.001403
159 0.001802
160 0.002118
161 0.002328
162 0.002597
163 0.002649
164 0.002614
165 0.002404
166 0.001965
167 0.001765
168 0.001423
169 0.001196
170 0.001409
171 0.001384
172 0.001106
173 0.000820
174 0.000399
175 0.000252
176 0.000216
177 0.000266
178 0.000295
179 0.000385
180 0.000644
181 0.000756
182 0.000902
183 0.000747
184 0.000297
185 0.000006
186 -0.000411
187 -0.000983
188 -0.001531
189 -0.001858
190 -0.001939
191 -0.001832
192 -0.001867
193 -0.001798
194 -0.001725
195 -0.001650
196 -0.001752
197 -0.001644
198 -0.001288
199 -0.001199
200 -0.001059
201 -0.000731
202 -0.000404
203 0.000032
204 0.000557
205 0.000821
206 0.000889
207 0.000880
208 0.000836
209 0.001047
210 0.000970
211 0.001086
212 0.001496
213 0.001919
214 0.002426
215 0.002858
216 0.002755
217 0.002679
218 0.002481
219 0.002381
220 0.002293
221 0.001954
222 0.001776
223 0.001698
224 0.001610
225 0.001418
226 0.001301
227 0.001331
228 0.001347
229 0.000975
230 0.000560
231 0.000190
232 -0.000065
233 0.000218
234 0.000398
235 0.000446
236 0.000327
237 0.000353
238 0.000273
239 -0.000131
240 -0.000608
241 -0.001082
242 -0.001463
243 -0.001963
244 -0.002444
245 -0.002653
246 -0.002584
247 -0.002508
248 -0.002049
249 -0.001350
250 -0.000924
251 -0.000735
252 -0.000460
253 -0.000101
254 0.000234
255 0.000292
256 0.000444
257 0.000699
258 0.001059
259 0.001258
260 0.001326
261 0.001139
262 0.001015
263 0.000953
264 0.001035
265 0.001278
266 0.001744
267 0.002170
268 0.002489
269 0.002694
270 0.002623
271 0.002784
272 0.002589
273 0.002103
274 0.001580
275 0.001340
276 0.001132
277 0.001218
278 0.001253
279 0.001396
280 0.001416
281 0.001388
282 0.001300
283 0.001120
284 0.000822
285 0.000329
286 0.000001
287 0.000003
288 0.000141
289 0.000185
290 0.000398
291 0.000403
292 0.000319
293 0.000117
294 -0.000141
295 -0.000183
296 -0.000119
297 -0.000237
298 -0.000174
299 -0.000006
300 -0.000131
301 0.000028
302 0.000215
303 0.000307
304 0.000095
305 -0.000378
306 -0.000611
307 -0.000820
308 -0.000895
309 -0.000643
310 -0.000494
311 0.000100
312 0.000739
313 0.000920
314 0.001170
315 0.001119
316 0.001036
317 0.000977
318 0.000756
319 0.000795
320 0.001008
321 0.001211
322 0.001506
323 0.001735
324 0.001999
325 0.002032
326 0.001992
327 0.002207
328 0.002087
329 0.001762
330 0.001404
331 0.001290
332 0.001627
333 0.001647
334 0.001407
335 0.001041
336 0.000667
337 0.000106
338 -0.000615
339 -0.001066
340 -0.001225
341 -0.001081
342 -0.000833
343 -0.000613
344 -0.000489
345 -0.000326
346 -0.000220
347 -0.000244
348 -0.000352
349 -0.000493
350 -0.000669
351 -0.000805
352 -0.001075
353 -0.001050
354 -0.000942
355 -0.000843
356 -0.000670
357 -0.000574
358 -0.000581
359 -0.000721
360 -0.000663
361 -0.000588
362 -0.000339
363 -0.000126
364 0.000132
365 0.000583
366 0.000704
367 0.000634
368 0.000305
369 -0.000018
370 -0.000262
371 -0.000437
372 -0.000597
373 -0.000640
374 -0.000357
375 0.000034
376 0.000624
377 0.001166
378 0.001716
379 0.002309
380 0.002702
381 0.002663
382 0.002583
383 0.002354
384 0.002484
385 0.002702
386 0.002800
387 0.002579
388 0.002176
389 0.001901
390 0.001555
391 0.001220
392 0.000957
393 0.000846
394 0.000789
395 0.000811
396 0.000773
397 0.000954
398 0.000891
399 0.000794
400 0.000758
401 0.000907
402 0.000654
403 0.000214
404 -0.000397
405 -0.000713
406 -0.000807
407 -0.000729
408 -0.000478
409 -0.000249
410 0.000010
411 0.000214
412 0.000147
413 0.000234
414 0.000206
415 0.000259
416 0.000334
417 0.000212
418 0.000321
419 0.000526
420 0.000733
421 0.000926
422 0.000942
423 0.000893
424 0.000913
425 0.000690
426 0.000572
427 0.000645
428 0.000787
429 0.000946
430 0.001134
431 0.001194
432 0.001112
433 0.000700
434 0.000191
435 -0.000008
436 0.000006
437 0.000202
438 0.000351
439 0.000623
440 0.000973
441 0.001082
442 0.001106
443 0.001078
444 0.000775
445 0.000352
446 -0.000071
447 -0.000393
448 -0.000501
449 -0.000630
450 -0.000707
451 -0.000712
452 -0.000860
453 -0.000954
454 -0.001118
455 -0.001354
456 -0.001601
457 -0.001705
458 -0.001748
459 -0.001886
460 -0.001963
461 -0.001905
462 -0.001868
463 -0.001529
464 -0.001394
465 -0.001513
466 -0.001553
467 -0.001781
468 -0.001921
469 -0.001637
470 -0.001382
471 -0.001085
472 -0.000731
473 -0.000375
474 -0.000246
475 0.000101
476 0.000338
477 0.000396
478 0.000432
479 0.000644
480 0.000773
481 0.000739
482 0.000740
483 0.000667
484 0.000731
485 0.000656
486 0.000731
487 0.000831
488 0.000814
489 0.000711
490 0.000665
491 0.001170
492 0.001601
493 0.001877
494 0.002043
495 0.001892
496 0.001740
497 0.001468
498 0.001263
499 0.001145
500 0.000930
501 0.000519
502 0.000327
503 0.000285
504 0.000412
505 0.000597
506 0.000771
507 0.000881
508 0.001040
509 0.001124
510 0.001173
511 0.001017
512 0.000751
513 0.000429
514 0.000124
515 0.000021
516 -0.000165
517 -0.000426
518 -0.000693
519 -0.000979
520 -0.001023
521 -0.000727
522 -0.000569
523 -0.000377
524 -0.000074
525 0.000240
526 0.000529
527 0.000685
528 0.000725
529 0.000850
530 0.000620
531 0.000478
532 0.000364
533 0.000374
534 0.000402
535 0.000329
536 0.000384
537 0.000564
538 0.000624
539 0.000561
540 0.000456
541 0.000266
542 0.000026
543 -0.000234
544 -0.000147
545 -0.000104
546 -0.000159
547 -0.000040
548 0.000202
549 0.000532
550 0.000609
551 0.000384
552 0.000208
553 -0.000088
554 -0.000455
555 -0.000644
556 -0.000586
557 -0.000421
558 -0.000427
559 -0.000442
560 -0.000444
561 -0.000285
562 -0.000147
563 -0.000055
564 -0.000217
565 -0.000143
566 -0.000140
567 -0.000171
568 -0.000158
569 -0.000109
570 -0.000024
571 0.000012
572 -0.000071
573 -0.000302
574 -0.000442
575 -0.000633
576 -0.000794
577 -0.000763
578 -0.000707
579 -0.000657
580 -0.000250
581 0.000234
582 0.000617
583 0.000886
584 0.001152
585 0.001439
586 0.001608
587 0.001548
588 0.001509
589 0.001540
590 0.001526
591 0.001636
592 0.001683
593 0.001706
594 0.001638
595 0.001636
596 0.001441
597 0.001211
598 0.001133
599 0.001269
600 0.001534
601 0.001636
602 0.001605
603 0.001540
604 0.001318
605 0.001163
606 0.001018
607 0.000777
608 0.000725
609 0.000600
610 0.000550
611 0.000639
612 0.000681
613 0.000867
614 0.001049
615 0.001029
616 0.001007
617 0.000841
618 0.000773
619 0.000762
620 0.000624
621 0.000424
622 0.000361
623 0.000411
624 0.000310
625 0.000176
626 -0.000087
627 -0.000397
628 -0.000507
629 -0.000565
630 -0.000647
631 -0.000716
632 -0.000771
633 -0.000749
634 -0.000558
635 -0.000229
636 0.000122
637 0.000295
638 0.000371
639 0.000467
640 0.000522
641 0.000590
642 0.000800
643 0.000941
644 0.001018
645 0.001145
646 0.001436
647 0.001504
648 0.001476
649 0.001374
650 0.001296
651 0.001301
652 0.001318
653 0.001205
654 0.001085
655 0.001061
656 0.000954
657 0.000886
658 0.000703
659 0.000576
660 0.000405
661 0.000311
662 0.000281
663 -0.000010
664 -0.000078
665 -0.000073
666 -0.000205
667 -0.000456
668 -0.000527
669 -0.000442
670 -0.000202
671 -0.000213
672 -0.000327
673 -0.000361
674 -0.000224
675 -0.000141
676 -0.000223
677 -0.000273
678 -0.000197
679 -0.000202
680 -0.000135
681 -0.000072
682 -0.000037
683 -0.000139
684 -0.000247
685 -0.000238
686 -0.000537
687 -0.000757
688 -0.000806
689 -0.000856
690 -0.000844
691 -0.000694
692 -0.000535
693 -0.000383
694 -0.000400
695 -0.000625
696 -0.000797
697 -0.000863
698 -0.000819
699 -0.000822
700 -0.000888
701 -0.000766
702 -0.000648
703 -0.000555
704 -0.000526
705 -0.000595
706 -0.000503
707 -0.000372
708 -0.000311
709 -0.000350
710 -0.000208
711 -0.000059
712 0.000062
713 0.000065
714 -0.000069
715 -0.000143
716 -0.000286
717 -0.000429
718 -0.000563
719 -0.000617
720 -0.000675
721 -0.000679
722 -0.000668
723 -0.000685
724 -0.000697
725 -0.000663
726 -0.000524
727 -0.000404
728 -0.000419
729 -0.000421
730 -0.000426
731 -0.000442
732 -0.000463
733 -0.000416
734 -0.000364
735 -0.000239
736 -0.000189
737 -0.000350
738 -0.000315
739 -0.000363
740 -0.000319
741 -0.000251
742 -0.000142
743 0.000090
744 0.000322
745 0.000418
746 0.000472
747 0.000498
748 0.000432
749 0.000397
750 0.000236
751 0.000144
752 0.000094
753 0.000040
754 -0.000008
755 -0.000143
756 -0.000141
757 -0.000141
758 -0.000279
759 -0.000376
760 -0.000384
761 -0.000291
762 -0.000068
763 0.000225
764 0.000487
765 0.000592
766 0.000683
767 0.000694
768 0.000677
769 0.000527
770 0.000421
771 0.000438
772 0.000535
773 0.000511
774 0.000586
775 0.000721
776 0.000808
777 0.000865
778 0.000947
779 0.000927
780 0.000807
781 0.000725
782 0.000623
783 0.000525
784 0.000391
785 0.000288
786 0.000342
787 0.000404
788 0.000323
789 0.000268
790 0.000357
791 0.000412
792 0.000355
793 0.000277
794 0.000224
795 0.000220
796 0.000319
797 0.000363
798 0.000435
799 0.000558
800 0.000677
801 0.000696
802 0.000756
803 0.000742
804 0.000748
805 0.000811
806 0.000859
807 0.000805
808 0.000795
809 0.000784
