# i correlation
1 0.018461
2 0.015712
3 0.013075
4 0.010744
5 0.009223
6 0.007634
7 0.006595
8 0.006091
9 0.005485
10 0.004746
11 0.004300
12 0.003822
13 0.003687
14 0.003597
15 0.003469
16 0.003762
17 0.003880
18 0.004150
19 0.004147
20 0.003681
21 0.002971
22 0.002115
23 0.001358
24 0.000734
25 0.000174
26 -0.000155
27 -0.000321
28 -0.000613
29 -0.000559
30 -0.000264
31 -0.000411
32 -0.000644
33 -0.000972
34 -0.001232
35 -0.001263
36 -0.001249
37 -0.001083
38 -0.000815
39 -0.000422
40 -0.000307
41 -0.000185
42 -0.000140
43 0.000074
44 0.000097
45 0.000095
46 0.000047
47 0.000003
48 -0.000157
49 -0.000291
50 -0.000620
51 -0.000812
52 -0.000990
53 -0.001079
54 -0.001095
55 -0.000900
56 -0.000507
57 0.000188
58 0.000971
59 0.001862
60 0.002533
61 0.002936
62 0.003109
63 0.003618
64 0.003662
65 0.003465
66 0.003219
67 0.002914
68 0.002827
69 0.002669
70 0.002565
71 0.002367
72 0.002184
73 0.001962
74 0.001877
75 0.001723
76 0.001545
77 0.001549
78 0.001508
79 0.001452
80 0.001326
81 0.000744
82 0.000196
83 -0.000265
84 -0.000756
85 -0.000854
86 -0.000849
87 -0.000454
88 -0.000321
89 -0.000514
90 -0.000518
91 -0.000661
92 -0.000643
93 -0.000543
94 -0.000753
95 -0.000719
96 -0.000922
97 -0.000849
98 -0.000495
99 -0.000523
100 -0.000702
101 -0.000882
102 -0.000770
103 -0.000702
104 -0.000513
105 -0.000179
106 0.000356
107 0.000682
108 0.000790
109 0.000748
110 0.000868
111 0.001010
112 0.000901
113 0.000983
114 0.000804
115 0.000961
116 0.000955
117 0.000984
118 0.001213
119 0.001436
120 0.001612
121 0.001752
122 0.001923
123 0.002133
124 0.002670
125 0.003029
126 0.003252
127 0.003200
128 0.003229
129 0.003285
130 0.003115
131 0.003171
132 0.003159
133 0.003067
134 0.003150
135 0.003004
136 0.002968
137 0.002720
138 0.002418
139 0.001849
140 0.001431
141 0.001101
142 0.000577
143 0.000330
144 -0.000190
145 -0.000413
146 -0.000725
147 -0.000983
148 -0.001119
149 -0.001222
150 -0.001258
151 -0.001205
152 -0.001073
153 -0.001240
154 -0.001586
155 -0.001969
156 -0.002505
157 -0.003032
158 -0.003611
159 -0.003962
160 -0.004183
161 -0.003918
162 -0.003294
163 -0.002677
164 -0.002323
165 -0.001775
166 -0.001313
167 -0.000814
168 -0.000599
169 -0.000521
170 -0.000340
171 -0.000166
172 -0.000131
173 -0.000196
174 -0.000639
175 -0.000840
176 -0.001013
177 -0.001267
178 -0.001161
179 -0.000949
180 -0.000404
181 0.000076
182 0.000510
183 0.001084
184 0.001365
185 0.001587
186 0.001844
187 0.002045
188 0.002079
189 0.002068
190 0.001692
191 0.001396
192 0.001292
193 0.001335
194 0.001486
195 0.001548
196 0.001797
197 0.001831
198 0.002040
199 0.002149
200 0.002337
201 0.002774
202 0.003039
203 0.003100
204 0.002993
205 0.003013
206 0.002978
207 0.002814
208 0.002641
209 0.002286
210 0.002304
211 0.002348
212 0.002299
213 0.002384
214 0.002142
215 0.001670
216 0.001124
217 0.000588
218 -0.000084
219 -0.000418
220 -0.000806
221 -0.000952
222 -0.001046
223 -0.000971
224 -0.000939
225 -0.000835
226 -0.000516
227 -0.000381
228 -0.000170
229 -0.000310
230 -0.000386
231 -0.000354
232 -0.000453
233 -0.000614
234 -0.000881
235 -0.000800
236 -0.000767
237 -0.000715
238 -0.000787
239 -0.000682
240 -0.000515
241 -0.000461
242 -0.000347
243 -0.000210
244 0.000023
245 0.000493
246 0.000838
247 0.000775
248 0.000605
249 0.000207
250 0.000159
251 -0.000006
252 -0.000125
253 0.000126
254 0.000097
255 -0.000139
256 -0.000307
257 -0.000351
258 -0.000271
259 -0.000034
260 0.000145
261 0.000318
262 0.000500
263 0.000647
264 0.000546
265 0.000373
266 0.000301
267 0.000037
268 -0.000592
269 -0.001056
270 -0.001042
271 -0.000779
272 -0.000559
273 -0.000502
274 -0.000424
275 -0.000413
276 -0.000453
277 -0.000479
278 -0.000461
279 -0.000534
280 -0.000395
281 -0.000235
282 -0.000176
283 0.000048
284 0.000183
285 0.000108
286 0.000050
287 -0.000354
288 -0.000447
289 -0.000445
290 -0.000537
291 -0.000508
292 -0.000343
293 -0.000055
294 -0.000059
295 -0.000255
296 -0.000480
297 -0.000560
298 -0.000865
299 -0.001263
300 -0.001285
301 -0.001139
302 -0.000905
303 -0.000695
304 -0.000310
305 0.000149
306 0.000313
307 0.000318
308 0.000275
309 -0.000025
310 -0.000406
311 -0.000721
312 -0.000871
313 -0.000944
314 -0.001135
315 -0.001421
316 -0.001477
317 -0.001718
318 -0.001869
319 -0.002127
320 -0.002192
321 -0.002033
322 -0.002046
323 -0.001842
324 -0.001549
325 -0.001308
326 -0.001023
327 -0.001239
328 -0.001359
329 -0.001706
330 -0.001925
331 -0.002173
332 -0.002109
333 -0.001922
334 -0.001774
335 -0.001524
336 -0.001465
337 -0.001189
338 -0.001054
339 -0.001025
340 -0.001098
341 -0.000936
342 -0.000929
343 -0.001019
344 -0.001139
345 -0.001218
346 -0.001031
347 -0.001036
348 -0.001026
349 -0.001162
350 -0.001272
351 -0.001021
352 -0.000888
353 -0.000923
354 -0.001152
355 -0.001192
356 -0.001212
357 -0.001251
358 -0.001399
359 -0.001554
360 -0.001758
361 -0.001879
362 -0.002225
363 -0.002341
364 -0.002214
365 -0.002064
366 -0.002139
367 -0.002265
368 -0.002213
369 -0.002051
370 -0.001704
371 -0.001411
372 -0.001212
373 -0.001016
374 -0.000963
375 -0.000940
376 -0.000839
377 -0.000839
378 -0.001045
379 -0.001166
380 -0.001457
381 -0.001747
382 -0.001641
383 -0.001604
384 -0.001577
385 -0.001642
386 -0.001897
387 -0.002078
388 -0.002166
389 -0.002327
390 -0.002320
391 -0.002055
392 -0.001910
393 -0.001824
394 -0.001674
395 -0.001518
396 -0.001496
397 -0.001586
398 -0.001532
399 -0.001426
400 -0.001279
401 -0.001247
402 -0.001255
403 -0.001291
404 -0.001265
405 -0.001375
406 -0.001256
407 -0.001116
408 -0.000710
409 -0.000183
410 0.000051
411 0.000390
412 0.000781
413 0.001098
414 0.001335
415 0.001683
416 0.001975
417 0.002069
418 0.002003
419 0.001656
420 0.001185
421 0.000612
422 0.000162
423 -0.000173
424 -0.000472
425 -0.000676
426 -0.000416
427 -0.000237
428 0.000000
429 -0.000048
430 -0.000130
431 -0.000164
432 -0.000176
433 -0.000074
434 0.000118
435 0.000150
436 0.000284
437 -0.000017
438 -0.000256
439 -0.000270
440 -0.000393
441 -0.000458
442 -0.000689
443 -0.000846
444 -0.001151
445 -0.001057
446 -0.001000
447 -0.000783
448 -0.000732
449 -0.000868
450 -0.000854
451 -0.001189
452 -0.001362
453 -0.001459
454 -0.001459
455 -0.001320
456 -0.001256
457 -0.001092
458 -0.000950
459 -0.000926
460 -0.001164
461 -0.001464
462 -0.001628
463 -0.001603
464 -0.001628
465 -0.001603
466 -0.001672
467 -0.001614
468 -0.001541
469 -0.001409
470 -0.001254
471 -0.000946
472 -0.000445
473 0.000348
474 0.001005
475 0.001595
476 0.002047
477 0.002525
478 0.002912
479 0.003018
480 0.002813
481 0.002508
482 0.002091
483 0.001776
484 0.001462
485 0.001243
486 0.001212
487 0.001270
488 0.001194
489 0.001199
490 0.001282
491 0.001353
492 0.001445
493 0.001620
494 0.001913
495 0.001902
496 0.001812
497 0.001633
498 0.001501
499 0.001507
500 0.001272
501 0.000883
502 0.000515
503 0.000288
504 0.000271
505 0.000197
506 0.000377
507 0.000314
508 0.000243
509 0.000105
510 -0.000262
511 -0.000737
512 -0.001205
513 -0.001472
514 -0.001691
515 -0.002019
516 -0.002171
517 -0.002326
518 -0.002462
519 -0.002266
520 -0.002106
521 -0.001912
522 -0.001831
523 -0.001936
524 -0.001967
525 -0.001961
526 -0.001865
527 -0.001949
528 -0.001887
529 -0.001876
530 -0.002074
531 -0.002298
532 -0.002530
533 -0.002578
534 -0.002505
535 -0.002397
536 -0.002059
537 -0.001518
538 -0.000888
539 -0.000332
540 -0.000104
541 0.000009
542 0.000132
543 0.000330
544 0.000324
545 0.000680
546 0.000840
547 0.001166
548 0.001095
549 0.000823
550 0.000658
551 0.000597
552 0.000674
553 0.000792
554 0.000745
555 0.000747
556 0.000740
557 0.000517
558 0.000425
559 0.000174
560 -0.000062
561 -0.000173
562 -0.000274
563 -0.000343
564 -0.000157
565 0.000005
566 0.000226
567 0.000307
568 0.000152
569 -0.000035
570 -0.000358
571 -0.000461
572 -0.000608
573 -0.000984
574 -0.001145
575 -0.001442
576 -0.001646
577 -0.001840
578 -0.001796
579 -0.001690
580 -0.001591
581 -0.001454
582 -0.001399
583 -0.001194
584 -0.001086
585 -0.000905
586 -0.000581
587 -0.000436
588 -0.000183
589 -0.000016
590 -0.000002
591 -0.000148
592 -0.000290
593 -0.000563
594 -0.000797
595 -0.001131
596 -0.001180
597 -0.001032
598 -0.000731
599 -0.000257
600 0.000042
601 0.000394
602 0.000776
603 0.000849
604 0.000956
605 0.001163
606 0.001455
607 0.001570
608 0.001578
609 0.001647
610 0.001615
611 0.001749
612 0.001793
613 0.001779
614 0.001809
615 0.001871
616 0.001903
617 0.001823
618 0.001728
619 0.001697
620 0.001551
621 0.001503
622 0.001466
623 0.001378
624 0.001267
625 0.001256
626 0.001279
627 0.001324
628 0.001305
629 0.001273
630 0.001343
631 0.001152
632 0.000867
633 0.000479
634 0.000235
635 0.000102
636 -0.000190
637 -0.000391
638 -0.000702
639 -0.000945
640 -0.001131
641 -0.001280
642 -0.001427
643 -0.001559
644 -0.001601
645 -0.001450
646 -0.001362
647 -0.001438
648 -0.001552
649 -0.001596
650 -0.001701
651 -0.001739
652 -0.001884
653 -0.001789
654 -0.001641
655 -0.001664
656 -0.001629
657 -0.001640
658 -0.001466
659 -0.001311
660 -0.001184
661 -0.001043
662 -0.000837
663 -0.000620
664 -0.000468
665 -0.000268
666 -0.000069
667 -0.000061
668 -0.000178
669 -0.000122
670 -0.000134
671 0.000192
672 0.000425
673 0.000604
674 0.000760
675 0.000882
676 0.001167
677 0.001371
678 0.001390
679 0.001586
680 0.001606
681 0.001685
682 0.001737
683 0.001668
684 0.001626
685 0.001555
686 0.001583
687 0.001557
688 0.001537
689 0.001501
690 0.001366
691 0.001120
692 0.001056
693 0.001078
694 0.001038
695 0.001010
696 0.000931
697 0.000751
698 0.000577
699 0.000362
700 0.000314
701 0.000118
702 0.000122
703 0.000089
704 0.000071
705 0.000105
706 0.000045
707 -0.000028
708 0.000051
709 0.000066
710 0.000113
711 -0.000098
712 -0.000196
713 -0.000368
714 -0.000457
715 -0.000644
716 -0.000836
717 -0.000786
718 -0.000722
719 -0.000668
720 -0.000619
721 -0.000569
722 -0.000440
723 -0.000400
724 -0.000305
725 -0.000221
726 -0.000152
727 -0.000274
728 -0.000317
729 -0.000298
730 -0.000171
731 -0.000023
732 0.000195
733 0.000261
734 0.000324
735 0.000363
736 0.000378
737 0.000449
738 0.000419
739 0.000434
740 0.000649
741 0.000774
742 0.000796
743 0.000817
744 0.000699
745 0.000680
746 0.000448
747 0.000332
748 0.000260
749 0.000174
750 0.000192
751 0.000290
752 0.000477
753 0.000696
754 0.000783
755 0.000716
756 0.000684
757 0.000577
758 0.000448
759 0.000445
760 0.000459
761 0.000517
762 0.000451
763 0.000424
764 0.000358
765 0.000220
766 0.000076
767 -0.000077
768 -0.000166
769 -0.000108
770 -0.000117
771 -0.000018
772 -0.000070
773 -0.000077
774 -0.000076
775 -0.000282
776 -0.000511
777 -0.000664
778 -0.000724
779 -0.000701
780 -0.000657
781 -0.000622
782 -0.000460
783 -0.000311
784 -0.000209
785 -0.000163
786 -0.000336
787 -0.000337
788 -0.000347
789 -0.000260
790 -0.000134
791 0.000077
792 0.000304
793 0.000416
794 0.000343
795 0.000194
796 0.000037
797 -0.000108
798 -0.000279
799 -0.000268
800 -0.000043
801 0.000179
802 0.000436
803 0.000562
804 0.000627
805 0.000653
806 0.000561
807 0.000537
808 0.000377
809 0.000349
