# i correlation
1 0.022737
2 0.020319
3 0.018358
4 0.016686
5 0.015149
6 0.013655
7 0.012417
8 0.011381
9 0.010248
10 0.009151
11 0.008320
12 0.007672
13 0.007337
14 0.006972
15 0.006624
16 0.006370
17 0.006145
18 0.005697
19 0.005300
20 0.004738
21 0.004630
22 0.004538
23 0.004160
24 0.003911
25 0.003662
26 0.003467
27 0.003333
28 0.003141
29 0.003010
30 0.003241
31 0.002977
32 0.003145
33 0.003159
34 0.002964
35 0.002740
36 0.002619
37 0.002269
38 0.002308
39 0.002034
40 0.001946
41 0.001595
42 0.001255
43 0.001356
44 0.001172
45 0.000920
46 0.000699
47 0.000720
48 0.000876
49 0.001039
50 0.000819
51 0.000872
52 0.001025
53 0.001179
54 0.001407
55 0.001417
56 0.001310
57 0.001156
58 0.001045
59 0.000854
60 0.000640
61 0.000204
62 -0.000014
63 0.000160
64 0.000184
65 0.000317
66 0.000410
67 0.000441
68 0.000636
69 0.000773
70 0.001155
71 0.001398
72 0.001509
73 0.001705
74 0.001448
75 0.001299
76 0.001346
77 0.001059
78 0.001023
79 0.000754
80 0.000524
81 0.000407
82 0.000670
83 0.000901
84 0.001267
85 0.001598
86 0.001712
87 0.001911
88 0.002088
89 0.002050
90 0.002137
91 0.002307
92 0.002415
93 0.002455
94 0.002371
95 0.002236
96 0.002275
97 0.002290
98 0.002124
99 0.002399
100 0.002480
101 0.002234
102 0.002317
103 0.002666
104 0.002836
105 0.002673
106 0.002774
107 0.002787
108 0.002582
109 0.002673
110 0.002708
111 0.003090
112 0.003520
113 0.003994
114 0.004564
115 0.005058
116 0.005640
117 0.006113
118 0.006472
119 0.006901
120 0.007156
121 0.007483
122 0.007486
123 0.007508
124 0.007460
125 0.007610
126 0.007403
127 0.007219
128 0.007140
129 0.007224
130 0.007251
131 0.007083
132 0.006858
133 0.006747
134 0.006662
135 0.006352
136 0.006143
137 0.006085
138 0.006038
139 0.006012
140 0.005864
141 0.005714
142 0.005861
143 0.005830
144 0.005728
145 0.005709
146 0.005544
147 0.005545
148 0.005519
149 0.005207
150 0.004821
151 0.004744
152 0.004452
153 0.004172
154 0.003798
155 0.003745
156 0.003926
157 0.004298
158 0.004637
159 0.004863
160 0.005039
161 0.005281
162 0.005278
163 0.005398
164 0.005710
165 0.006111
166 0.006199
167 0.006418
168 0.006356
169 0.006416
170 0.006400
171 0.006044
172 0.005958
173 0.005581
174 0.005155
175 0.004626
176 0.004382
177 0.003965
178 0.003763
179 0.003462
180 0.002961
181 0.002328
182 0.001861
183 0.001627
184 0.001207
185 0.000942
186 0.000850
187 0.000908
188 0.000784
189 0.000717
190 0.000651
191 0.000917
192 0.001083
193 0.001195
194 0.001181
195 0.001159
196 0.000909
197 0.000930
198 0.000834
199 0.000845
200 0.000715
201 0.000500
202 -0.000041
203 -0.000256
204 -0.000318
205 -0.000273
206 -0.000265
207 -0.000521
208 -0.000645
209 -0.000883
210 -0.001202
211 -0.001193
212 -0.000830
213 -0.000557
214 -0.000151
215 -0.000238
216 -0.000017
217 0.000186
218 0.000222
219 0.000577
220 0.000846
221 0.001371
222 0.001550
223 0.001711
224 0.001757
225 0.002028
226 0.002314
227 0.002739
228 0.003000
229 0.003237
230 0.003554
231 0.003755
232 0.003666
233 0.003888
234 0.003928
235 0.004084
236 0.004138
237 0.004209
238 0.004105
239 0.003744
240 0.003244
241 0.003230
242 0.003297
243 0.003421
244 0.003675
245 0.003520
246 0.003733
247 0.004016
248 0.004347
249 0.004707
250 0.004948
251 0.005096
252 0.005016
253 0.004486
254 0.004174
255 0.004069
256 0.003973
257 0.003750
258 0.003713
259 0.003864
260 0.004093
261 0.004221
262 0.004104
263 0.004038
264 0.004225
265 0.004169
266 0.004171
267 0.003941
268 0.003704
269 0.003358
270 0.002953
271 0.002618
272 0.002483
273 0.002301
274 0.002072
275 0.001718
276 0.001536
277 0.001649
278 0.001636
279 0.001575
280 0.001266
281 0.001010
282 0.000998
283 0.000880
284 0.000852
285 0.000865
286 0.000837
287 0.000692
288 0.000309
289 0.000225
290 0.000556
291 0.000910
292 0.000998
293 0.000824
294 0.000724
295 0.000662
296 0.000713
297 0.000873
298 0.001097
299 0.001205
300 0.001238
301 0.001406
302 0.001544
303 0.001662
304 0.002008
305 0.002146
306 0.002162
307 0.001939
308 0.001838
309 0.001799
310 0.001635
311 0.001642
312 0.001768
313 0.001840
314 0.002070
315 0.002258
316 0.002343
317 0.002320
318 0.002235
319 0.001959
320 0.001823
321 0.001541
322 0.001255
323 0.001188
324 0.001139
325 0.000882
326 0.000521
327 0.000484
328 0.000395
329 0.000260
330 0.000361
331 0.000556
332 0.000824
333 0.001138
334 0.001668
335 0.002130
336 0.002743
337 0.003419
338 0.003763
339 0.003858
340 0.003728
341 0.003537
342 0.003340
343 0.003038
344 0.002962
345 0.002653
346 0.002468
347 0.002361
348 0.002419
349 0.002308
350 0.002463
351 0.002515
352 0.002646
353 0.002544
354 0.002465
355 0.002732
356 0.003014
357 0.002989
358 0.002862
359 0.002735
360 0.002792
361 0.002933
362 0.003075
363 0.003220
364 0.003333
365 0.003552
366 0.003534
367 0.003717
368 0.003890
369 0.004206
370 0.004313
371 0.004379
372 0.004451
373 0.004345
374 0.004238
375 0.004003
376 0.003813
377 0.003953
378 0.004046
379 0.004072
380 0.003987
381 0.004016
382 0.004051
383 0.003796
384 0.003607
385 0.003391
386 0.003592
387 0.003514
388 0.003585
389 0.003548
390 0.003627
391 0.003687
392 0.003666
393 0.003723
394 0.003780
395 0.003816
396 0.003721
397 0.003635
398 0.003473
399 0.003267
400 0.003059
401 0.002597
402 0.002054
403 0.001652
404 0.001257
405 0.000755
406 0.000262
407 0.000075
408 0.000018
409 0.000038
410 -0.000329
411 -0.000583
412 -0.000811
413 -0.000953
414 -0.001060
415 -0.000968
416 -0.000929
417 -0.000708
418 -0.000546
419 -0.000560
420 -0.000058
421 0.000152
422 0.000356
423 0.000420
424 0.000549
425 0.000578
426 0.000829
427 0.000849
428 0.000998
429 0.001104
430 0.001277
431 0.001587
432 0.001663
433 0.001775
434 0.001770
435 0.001876
436 0.001829
437 0.001730
438 0.001585
439 0.001517
440 0.001392
441 0.001240
442 0.001177
443 0.001138
444 0.001035
445 0.000547
446 -0.000034
447 -0.000135
448 -0.000287
449 -0.000367
450 -0.000313
451 -0.000195
452 0.000063
453 0.000262
454 0.000509
455 0.000788
456 0.001064
457 0.001328
458 0.001623
459 0.001735
460 0.001739
461 0.001739
462 0.001682
463 0.001667
464 0.001601
465 0.001599
466 0.001525
467 0.001406
468 0.001162
469 0.001155
470 0.001105
471 0.001260
472 0.001525
473 0.001639
474 0.001625
475 0.001611
476 0.001685
477 0.001793
478 0.001941
479 0.001933
480 0.001903
481 0.002118
482 0.002341
483 0.002503
484 0.002722
485 0.003036
486 0.003243
487 0.003404
488 0.003486
489 0.003422
490 0.003388
491 0.003451
492 0.003432
493 0.003565
494 0.003518
495 0.003770
496 0.003950
497 0.004172
498 0.004319
499 0.004568
500 0.004771
501 0.004773
502 0.004866
503 0.005188
504 0.005282
505 0.005184
506 0.005026
507 0.005150
508 0.005081
509 0.005002
510 0.005177
511 0.005343
512 0.005270
513 0.005126
514 0.004885
515 0.004752
516 0.004628
517 0.004556
518 0.004323
519 0.004041
520 0.004118
521 0.003832
522 0.003530
523 0.003124
524 0.002818
525 0.002703
526 0.002605
527 0.002599
528 0.002813
529 0.002891
530 0.002725
531 0.002489
532 0.002375
533 0.002333
534 0.002263
535 0.002381
536 0.002436
537 0.002462
538 0.002377
539 0.002357
540 0.002161
541 0.002217
542 0.002237
543 0.002388
544 0.002271
545 0.002145
546 0.001903
547 0.001828
548 0.001719
549 0.001627
550 0.001739
551 0.001921
552 0.001851
553 0.001706
554 0.001803
555 0.001926
556 0.001913
557 0.001785
558 0.001857
559 0.001722
560 0.001743
561 0.001604
562 0.001443
563 0.001342
564 0.001309
565 0.001432
566 0.001386
567 0.001203
568 0.001051
569 0.001165
570 0.000962
571 0.000743
572 0.000499
573 0.000416
574 0.000264
575 0.000278
576 0.000220
577 0.000144
578 0.000227
579 0.000149
580 0.000000
581 -0.000037
582 0.000014
583 0.000093
584 0.000031
585 0.000038
586 0.000116
587 0.000282
588 0.000513
589 0.000459
590 0.000449
591 0.000484
592 0.000623
593 0.000644
594 0.000600
595 0.000741
596 0.000859
597 0.000846
598 0.000989
599 0.001027
600 0.000992
601 0.000988
602 0.001150
603 0.001379
604 0.001423
605 0.001436
606 0.001473
607 0.001594
608 0.001621
609 0.001678
610 0.001808
611 0.001960
612 0.002081
613 0.002181
614 0.002394
615 0.002479
616 0.002632
617 0.002662
618 0.002679
619 0.002708
620 0.002821
621 0.003208
622 0.003344
623 0.003517
624 0.003647
625 0.003610
626 0.003616
627 0.003550
628 0.003650
629 0.003919
630 0.003994
631 0.004085
632 0.004182
633 0.003905
634 0.003683
635 0.003339
636 0.003104
637 0.002866
638 0.002663
639 0.002376
640 0.002180
641 0.001987
642 0.001935
643 0.001769
644 0.001447
645 0.001276
646 0.001014
647 0.000886
648 0.000838
649 0.000643
650 0.000615
651 0.000706
652 0.000787
653 0.000897
654 0.001031
655 0.001126
656 0.001283
657 0.001275
658 0.001340
659 0.001498
660 0.001531
661 0.001600
662 0.001572
663 0.001447
664 0.001551
665 0.001520
666 0.001550
667 0.001571
668 0.001637
669 0.001827
670 0.002092
671 0.002316
672 0.002570
673 0.002608
674 0.002622
675 0.002755
676 0.002752
677 0.002757
678 0.002731
679 0.002741
680 0.002838
681 0.002936
682 0.002726
683 0.002674
684 0.002555
685 0.002487
686 0.002533
687 0.002557
688 0.002561
689 0.002412
690 0.002151
691 0.001973
692 0.001859
693 0.001689
694 0.001768
695 0.001754
696 0.001782
697 0.001747
698 0.001578
699 0.001498
700 0.001452
701 0.001422
702 0.001434
703 0.001408
704 0.001496
705 0.001586
706 0.001441
707 0.001393
708 0.001357
709 0.001274
710 0.001247
711 0.001130
712 0.000948
713 0.000857
714 0.000634
715 0.000537
716 0.000505
717 0.000467
718 0.000477
719 0.000523
720 0.000559
721 0.000484
722 0.000370
723 0.000236
724 0.000290
725 0.000357
726 0.000555
727 0.000688
728 0.000788
729 0.000889
730 0.000930
731 0.000775
732 0.000706
733 0.000571
734 0.000719
735 0.000756
736 0.000812
737 0.000899
738 0.000758
739 0.000566
740 0.000469
741 0.000336
742 0.000266
743 0.000339
744 0.000428
745 0.000527
746 0.000528
747 0.000527
748 0.000605
749 0.000661
750 0.000624
751 0.000710
752 0.000709
753 0.000812
754 0.000877
755 0.000896
756 0.001020
757 0.001050
758 0.001031
759 0.001193
760 0.001096
761 0.000981
762 0.000915
763 0.000898
764 0.000884
765 0.000784
766 0.000647
767 0.000639
768 0.000624
769 0.000667
770 0.000767
771 0.000707
772 0.000716
773 0.000632
774 0.000569
775 0.000542
776 0.000649
777 0.000706
778 0.000729
779 0.000704
780 0.000709
781 0.000588
782 0.000405
783 0.000243
784 0.000156
785 0.000057
786 0.000038
787 0.000016
788 0.000069
789 0.000149
790 0.000147
791 0.000183
792 0.000249
793 0.000395
794 0.000439
795 0.000449
796 0.000413
797 0.000433
798 0.000381
799 0.000444
800 0.000542
801 0.000634
802 0.000781
803 0.000827
804 0.000814
805 0.000702
806 0.000547
807 0.000423
808 0.000403
809 0.000416
