# i correlation
1 0.024698
2 0.022353
3 0.020531
4 0.019076
5 0.017243
6 0.015923
7 0.014451
8 0.013061
9 0.011639
10 0.010597
11 0.009648
12 0.008685
13 0.008046
14 0.007608
15 0.007110
16 0.006726
17 0.006871
18 0.006902
19 0.006973
20 0.007053
21 0.006662
22 0.006231
23 0.006118
24 0.005667
25 0.005743
26 0.005477
27 0.005276
28 0.005090
29 0.004926
30 0.004477
31 0.004001
32 0.003460
33 0.003006
34 0.002596
35 0.002071
36 0.001323
37 0.001070
38 0.000403
39 -0.000061
40 -0.000032
41 0.000057
42 0.000034
43 0.000099
44 0.000214
45 0.000733
46 0.001078
47 0.001795
48 0.002498
49 0.002918
50 0.003164
51 0.003712
52 0.004205
53 0.004386
54 0.004608
55 0.004831
56 0.004809
57 0.004913
58 0.005043
59 0.005160
60 0.005380
61 0.005207
62 0.005043
63 0.004685
64 0.004536
65 0.004311
66 0.004145
67 0.004037
68 0.004138
69 0.003997
70 0.003749
71 0.003775
72 0.003668
73 0.003509
74 0.003347
75 0.003185
76 0.002700
77 0.002742
78 0.002681
79 0.002538
80 0.002334
81 0.002253
82 0.002114
83 0.001979
84 0.001676
85 0.001396
86 0.001113
87 0.000657
88 0.000691
89 0.000798
90 0.000609
91 0.000372
92 0.000388
93 0.000195
94 0.000062
95 -0.000259
96 -0.000295
97 -0.000756
98 -0.000906
99 -0.000988
100 -0.000890
101 -0.000881
102 -0.000770
103 -0.000538
104 -0.000284
105 -0.000125
106 0.000138
107 0.000355
108 0.000705
109 0.001068
110 0.001320
111 0.001532
112 0.001731
113 0.001652
114 0.001976
115 0.002049
116 0.002152
117 0.001954
118 0.001861
119 0.002014
120 0.002384
121 0.002775
122 0.003117
123 0.003487
124 0.003311
125 0.003119
126 0.003164
127 0.003260
128 0.003148
129 0.003332
130 0.003396
131 0.003458
132 0.003512
133 0.003813
134 0.003828
135 0.003929
136 0.004263
137 0.004930
138 0.005262
139 0.005537
140 0.005814
141 0.006167
142 0.006231
143 0.006466
144 0.006316
145 0.006143
146 0.006026
147 0.005943
148 0.005848
149 0.005742
150 0.005724
151 0.005998
152 0.006131
153 0.006080
154 0.005974
155 0.005962
156 0.006349
157 0.006728
158 0.007119
159 0.007414
160 0.007660
161 0.007698
162 0.007634
163 0.007691
164 0.007840
165 0.007721
166 0.007510
167 0.007161
168 0.006706
169 0.006184
170 0.005706
171 0.005280
172 0.004622
173 0.003820
174 0.003349
175 0.003025
176 0.002771
177 0.002187
178 0.002281
179 0.001999
180 0.001843
181 0.001716
182 0.001872
183 0.002010
184 0.002183
185 0.002629
186 0.003102
187 0.003243
188 0.003287
189 0.003530
190 0.003607
191 0.003752
192 0.003874
193 0.003966
194 0.003921
195 0.003822
196 0.003381
197 0.002766
198 0.002127
199 0.001303
200 0.000816
201 0.000408
202 -0.000163
203 -0.000524
204 -0.000663
205 -0.000661
206 -0.000554
207 -0.000666
208 -0.000375
209 0.000014
210 0.000382
211 0.000895
212 0.001512
213 0.001915
214 0.002200
215 0.002499
216 0.002798
217 0.002923
218 0.002936
219 0.002735
220 0.002634
221 0.002677
222 0.002350
223 0.002090
224 0.001644
225 0.001168
226 0.000990
227 0.000617
228 0.000307
229 -0.000098
230 -0.000454
231 -0.000601
232 -0.000581
233 -0.000681
234 -0.000970
235 -0.001092
236 -0.001293
237 -0.001371
238 -0.001482
239 -0.001688
240 -0.001482
241 -0.001454
242 -0.001313
243 -0.001001
244 -0.000663
245 -0.000418
246 -0.000234
247 -0.000176
248 -0.000344
249 -0.000318
250 -0.000379
251 -0.000411
252 -0.000479
253 -0.000482
254 -0.000492
255 -0.000484
256 -0.000860
257 -0.001144
258 -0.001430
259 -0.001855
260 -0.002008
261 -0.002017
262 -0.002291
263 -0.002242
264 -0.002234
265 -0.002196
266 -0.002075
267 -0.002060
268 -0.001878
269 -0.001506
270 -0.001283
271 -0.001409
272 -0.001216
273 -0.000907
274 -0.000401
275 -0.000170
276 -0.000315
277 -0.000489
278 -0.000414
279 -0.000309
280 -0.000201
281 -0.000168
282 -0.000169
283 -0.000309
284 -0.000356
285 -0.000514
286 -0.000418
287 -0.000401
288 -0.000186
289 0.000008
290 0.000146
291 -0.000068
292 0.000122
293 -0.000116
294 -0.000213
295 -0.000193
296 -0.000297
297 -0.000229
298 0.000054
299 0.000297
300 0.000546
301 0.001056
302 0.001358
303 0.001620
304 0.001844
305 0.002333
306 0.002539
307 0.003018
308 0.002943
309 0.003054
310 0.002945
311 0.002980
312 0.002781
313 0.002608
314 0.002274
315 0.002300
316 0.002337
317 0.002666
318 0.002583
319 0.002310
320 0.002176
321 0.002187
322 0.002197
323 0.002161
324 0.002159
325 0.002104
326 0.002049
327 0.001953
328 0.001634
329 0.001591
330 0.001579
331 0.001420
332 0.001328
333 0.001239
334 0.001279
335 0.001347
336 0.001273
337 0.001090
338 0.000959
339 0.000747
340 0.000664
341 0.000461
342 0.000534
343 0.000496
344 0.000236
345 -0.000070
346 0.000006
347 -0.000002
348 -0.000015
349 -0.000107
350 -0.000096
351 -0.000142
352 -0.000036
353 0.000073
354 0.000476
355 0.000621
356 0.000676
357 0.000615
358 0.000545
359 0.000377
360 0.000155
361 0.000007
362 -0.000102
363 -0.000046
364 0.000119
365 0.000231
366 0.000280
367 0.000286
368 0.000167
369 0.000382
370 0.000572
371 0.000628
372 0.000712
373 0.000934
374 0.000985
375 0.001022
376 0.001224
377 0.001487
378 0.001685
379 0.001888
380 0.002278
381 0.002553
382 0.002872
383 0.003144
384 0.003371
385 0.003154
386 0.002858
387 0.002482
388 0.002272
389 0.001959
390 0.001805
391 0.001347
392 0.000758
393 0.000264
394 -0.000194
395 -0.000601
396 -0.001001
397 -0.001474
398 -0.001760
399 -0.001695
400 -0.001866
401 -0.001873
402 -0.002033
403 -0.002037
404 -0.002287
405 -0.002691
406 -0.002784
407 -0.002706
408 -0.002815
409 -0.002780
410 -0.002813
411 -0.002867
412 -0.003035
413 -0.003127
414 -0.003370
415 -0.003683
416 -0.004066
417 -0.004496
418 -0.004890
419 -0.004993
420 -0.005254
421 -0.005261
422 -0.005371
423 -0.005317
424 -0.005235
425 -0.004830
426 -0.004483
427 -0.004166
428 -0.003829
429 -0.003550
430 -0.003253
431 -0.002861
432 -0.002315
433 -0.001859
434 -0.001482
435 -0.001347
436 -0.001000
437 -0.000718
438 -0.000254
439 0.000151
440 0.000563
441 0.000813
442 0.000993
443 0.000961
444 0.001363
445 0.001440
446 0.001514
447 0.001467
448 0.001500
449 0.001398
450 0.001279
451 0.001039
452 0.000607
453 0.000143
454 0.000114
455 0.000092
456 0.000012
457 -0.000101
458 0.000038
459 0.000150
460 0.000240
461 0.000460
462 0.000558
463 0.000700
464 0.000808
465 0.000835
466 0.000903
467 0.000969
468 0.001234
469 0.001348
470 0.001193
471 0.001019
472 0.000893
473 0.000672
474 0.000460
475 0.000445
476 0.000350
477 0.000347
478 0.000228
479 0.000085
480 -0.000326
481 -0.000537
482 -0.000809
483 -0.000904
484 -0.000989
485 -0.000896
486 -0.000937
487 -0.000761
488 -0.000610
489 -0.000274
490 -0.000113
491 0.000179
492 0.000558
493 0.000981
494 0.001257
495 0.001473
496 0.001867
497 0.002147
498 0.002335
499 0.002231
500 0.002176
501 0.002017
502 0.001928
503 0.001796
504 0.001596
505 0.001541
506 0.001523
507 0.001556
508 0.001486
509 0.001472
510 0.001360
511 0.001281
512 0.001196
513 0.001091
514 0.000970
515 0.000970
516 0.000756
517 0.000646
518 0.000523
519 0.000584
520 0.000392
521 0.000387
522 0.000360
523 0.000232
524 0.000054
525 -0.000072
526 -0.000156
527 -0.000506
528 -0.000697
529 -0.000788
530 -0.000880
531 -0.001387
532 -0.001723
533 -0.001920
534 -0.002149
535 -0.002254
536 -0.002274
537 -0.002266
538 -0.002310
539 -0.002321
540 -0.002182
541 -0.002302
542 -0.002292
543 -0.002226
544 -0.002119
545 -0.002265
546 -0.002355
547 -0.002253
548 -0.002066
549 -0.001773
550 -0.001606
551 -0.001638
552 -0.001662
553 -0.001770
554 -0.002020
555 -0.002113
556 -0.002165
557 -0.002356
558 -0.002479
559 -0.002564
560 -0.002570
561 -0.002662
562 -0.002747
563 -0.003004
564 -0.003219
565 -0.003375
566 -0.003453
567 -0.003555
568 -0.003605
569 -0.003569
570 -0.003525
571 -0.003498
572 -0.003534
573 -0.003644
574 -0.003794
575 -0.003732
576 -0.003749
577 -0.003437
578 -0.003351
579 -0.003315
580 -0.003405
581 -0.003291
582 -0.003431
583 -0.003533
584 -0.003656
585 -0.003648
586 -0.003602
587 -0.003634
588 -0.003701
589 -0.003650
590 -0.003527
591 -0.003474
592 -0.003418
593 -0.003596
594 -0.003657
595 -0.003599
596 -0.003452
597 -0.003126
598 -0.002840
599 -0.002661
600 -0.002771
601 -0.002722
602 -0.002798
603 -0.002759
604 -0.002811
605 -0.002825
606 -0.002816
607 -0.002832
608 -0.002790
609 -0.002630
610 -0.002477
611 -0.002367
612 -0.002202
613 -0.002330
614 -0.002399
615 -0.002291
616 -0.002214
617 -0.002124
618 -0.002114
619 -0.002044
620 -0.001901
621 -0.001851
622 -0.001838
623 -0.001993
624 -0.002047
625 -0.002207
626 -0.002321
627 -0.002528
628 -0.002544
629 -0.002646
630 -0.002427
631 -0.002253
632 -0.002117
633 -0.002114
634 -0.001903
635 -0.001711
636 -0.001494
637 -0.001207
638 -0.000946
639 -0.000840
640 -0.000840
641 -0.000855
642 -0.000884
643 -0.000885
644 -0.000785
645 -0.000700
646 -0.000726
647 -0.000830
648 -0.000905
649 -0.000959
650 -0.001003
651 -0.000992
652 -0.000946
653 -0.000773
654 -0.000624
655 -0.000298
656 0.000099
657 0.000432
658 0.000710
659 0.001003
660 0.001114
661 0.001105
662 0.000984
663 0.000962
664 0.000876
665 0.000773
666 0.000550
667 0.000301
668 0.000015
669 -0.000129
670 -0.000319
671 -0.000468
672 -0.000568
673 -0.000718
674 -0.001093
675 -0.001409
676 -0.001525
677 -0.001679
678 -0.001854
679 -0.002039
680 -0.002145
681 -0.002238
682 -0.002258
683 -0.002206
684 -0.002216
685 -0.002294
686 -0.002351
687 -0.002365
688 -0.002260
689 -0.001963
690 -0.001769
691 -0.001588
692 -0.001629
693 -0.001643
694 -0.001731
695 -0.001819
696 -0.002033
697 -0.002177
698 -0.002309
699 -0.002458
700 -0.002411
701 -0.002215
702 -0.002124
703 -0.002051
704 -0.001993
705 -0.001918
706 -0.001926
707 -0.001996
708 -0.001958
709 -0.001947
710 -0.002068
711 -0.002204
712 -0.002313
713 -0.002279
714 -0.002253
715 -0.002175
716 -0.002179
717 -0.002167
718 -0.002025
719 -0.001879
720 -0.001550
721 -0.001366
722 -0.001316
723 -0.001325
724 -0.001252
725 -0.001210
726 -0.001133
727 -0.001340
728 -0.001446
729 -0.001477
730 -0.001390
731 -0.001451
732 -0.001565
733 -0.001607
734 -0.001641
735 -0.001794
736 -0.001830
737 -0.001867
738 -0.001799
739 -0.001883
740 -0.001968
741 -0.002080
742 -0.002117
743 -0.002202
744 -0.002344
745 -0.002469
746 -0.002510
747 -0.002516
748 -0.002481
749 -0.002310
750 -0.002143
751 -0.001950
752 -0.001838
753 -0.001837
754 -0.001739
755 -0.001631
756 -0.001670
757 -0.001679
758 -0.001691
759 -0.001718
760 -0.001834
761 -0.001876
762 -0.001895
763 -0.001867
764 -0.001869
765 -0.001847
766 -0.001822
767 -0.001662
768 -0.001486
769 -0.001406
770 -0.001379
771 -0.001324
772 -0.001329
773 -0.001260
774 -0.001166
775 -0.001070
776 -0.001121
777 -0.001100
778 -0.001153
779 -0.001145
780 -0.001025
781 -0.000858
782 -0.000692
783 -0.000613
784 -0.000529
785 -0.000494
786 -0.000575
787 -0.000694
788 -0.000760
789 -0.000903
790 -0.001059
791 -0.001264
792 -0.001363
793 -0.001421
794 -0.001416
795 -0.001426
796 -0.001425
797 -0.001421
798 -0.001281
799 -0.001140
800 -0.001102
801 -0.001028
802 -0.000903
803 -0.000685
804 -0.000536
805 -0.000479
806 -0.000432
807 -0.000411
808 -0.000444
809 -0.000401
