# i correlation
1 0.014382
2 0.011936
3 0.009775
4 0.007970
5 0.006581
6 0.005770
7 0.005066
8 0.004387
9 0.004116
10 0.003900
11 0.003411
12 0.003042
13 0.002677
14 0.002623
15 0.002599
16 0.002889
17 0.002484
18 0.002212
19 0.001996
20 0.001856
21 0.001626
22 0.001521
23 0.001133
24 0.000863
25 0.000555
26 0.000511
27 0.000464
28 0.000417
29 0.000226
30 0.000467
31 0.000367
32 0.000034
33 -0.000562
34 -0.000748
35 -0.000963
36 -0.000823
37 -0.000443
38 0.000142
39 0.000799
40 0.001401
41 0.001456
42 0.001456
43 0.001532
44 0.001570
45 0.001623
46 0.002034
47 0.002502
48 0.002584
49 0.002828
50 0.003088
51 0.002944
52 0.002999
53 0.002908
54 0.002566
55 0.002281
56 0.002270
57 0.002312
58 0.002354
59 0.002593
60 0.002689
61 0.002794
62 0.002987
63 0.002953
64 0.002662
65 0.002563
66 0.002433
67 0.002422
68 0.002388
69 0.002313
70 0.001987
71 0.001701
72 0.001562
73 0.001447
74 0.001214
75 0.001011
76 0.000458
77 0.000106
78 0.000083
79 0.000199
80 0.000277
81 0.000188
82 0.000040
83 -0.000045
84 -0.000164
85 -0.000319
86 -0.000484
87 -0.000370
88 -0.000469
89 -0.000266
90 -0.000005
91 0.000039
92 -0.000092
93 -0.000251
94 -0.000024
95 0.000272
96 0.000463
97 0.000730
98 0.001157
99 0.001722
100 0.002154
101 0.002038
102 0.001947
103 0.001956
104 0.001924
105 0.001879
106 0.002040
107 0.002006
108 0.001551
109 0.001429
110 0.001238
111 0.001356
112 0.001462
113 0.001912
114 0.002160
115 0.002331
116 0.002526
117 0.002489
118 0.002558
119 0.002770
120 0.003034
121 0.003367
122 0.003696
123 0.003770
124 0.003562
125 0.003566
126 0.003545
127 0.003306
128 0.003111
129 0.003033
130 0.003108
131 0.003125
132 0.002849
133 0.002344
134 0.002239
135 0.001862
136 0.001589
137 0.001543
138 0.001420
139 0.001444
140 0.001430
141 0.001567
142 0.001599
143 0.001717
144 0.001487
145 0.001531
146 0.001483
147 0.001637
148 0.001680
149 0.001795
150 0.001834
151 0.001721
152 0.001824
153 0.001769
154 0.001578
155 0.001361
156 0.001145
157 0.001059
158 0.000951
159 0.001046
160 0.001086
161 0.001105
162 0.001395
163 0.001815
164 0.001877
165 0.001940
166 0.001718
167 0.001394
168 0.001045
169 0.000997
170 0.000848
171 0.000984
172 0.001251
173 0.001445
174 0.001527
175 0.001365
176 0.001127
177 0.000989
178 0.000956
179 0.000746
180 0.000646
181 0.000649
182 0.000228
183 0.000178
184 0.000148
185 -0.000161
186 -0.000414
187 -0.000265
188 -0.000158
189 0.000038
190 -0.000008
191 -0.000031
192 -0.000161
193 -0.000070
194 0.000413
195 0.000533
196 0.000450
197 0.000382
198 0.000141
199 0.000494
200 0.000857
201 0.001044
202 0.001285
203 0.001518
204 0.001648
205 0.001647
206 0.001582
207 0.001177
208 0.000913
209 0.000599
210 0.000292
211 0.000432
212 0.000413
213 0.000433
214 0.000279
215 0.000572
216 0.000807
217 0.000895
218 0.001011
219 0.001082
220 0.001283
221 0.001502
222 0.001584
223 0.001419
224 0.001395
225 0.001204
226 0.000908
227 0.000592
228 0.000302
229 -0.000041
230 -0.000072
231 -0.000270
232 -0.000485
233 -0.000505
234 -0.000380
235 -0.000205
236 -0.000109
237 0.000084
238 0.000134
239 0.000097
240 0.000069
241 -0.000059
242 -0.000067
243 0.000075
244 0.000323
245 0.000631
246 0.001126
247 0.001408
248 0.001392
249 0.001429
250 0.001476
251 0.001563
252 0.001559
253 0.001503
254 0.001513
255 0.001560
256 0.001802
257 0.001764
258 0.001826
259 0.002026
260 0.002196
261 0.002463
262 0.002945
263 0.003222
264 0.003406
265 0.003433
266 0.003135
267 0.002990
268 0.002988
269 0.002795
270 0.002683
271 0.002805
272 0.002622
273 0.002454
274 0.002695
275 0.002737
276 0.002817
277 0.003024
278 0.003222
279 0.002979
280 0.002873
281 0.002548
282 0.002184
283 0.002020
284 0.001920
285 0.001652
286 0.001614
287 0.001712
288 0.001807
289 0.001883
290 0.002198
291 0.002301
292 0.002102
293 0.001884
294 0.002054
295 0.001974
296 0.001757
297 0.001342
298 0.000943
299 0.000527
300 0.000179
301 0.000055
302 0.000262
303 0.000330
304 0.000295
305 0.000310
306 0.000597
307 0.000871
308 0.000990
309 0.000909
310 0.000874
311 0.000805
312 0.000863
313 0.000717
314 0.000869
315 0.000796
316 0.000434
317 0.000468
318 0.000669
319 0.000537
320 0.000486
321 0.000631
322 0.000882
323 0.000825
324 0.001053
325 0.001027
326 0.001228
327 0.001194
328 0.001393
329 0.001561
330 0.001753
331 0.002047
332 0.002004
333 0.002068
334 0.002205
335 0.002228
336 0.002286
337 0.002529
338 0.002501
339 0.002233
340 0.002121
341 0.002082
342 0.002014
343 0.001995
344 0.001997
345 0.001706
346 0.001523
347 0.001204
348 0.000817
349 0.000700
350 0.000369
351 0.000217
352 0.000118
353 0.000215
354 0.000344
355 0.000087
356 -0.000075
357 -0.000441
358 -0.000651
359 -0.000931
360 -0.001120
361 -0.001187
362 -0.001318
363 -0.001349
364 -0.001332
365 -0.001029
366 -0.001051
367 -0.000852
368 -0.000642
369 -0.000523
370 -0.000566
371 -0.000392
372 -0.000318
373 -0.000240
374 0.000030
375 0.000438
376 0.000746
377 0.001057
378 0.001278
379 0.001142
380 0.001225
381 0.001385
382 0.001487
383 0.001677
384 0.001632
385 0.001539
386 0.001368
387 0.001264
388 0.001070
389 0.001159
390 0.001312
391 0.001440
392 0.001495
393 0.001884
394 0.002188
395 0.002108
396 0.002108
397 0.002113
398 0.001910
399 0.001672
400 0.001234
401 0.001169
402 0.001168
403 0.001180
404 0.000974
405 0.000828
406 0.000526
407 0.000090
408 -0.000015
409 0.000052
410 -0.000065
411 0.000008
412 0.000090
413 0.000058
414 -0.000064
415 -0.000260
416 -0.000482
417 -0.000573
418 -0.000576
419 -0.000493
420 -0.000360
421 -0.000025
422 0.000042
423 0.000125
424 0.000255
425 0.000396
426 0.000270
427 0.000408
428 0.000579
429 0.000944
430 0.001023
431 0.001001
432 0.000977
433 0.001278
434 0.001345
435 0.001362
436 0.001267
437 0.001120
438 0.000898
439 0.000850
440 0.000909
441 0.001080
442 0.001100
443 0.001477
444 0.001513
445 0.001480
446 0.001379
447 0.001102
448 0.001077
449 0.001132
450 0.001006
451 0.001183
452 0.001322
453 0.001439
454 0.001420
455 0.001590
456 0.001484
457 0.001437
458 0.001358
459 0.001342
460 0.001234
461 0.001183
462 0.001171
463 0.001092
464 0.000863
465 0.000769
466 0.000397
467 0.000176
468 -0.000169
469 -0.000392
470 -0.000496
471 -0.000355
472 -0.000348
473 -0.000429
474 -0.000519
475 -0.000603
476 -0.000621
477 -0.000631
478 -0.000672
479 -0.000759
480 -0.000857
481 -0.000642
482 -0.000722
483 -0.000493
484 -0.000483
485 -0.000533
486 -0.000661
487 -0.000805
488 -0.000979
489 -0.001011
490 -0.001157
491 -0.001068
492 -0.000988
493 -0.000761
494 -0.000716
495 -0.000461
496 -0.000161
497 0.000081
498 0.000382
499 0.000525
500 0.000487
501 0.000473
502 0.000515
503 0.000597
504 0.000349
505 0.000155
506 -0.000001
507 -0.000068
508 0.000097
509 0.000269
510 0.000399
511 0.000347
512 0.000355
513 0.000137
514 -0.000074
515 -0.000118
516 -0.000231
517 -0.000353
518 -0.000176
519 0.000044
520 0.000095
521 0.000077
522 -0.000050
523 -0.000050
524 0.000176
525 0.000534
526 0.000609
527 0.000717
528 0.000883
529 0.000807
530 0.000778
531 0.000788
532 0.000888
533 0.001007
534 0.001142
535 0.001044
536 0.000797
537 0.000541
538 0.000272
539 0.000106
540 0.000136
541 0.000141
542 0.000222
543 0.000313
544 0.000263
545 0.000151
546 0.000188
547 0.000296
548 0.000623
549 0.000850
550 0.001076
551 0.001239
552 0.001537
553 0.001569
554 0.001615
555 0.001719
556 0.001733
557 0.001755
558 0.001678
559 0.001507
560 0.001221
561 0.000986
562 0.000871
563 0.000480
564 0.000290
565 0.000265
566 0.000208
567 0.000142
568 0.000217
569 0.000217
570 0.000225
571 0.000380
572 0.000513
573 0.000592
574 0.000823
575 0.000952
576 0.000971
577 0.001104
578 0.001145
579 0.000987
580 0.000756
581 0.000607
582 0.000726
583 0.000803
584 0.000900
585 0.000920
586 0.000841
587 0.000671
588 0.000441
589 0.000351
590 0.000338
591 0.000397
592 0.000684
593 0.001136
594 0.001399
595 0.001520
596 0.001579
597 0.001461
598 0.001496
599 0.001432
600 0.001474
601 0.001521
602 0.001692
603 0.001666
604 0.001540
605 0.001440
606 0.001251
607 0.000885
608 0.000678
609 0.000547
610 0.000260
611 -0.000020
612 -0.000115
613 -0.000149
614 -0.000086
615 0.000160
616 0.000263
617 0.000367
618 0.000362
619 0.000268
620 0.000081
621 -0.000072
622 -0.000129
623 -0.000123
624 0.000101
625 0.000164
626 0.000164
627 0.000043
628 -0.000079
629 -0.000102
630 -0.000250
631 -0.000161
632 0.000092
633 0.000335
634 0.000347
635 0.000268
636 0.000048
637 -0.000191
638 -0.000330
639 -0.000384
640 -0.000343
641 -0.000386
642 -0.000361
643 -0.000272
644 -0.000217
645 -0.000114
646 -0.000034
647 0.000177
648 0.000433
649 0.000636
650 0.000646
651 0.000763
652 0.000716
653 0.000616
654 0.000737
655 0.001061
656 0.001221
657 0.001460
658 0.001435
659 0.001388
660 0.001033
661 0.000827
662 0.000544
663 0.000406
664 0.000437
665 0.000436
666 0.000275
667 0.000072
668 -0.000113
669 -0.000345
670 -0.000488
671 -0.000380
672 -0.000300
673 -0.000036
674 0.000220
675 0.000454
676 0.000551
677 0.000589
678 0.000673
679 0.000648
680 0.000693
681 0.000647
682 0.000646
683 0.000642
684 0.000620
685 0.000683
686 0.000616
687 0.000618
688 0.000541
689 0.000401
690 0.000214
691 0.000118
692 0.000154
693 0.000186
694 0.000252
695 0.000352
696 0.000457
697 0.000570
698 0.000627
699 0.000644
700 0.000682
701 0.000706
702 0.000761
703 0.000682
704 0.000769
705 0.000762
706 0.000705
707 0.000639
708 0.000625
709 0.000641
710 0.000565
711 0.000550
712 0.000545
713 0.000552
714 0.000614
715 0.000652
716 0.000766
717 0.000761
718 0.000896
719 0.001047
720 0.001180
721 0.001134
722 0.001067
723 0.001017
724 0.001055
725 0.001021
726 0.001050
727 0.001051
728 0.001027
729 0.000945
730 0.000801
731 0.000689
732 0.000665
733 0.000504
734 0.000413
735 0.000361
736 0.000402
737 0.000266
738 0.000157
739 0.000122
740 0.000110
741 0.000002
742 -0.000013
743 -0.000015
744 -0.000176
745 -0.000212
746 -0.000263
747 -0.000162
748 -0.000098
749 0.000014
750 -0.000059
751 -0.000075
752 -0.000126
753 -0.000219
754 -0.000172
755 -0.000049
756 0.000084
757 0.000173
758 0.000222
759 0.000166
760 -0.000088
761 -0.000303
762 -0.000532
763 -0.000645
764 -0.000746
765 -0.000690
766 -0.000651
767 -0.000556
768 -0.000560
769 -0.000541
770 -0.000536
771 -0.000499
772 -0.000464
773 -0.000421
774 -0.000287
775 -0.000241
776 -0.000202
777 -0.000004
778 0.000143
779 0.000276
780 0.000236
781 0.000191
782 0.000018
783 -0.000114
784 -0.000279
785 -0.000430
786 -0.000490
787 -0.000359
788 -0.000298
789 -0.000223
790 -0.000259
791 -0.000378
792 -0.000490
793 -0.000450
794 -0.000410
795 -0.000246
796 -0.000103
797 0.000157
798 0.000479
799 0.000643
800 0.000640
801 0.000578
802 0.000505
803 0.000425
804 0.000370
805 0.000345
806 0.000307
807 0.000335
808 0.000346
809 0.000312
