# i correlation
1 0.012823
2 0.010457
3 0.008718
4 0.007229
5 0.005950
6 0.005071
7 0.004191
8 0.003490
9 0.002462
10 0.002152
11 0.001894
12 0.001532
13 0.001196
14 0.000890
15 0.000288
16 0.000324
17 0.000119
18 0.000278
19 0.000658
20 0.000820
21 0.000724
22 0.000791
23 0.000798
24 0.000844
25 0.000935
26 0.000903
27 0.000918
28 0.000802
29 0.000572
30 0.000544
31 0.000237
32 0.000099
33 0.000007
34 -0.000190
35 -0.000339
36 -0.000403
37 -0.000133
38 0.000125
39 0.000249
40 0.000301
41 0.000428
42 0.000524
43 0.000929
44 0.001180
45 0.000892
46 0.000813
47 0.000660
48 0.000257
49 -0.000011
50 -0.000296
51 -0.000207
52 -0.000332
53 -0.000376
54 -0.000342
55 -0.000152
56 -0.000218
57 -0.000067
58 0.000083
59 0.000071
60 0.000291
61 0.000423
62 0.000556
63 0.000766
64 0.000641
65 0.000551
66 0.000657
67 0.000675
68 0.000704
69 0.000454
70 0.000107
71 0.000350
72 0.000278
73 0.000477
74 0.000397
75 0.000045
76 -0.000229
77 -0.000037
78 0.000178
79 0.000378
80 0.000367
81 0.000408
82 0.000330
83 0.000439
84 0.000620
85 0.000951
86 0.001094
87 0.001256
88 0.001191
89 0.001192
90 0.001253
91 0.001277
92 0.001289
93 0.001403
94 0.001575
95 0.001867
96 0.001950
97 0.002009
98 0.001798
99 0.001777
100 0.001377
101 0.001201
102 0.000813
103 0.000574
104 0.000424
105 0.000322
106 0.000279
107 0.000406
108 0.000242
109 0.000110
110 0.000411
111 0.000929
112 0.001137
113 0.001129
114 0.000957
115 0.001119
116 0.000965
117 0.001039
118 0.000871
119 0.000534
120 0.000052
121 0.000018
122 0.000081
123 0.000470
124 0.001103
125 0.001007
126 0.001037
127 0.001070
128 0.000894
129 0.000965
130 0.000990
131 0.001158
132 0.001256
133 0.001115
134 0.001380
135 0.001787
136 0.002031
137 0.002218
138 0.002248
139 0.002244
140 0.002312
141 0.002049
142 0.001803
143 0.001459
144 0.001250
145 0.001049
146 0.000887
147 0.000484
148 0.000237
149 -0.000048
150 -0.000258
151 -0.000344
152 -0.000098
153 0.000473
154 0.000846
155 0.001226
156 0.001416
157 0.001616
158 0.001739
159 0.001613
160 0.001472
161 0.001558
162 0.001511
163 0.001481
164 0.001331
165 0.001194
166 0.001063
167 0.001173
168 0.001217
169 0.001482
170 0.001542
171 0.001317
172 0.001317
173 0.001287
174 0.001235
175 0.001126
176 0.000882
177 0.000468
178 0.000622
179 0.000706
180 0.000627
181 0.000728
182 0.000783
183 0.000811
184 0.000469
185 0.000275
186 0.000312
187 -0.000007
188 -0.000102
189 -0.000004
190 0.000018
191 -0.000166
192 -0.000123
193 -0.000221
194 -0.000178
195 0.000096
196 0.000184
197 0.000691
198 0.001155
199 0.001327
200 0.001563
201 0.001663
202 0.002013
203 0.002056
204 0.002096
205 0.001956
206 0.001782
207 0.001840
208 0.002123
209 0.002068
210 0.001989
211 0.002015
212 0.001963
213 0.001867
214 0.001696
215 0.001390
216 0.001247
217 0.000955
218 0.000844
219 0.000813
220 0.000807
221 0.000863
222 0.001008
223 0.001186
224 0.001253
225 0.001426
226 0.001679
227 0.002135
228 0.002065
229 0.001947
230 0.001730
231 0.001565
232 0.001526
233 0.001502
234 0.001436
235 0.001334
236 0.001118
237 0.000737
238 0.000482
239 0.000440
240 0.000404
241 0.000537
242 0.000621
243 0.000862
244 0.000665
245 0.000600
246 0.000716
247 0.000962
248 0.000980
249 0.000931
250 0.000861
251 0.000946
252 0.000914
253 0.000961
254 0.001093
255 0.001169
256 0.000979
257 0.000760
258 0.000559
259 0.000576
260 0.000580
261 0.000434
262 0.000286
263 0.000126
264 0.000012
265 0.000127
266 0.000424
267 0.000270
268 0.000140
269 0.000169
270 0.000172
271 0.000071
272 -0.000169
273 -0.000396
274 -0.000588
275 -0.000628
276 -0.000665
277 -0.000850
278 -0.001167
279 -0.001388
280 -0.001365
281 -0.001422
282 -0.001284
283 -0.001404
284 -0.001501
285 -0.001349
286 -0.001184
287 -0.000951
288 -0.000649
289 -0.000261
290 -0.000070
291 0.000092
292 0.000277
293 0.000623
294 0.000856
295 0.000898
296 0.001095
297 0.000996
298 0.000923
299 0.000917
300 0.000888
301 0.000934
302 0.000937
303 0.000826
304 0.000695
305 0.000555
306 0.000479
307 0.000536
308 0.000644
309 0.000801
310 0.001223
311 0.001166
312 0.001264
313 0.001342
314 0.001452
315 0.001603
316 0.001633
317 0.001480
318 0.001358
319 0.001284
320 0.001431
321 0.001529
322 0.001627
323 0.001596
324 0.001699
325 0.001641
326 0.001855
327 0.001811
328 0.001838
329 0.001700
330 0.001292
331 0.000783
332 0.000350
333 0.000279
334 0.000275
335 0.000494
336 0.000656
337 0.000817
338 0.001110
339 0.001599
340 0.001902
341 0.001503
342 0.001221
343 0.001137
344 0.000999
345 0.000911
346 0.000965
347 0.001127
348 0.001101
349 0.000904
350 0.000875
351 0.000813
352 0.000654
353 0.000583
354 0.000373
355 0.000177
356 0.000129
357 0.000016
358 -0.000124
359 0.000025
360 0.000009
361 -0.000039
362 -0.000138
363 -0.000389
364 -0.000466
365 -0.000317
366 -0.000144
367 0.000303
368 0.000425
369 0.000672
370 0.000875
371 0.001014
372 0.001080
373 0.001255
374 0.001069
375 0.000792
376 0.000728
377 0.000808
378 0.000874
379 0.000980
380 0.001300
381 0.001872
382 0.002160
383 0.002325
384 0.002391
385 0.002043
386 0.001665
387 0.001446
388 0.001206
389 0.001035
390 0.000899
391 0.000614
392 0.000288
393 0.000082
394 -0.000254
395 -0.000591
396 -0.000855
397 -0.000909
398 -0.001032
399 -0.000905
400 -0.000652
401 -0.000451
402 -0.000191
403 0.000147
404 0.000221
405 0.000251
406 0.000534
407 0.000587
408 0.000487
409 0.000374
410 0.000418
411 0.000392
412 0.000417
413 0.000580
414 0.000516
415 0.000176
416 -0.000082
417 -0.000224
418 -0.000385
419 -0.000430
420 -0.000435
421 -0.000315
422 -0.000255
423 -0.000217
424 0.000007
425 0.000520
426 0.000647
427 0.000932
428 0.001198
429 0.001405
430 0.001397
431 0.001269
432 0.001029
433 0.000959
434 0.000869
435 0.000883
436 0.000742
437 0.000636
438 0.000517
439 0.000398
440 0.000261
441 0.000373
442 0.000252
443 0.000057
444 0.000030
445 0.000089
446 0.000235
447 0.000422
448 0.000407
449 0.000541
450 0.000826
451 0.000992
452 0.001203
453 0.001266
454 0.001204
455 0.001208
456 0.001052
457 0.000902
458 0.000719
459 0.000503
460 0.000392
461 0.000357
462 0.000412
463 0.000647
464 0.000993
465 0.001189
466 0.001396
467 0.001500
468 0.001601
469 0.001433
470 0.001332
471 0.001182
472 0.000973
473 0.000592
474 0.000561
475 0.000501
476 0.000392
477 0.000465
478 0.000312
479 0.000281
480 0.000196
481 -0.000096
482 -0.000224
483 -0.000254
484 -0.000301
485 -0.000285
486 -0.000364
487 -0.000620
488 -0.000776
489 -0.001049
490 -0.001121
491 -0.001106
492 -0.001206
493 -0.000954
494 -0.000699
495 -0.000702
496 -0.000486
497 -0.000525
498 -0.000448
499 -0.000566
500 -0.000718
501 -0.000727
502 -0.000657
503 -0.000790
504 -0.000774
505 -0.000694
506 -0.000711
507 -0.000643
508 -0.000284
509 -0.000031
510 -0.000227
511 -0.000436
512 -0.000508
513 -0.000477
514 -0.000309
515 -0.000211
516 -0.000063
517 0.000003
518 0.000159
519 0.000243
520 0.000338
521 0.000435
522 0.000436
523 0.000392
524 0.000432
525 0.000586
526 0.000758
527 0.000798
528 0.000919
529 0.000889
530 0.000710
531 0.000422
532 0.000098
533 -0.000204
534 -0.000453
535 -0.000525
536 -0.000514
537 -0.000324
538 -0.000178
539 -0.000246
540 -0.000407
541 -0.000580
542 -0.000504
543 -0.000454
544 -0.000655
545 -0.000652
546 -0.000599
547 -0.000703
548 -0.000706
549 -0.000667
550 -0.000758
551 -0.000619
552 -0.000405
553 -0.000307
554 -0.000232
555 -0.000203
556 0.000005
557 0.000294
558 0.000322
559 0.000446
560 0.000516
561 0.000402
562 0.000553
563 0.000727
564 0.000931
565 0.001217
566 0.001300
567 0.001443
568 0.001439
569 0.001347
570 0.001133
571 0.001013
572 0.000807
573 0.000726
574 0.000644
575 0.000565
576 0.000479
577 0.000376
578 0.000215
579 0.000185
580 0.000196
581 0.000418
582 0.000851
583 0.000868
584 0.000774
585 0.000713
586 0.000723
587 0.000707
588 0.000685
589 0.000716
590 0.000764
591 0.000638
592 0.000720
593 0.000833
594 0.000892
595 0.000883
596 0.000683
597 0.000459
598 0.000258
599 0.000048
600 0.000074
601 0.000185
602 0.000115
603 0.000047
604 0.000064
605 0.000034
606 0.000011
607 -0.000040
608 0.000039
609 0.000131
610 0.000232
611 0.000329
612 0.000416
613 0.000405
614 0.000301
615 0.000282
616 0.000211
617 0.000140
618 -0.000142
619 -0.000322
620 -0.000141
621 -0.000290
622 -0.000324
623 -0.000331
624 -0.000306
625 -0.000047
626 0.000039
627 0.000030
628 0.000002
629 -0.000139
630 -0.000196
631 -0.000216
632 -0.000032
633 0.000214
634 0.000079
635 0.000180
636 0.000462
637 0.000662
638 0.000802
639 0.000794
640 0.000772
641 0.000678
642 0.000362
643 0.000146
644 -0.000096
645 -0.000353
646 -0.000536
647 -0.000756
648 -0.000811
649 -0.000749
650 -0.000701
651 -0.000672
652 -0.000597
653 -0.000409
654 -0.000250
655 -0.000176
656 -0.000059
657 0.000033
658 -0.000054
659 -0.000012
660 0.000067
661 0.000152
662 0.000186
663 0.000270
664 0.000316
665 0.000206
666 0.000211
667 0.000102
668 0.000002
669 -0.000069
670 -0.000244
671 -0.000322
672 -0.000288
673 -0.000181
674 -0.000049
675 0.000078
676 0.000214
677 0.000180
678 0.000136
679 0.000240
680 0.000295
681 0.000308
682 0.000253
683 0.000237
684 0.000152
685 -0.000144
686 -0.000368
687 -0.000509
688 -0.000605
689 -0.000747
690 -0.000805
691 -0.000771
692 -0.000727
693 -0.000670
694 -0.000538
695 -0.000448
696 -0.000276
697 -0.000111
698 0.000067
699 0.000227
700 0.000413
701 0.000587
702 0.000372
703 0.000208
704 0.000168
705 -0.000015
706 0.000013
707 -0.000044
708 -0.000206
709 -0.000305
710 -0.000431
711 -0.000564
712 -0.000536
713 -0.000612
714 -0.000767
715 -0.000906
716 -0.000947
717 -0.000892
718 -0.000827
719 -0.000696
720 -0.000412
721 -0.000147
722 0.000036
723 0.000121
724 0.000245
725 0.000324
726 0.000418
727 0.000439
728 0.000510
729 0.000351
730 0.000203
731 0.000177
732 0.000136
733 0.000005
734 -0.000002
735 0.000010
736 -0.000046
737 -0.000103
738 -0.000169
739 -0.000190
740 -0.000192
741 -0.000160
742 -0.000190
743 -0.000270
744 -0.000378
745 -0.000343
746 -0.000388
747 -0.000351
748 -0.000285
749 -0.000136
750 -0.000021
751 0.000152
752 0.000277
753 0.000363
754 0.000406
755 0.000518
756 0.000628
757 0.000606
758 0.000376
759 0.000288
760 0.000308
761 0.000346
762 0.000453
763 0.000521
764 0.000646
765 0.000792
766 0.000710
767 0.000633
768 0.000621
769 0.000596
770 0.000545
771 0.000502
772 0.000458
773 0.000382
774 0.000204
775 0.000188
776 0.000096
777 -0.000073
778 -0.000172
779 -0.000197
780 -0.000240
781 -0.000311
782 -0.000376
783 -0.000355
784 -0.000346
785 -0.000383
786 -0.000325
787 -0.000232
788 -0.000282
789 -0.000227
790 -0.000106
791 -0.000097
792 -0.000081
793 -0.000034
794 0.000074
795 0.000166
796 0.000249
797 0.000224
798 0.000188
799 0.000115
800 0.000009
801 -0.000163
802 -0.000268
803 -0.000285
804 -0.000359
805 -0.000367
806 -0.000411
807 -0.000470
808 -0.000479
809 -0.000472
