# i correlation
1 0.016636
2 0.013906
3 0.011724
4 0.010145
5 0.008822
6 0.007689
7 0.006976
8 0.006450
9 0.005674
10 0.004820
11 0.004034
12 0.003672
13 0.003469
14 0.003420
15 0.003248
16 0.002871
17 0.002608
18 0.002376
19 0.002162
20 0.002309
21 0.002681
22 0.003203
23 0.003468
24 0.003577
25 0.003615
26 0.003914
27 0.004185
28 0.004358
29 0.004203
30 0.003776
31 0.003204
32 0.002592
33 0.002271
34 0.001783
35 0.001737
36 0.001832
37 0.001821
38 0.001416
39 0.001064
40 0.000578
41 0.000362
42 0.000302
43 0.000206
44 0.000158
45 0.000117
46 0.000198
47 0.000301
48 0.000327
49 0.000546
50 0.000715
51 0.000818
52 0.000751
53 0.000968
54 0.001027
55 0.001146
56 0.001238
57 0.001387
58 0.001276
59 0.001382
60 0.001496
61 0.001858
62 0.002222
63 0.002388
64 0.002481
65 0.002771
66 0.002554
67 0.002563
68 0.002569
69 0.002644
70 0.002629
71 0.002612
72 0.002726
73 0.002628
74 0.002555
75 0.002465
76 0.002514
77 0.002696
78 0.002555
79 0.002567
80 0.002823
81 0.002862
82 0.003046
83 0.003175
84 0.003211
85 0.002896
86 0.002581
87 0.002338
88 0.002368
89 0.002526
90 0.002608
91 0.002602
92 0.002420
93 0.002258
94 0.001943
95 0.001767
96 0.001832
97 0.002149
98 0.002452
99 0.002382
100 0.002268
101 0.001895
102 0.001617
103 0.001306
104 0.001281
105 0.001382
106 0.001484
107 0.001462
108 0.001381
109 0.001153
110 0.001444
111 0.001689
112 0.001927
113 0.001743
114 0.001281
115 0.000839
116 0.000584
117 0.000544
118 0.000628
119 0.000675
120 0.000746
121 0.000762
122 0.000688
123 0.000441
124 0.000394
125 0.000520
126 0.000757
127 0.001074
128 0.001108
129 0.000955
130 0.001218
131 0.000928
132 0.001186
133 0.001543
134 0.002088
135 0.002473
136 0.002723
137 0.003164
138 0.003386
139 0.003686
140 0.003873
141 0.003592
142 0.003028
143 0.002448
144 0.002039
145 0.001726
146 0.001766
147 0.001859
148 0.002259
149 0.002323
150 0.002447
151 0.002513
152 0.002594
153 0.002597
154 0.002741
155 0.002417
156 0.002059
157 0.001535
158 0.001380
159 0.001209
160 0.001125
161 0.000964
162 0.000811
163 0.000917
164 0.000692
165 0.000705
166 0.000851
167 0.000856
168 0.000838
169 0.000604
170 0.000405
171 0.000217
172 -0.000194
173 -0.000265
174 -0.000322
175 -0.000341
176 -0.000293
177 -0.000100
178 0.000027
179 -0.000018
180 -0.000265
181 -0.000620
182 -0.000891
183 -0.000891
184 -0.001083
185 -0.001034
186 -0.001322
187 -0.001375
188 -0.001612
189 -0.001263
190 -0.001207
191 -0.001093
192 -0.001189
193 -0.001199
194 -0.001148
195 -0.000850
196 -0.000632
197 -0.000397
198 -0.000209
199 0.000099
200 0.000328
201 0.000542
202 0.000763
203 0.001037
204 0.001453
205 0.001442
206 0.000927
207 0.000744
208 0.000782
209 0.000813
210 0.001013
211 0.001034
212 0.001371
213 0.001889
214 0.002040
215 0.002453
216 0.002725
217 0.003009
218 0.003073
219 0.003025
220 0.002994
221 0.002735
222 0.002594
223 0.002271
224 0.001886
225 0.001950
226 0.002102
227 0.002289
228 0.002457
229 0.002438
230 0.002341
231 0.002152
232 0.001958
233 0.001901
234 0.001670
235 0.001467
236 0.001476
237 0.001495
238 0.001608
239 0.001649
240 0.001838
241 0.001609
242 0.001510
243 0.001139
244 0.000904
245 0.000651
246 0.000580
247 0.000564
248 0.000509
249 0.000356
250 0.000431
251 0.000581
252 0.000826
253 0.000631
254 0.000501
255 0.000211
256 0.000166
257 0.000199
258 0.000268
259 0.000260
260 0.000374
261 0.000318
262 0.000156
263 -0.000106
264 -0.000241
265 -0.000058
266 0.000049
267 -0.000045
268 -0.000261
269 -0.000331
270 -0.000382
271 -0.000536
272 -0.000910
273 -0.000928
274 -0.000595
275 -0.000100
276 0.000292
277 0.000501
278 0.000554
279 0.000416
280 0.000532
281 0.000368
282 0.000066
283 -0.000282
284 -0.000574
285 -0.000466
286 -0.000663
287 -0.000637
288 -0.000796
289 -0.000639
290 -0.000433
291 -0.000233
292 0.000093
293 0.000257
294 0.000113
295 0.000232
296 0.000067
297 -0.000008
298 0.000042
299 0.000093
300 0.000011
301 0.000210
302 0.000761
303 0.001170
304 0.001421
305 0.001742
306 0.002023
307 0.002373
308 0.002362
309 0.002295
310 0.002117
311 0.001931
312 0.001945
313 0.001867
314 0.001670
315 0.001372
316 0.001138
317 0.001136
318 0.000870
319 0.000702
320 0.000471
321 0.000367
322 0.000296
323 0.000084
324 0.000061
325 0.000067
326 0.000110
327 0.000224
328 0.000370
329 0.000692
330 0.000894
331 0.001287
332 0.001492
333 0.001512
334 0.001463
335 0.001310
336 0.001039
337 0.000988
338 0.001153
339 0.001363
340 0.001558
341 0.001524
342 0.001384
343 0.001353
344 0.001416
345 0.001643
346 0.001676
347 0.001805
348 0.001984
349 0.002156
350 0.002244
351 0.002177
352 0.002376
353 0.002450
354 0.002422
355 0.002456
356 0.002464
357 0.002355
358 0.002288
359 0.002133
360 0.001948
361 0.001795
362 0.001680
363 0.001665
364 0.001779
365 0.001659
366 0.001656
367 0.001846
368 0.001928
369 0.002087
370 0.002281
371 0.002355
372 0.002304
373 0.002410
374 0.002689
375 0.002754
376 0.002828
377 0.002582
378 0.002426
379 0.002543
380 0.002432
381 0.002321
382 0.002309
383 0.002040
384 0.001865
385 0.001439
386 0.001192
387 0.001070
388 0.001151
389 0.000906
390 0.000605
391 0.000423
392 0.000334
393 0.000244
394 0.000017
395 0.000007
396 0.000176
397 0.000283
398 0.000115
399 0.000046
400 0.000100
401 0.000006
402 0.000074
403 0.000118
404 0.000182
405 0.000091
406 0.000071
407 0.000089
408 -0.000007
409 0.000024
410 0.000250
411 0.000282
412 0.000385
413 0.000433
414 0.000409
415 0.000555
416 0.000523
417 0.000970
418 0.001060
419 0.001072
420 0.001046
421 0.000745
422 0.000406
423 0.000023
424 -0.000315
425 -0.000153
426 -0.000228
427 -0.000343
428 -0.000428
429 -0.000097
430 0.000322
431 0.000673
432 0.000849
433 0.001020
434 0.000832
435 0.000751
436 0.000559
437 0.000639
438 0.000668
439 0.000973
440 0.001118
441 0.001535
442 0.001731
443 0.002176
444 0.002466
445 0.002644
446 0.002789
447 0.002810
448 0.002614
449 0.002227
450 0.001982
451 0.001727
452 0.001539
453 0.001426
454 0.001339
455 0.001076
456 0.000986
457 0.000649
458 0.000475
459 0.000491
460 0.000479
461 0.000414
462 0.000176
463 -0.000097
464 -0.000224
465 -0.000064
466 0.000236
467 0.000288
468 0.000466
469 0.000719
470 0.000989
471 0.000999
472 0.001253
473 0.001284
474 0.001248
475 0.001154
476 0.001064
477 0.000756
478 0.000582
479 0.000614
480 0.000833
481 0.000789
482 0.000885
483 0.000632
484 0.000431
485 0.000228
486 -0.000040
487 -0.000116
488 -0.000258
489 -0.000527
490 -0.000884
491 -0.001177
492 -0.001220
493 -0.001194
494 -0.001116
495 -0.001070
496 -0.000979
497 -0.000745
498 -0.000725
499 -0.000704
500 -0.000626
501 -0.000492
502 -0.000144
503 0.000018
504 0.000088
505 -0.000011
506 -0.000019
507 0.000105
508 0.000373
509 0.000778
510 0.001001
511 0.001063
512 0.001078
513 0.000866
514 0.000589
515 0.000302
516 0.000090
517 0.000009
518 -0.000104
519 -0.000390
520 -0.000775
521 -0.000905
522 -0.000775
523 -0.000628
524 -0.000606
525 -0.000556
526 -0.000587
527 -0.000323
528 -0.000058
529 0.000273
530 0.000693
531 0.001011
532 0.001281
533 0.001328
534 0.001218
535 0.000980
536 0.000874
537 0.001016
538 0.000901
539 0.000668
540 0.000294
541 -0.000085
542 -0.000555
543 -0.000944
544 -0.001152
545 -0.001147
546 -0.001308
547 -0.001391
548 -0.001654
549 -0.001675
550 -0.001559
551 -0.001561
552 -0.001464
553 -0.001278
554 -0.001079
555 -0.001097
556 -0.001051
557 -0.001078
558 -0.000965
559 -0.000853
560 -0.000672
561 -0.000658
562 -0.000712
563 -0.000856
564 -0.001060
565 -0.001020
566 -0.000925
567 -0.000821
568 -0.000759
569 -0.000746
570 -0.000789
571 -0.000697
572 -0.000808
573 -0.000702
574 -0.000809
575 -0.000926
576 -0.001000
577 -0.000918
578 -0.000788
579 -0.000704
580 -0.000501
581 -0.000364
582 -0.000028
583 0.000224
584 0.000532
585 0.000729
586 0.000841
587 0.000882
588 0.000736
589 0.000533
590 0.000213
591 0.000018
592 0.000022
593 0.000078
594 -0.000011
595 -0.000197
596 -0.000313
597 -0.000470
598 -0.000692
599 -0.000820
600 -0.000875
601 -0.000926
602 -0.000987
603 -0.001185
604 -0.001178
605 -0.001152
606 -0.001047
607 -0.000973
608 -0.000831
609 -0.000624
610 -0.000378
611 -0.000289
612 -0.000048
613 -0.000016
614 0.000093
615 0.000208
616 0.000215
617 0.000153
618 -0.000003
619 -0.000006
620 0.000091
621 0.000177
622 0.000292
623 0.000053
624 -0.000130
625 -0.000466
626 -0.000604
627 -0.000721
628 -0.000923
629 -0.000926
630 -0.000797
631 -0.001166
632 -0.001327
633 -0.001355
634 -0.001300
635 -0.001146
636 -0.001004
637 -0.000955
638 -0.000945
639 -0.000890
640 -0.000940
641 -0.000990
642 -0.000899
643 -0.000684
644 -0.000504
645 -0.000398
646 -0.000525
647 -0.000555
648 -0.000544
649 -0.000465
650 -0.000223
651 -0.000097
652 -0.000174
653 -0.000427
654 -0.000646
655 -0.000834
656 -0.000855
657 -0.000683
658 -0.000392
659 -0.000133
660 -0.000038
661 -0.000065
662 -0.000099
663 -0.000195
664 -0.000283
665 -0.000290
666 -0.000165
667 -0.000159
668 -0.000201
669 -0.000153
670 -0.000135
671 -0.000075
672 -0.000078
673 -0.000008
674 -0.000112
675 -0.000346
676 -0.000544
677 -0.000403
678 -0.000125
679 -0.000000
680 0.000123
681 0.000181
682 0.000228
683 0.000394
684 0.000350
685 0.000199
686 0.000339
687 0.000590
688 0.000758
689 0.000779
690 0.000661
691 0.000531
692 0.000451
693 0.000276
694 0.000088
695 0.000143
696 0.000094
697 0.000020
698 -0.000118
699 -0.000296
700 -0.000310
701 -0.000266
702 -0.000311
703 -0.000394
704 -0.000473
705 -0.000404
706 -0.000442
707 -0.000571
708 -0.000715
709 -0.000792
710 -0.000756
711 -0.000799
712 -0.000665
713 -0.000641
714 -0.000582
715 -0.000654
716 -0.000642
717 -0.000538
718 -0.000515
719 -0.000421
720 -0.000363
721 -0.000412
722 -0.000183
723 -0.000015
724 0.000114
725 0.000187
726 0.000386
727 0.000567
728 0.000703
729 0.000618
730 0.000616
731 0.000668
732 0.000657
733 0.000481
734 0.000323
735 0.000100
736 -0.000062
737 -0.000200
738 -0.000400
739 -0.000539
740 -0.000445
741 -0.000409
742 -0.000414
743 -0.000464
744 -0.000517
745 -0.000470
746 -0.000358
747 -0.000213
748 -0.000020
749 0.000218
750 0.000347
751 0.000389
752 0.000432
753 0.000437
754 0.000440
755 0.000328
756 0.000201
757 0.000112
758 0.000058
759 -0.000027
760 -0.000047
761 -0.000079
762 0.000064
763 0.000101
764 0.000077
765 -0.000154
766 -0.000316
767 -0.000330
768 -0.000281
769 -0.000273
770 -0.000110
771 0.000015
772 0.000037
773 0.000095
774 0.000058
775 0.000051
776 0.000078
777 0.000141
778 0.000153
779 0.000072
780 -0.000050
781 -0.000157
782 -0.000227
783 -0.000299
784 -0.000273
785 -0.000258
786 -0.000327
787 -0.000371
788 -0.000307
789 -0.000177
790 0.000051
791 0.000246
792 0.000279
793 0.000331
794 0.000344
795 0.000316
796 0.000316
797 0.000228
798 0.000307
799 0.000455
800 0.000502
801 0.000466
802 0.000305
803 0.000162
804 0.000071
805 -0.000102
806 -0.000174
807 -0.000232
808 -0.000253
809 -0.000350
