# i correlation
1 0.016932
2 0.014531
3 0.012565
4 0.010809
5 0.009379
6 0.008211
7 0.007186
8 0.006334
9 0.005751
10 0.005254
11 0.004965
12 0.004664
13 0.004422
14 0.003976
15 0.003654
16 0.003217
17 0.002827
18 0.002433
19 0.002260
20 0.002135
21 0.001873
22 0.002005
23 0.002260
24 0.002413
25 0.002319
26 0.002204
27 0.002227
28 0.001846
29 0.001679
30 0.001374
31 0.001466
32 0.001431
33 0.001249
34 0.001012
35 0.000666
36 0.000348
37 0.000226
38 -0.000100
39 -0.000276
40 -0.000094
41 0.000045
42 0.000465
43 0.000739
44 0.000793
45 0.001008
46 0.001431
47 0.001739
48 0.001856
49 0.001938
50 0.001950
51 0.001919
52 0.001891
53 0.001756
54 0.001565
55 0.001633
56 0.001734
57 0.001878
58 0.001845
59 0.001870
60 0.001655
61 0.001210
62 0.001009
63 0.000554
64 0.000200
65 0.000195
66 0.000017
67 -0.000172
68 -0.000463
69 -0.000937
70 -0.001406
71 -0.001699
72 -0.001918
73 -0.002048
74 -0.002198
75 -0.002278
76 -0.002738
77 -0.003017
78 -0.002841
79 -0.002567
80 -0.002387
81 -0.002213
82 -0.001858
83 -0.001718
84 -0.001575
85 -0.001757
86 -0.002155
87 -0.002760
88 -0.003023
89 -0.003049
90 -0.003091
91 -0.002947
92 -0.002329
93 -0.001953
94 -0.001893
95 -0.002008
96 -0.002186
97 -0.002479
98 -0.002297
99 -0.002049
100 -0.001995
101 -0.001881
102 -0.001477
103 -0.001331
104 -0.000961
105 -0.000567
106 -0.000231
107 0.000105
108 0.000292
109 0.000484
110 0.000373
111 0.000373
112 0.000274
113 0.000062
114 0.000154
115 0.000398
116 0.000517
117 0.000730
118 0.000693
119 0.000506
120 -0.000072
121 -0.000401
122 -0.000528
123 -0.000559
124 -0.000473
125 -0.000310
126 -0.000096
127 -0.000103
128 -0.000269
129 -0.000200
130 -0.000403
131 -0.000582
132 -0.000774
133 -0.000936
134 -0.000997
135 -0.000852
136 -0.000821
137 -0.001060
138 -0.001128
139 -0.001330
140 -0.001268
141 -0.001176
142 -0.001268
143 -0.001403
144 -0.001551
145 -0.001628
146 -0.001759
147 -0.001834
148 -0.001671
149 -0.001446
150 -0.000997
151 -0.000855
152 -0.000513
153 -0.000326
154 -0.000126
155 -0.000241
156 -0.000449
157 -0.000466
158 -0.000130
159 0.000344
160 0.000949
161 0.001196
162 0.001425
163 0.001741
164 0.001976
165 0.002294
166 0.002475
167 0.002461
168 0.002237
169 0.001956
170 0.001366
171 0.000810
172 0.000632
173 0.000346
174 0.000346
175 0.000353
176 0.000210
177 0.000156
178 0.000058
179 0.000044
180 0.000158
181 0.000515
182 0.000672
183 0.000866
184 0.000922
185 0.000885
186 0.000921
187 0.000829
188 0.000460
189 0.000111
190 -0.000459
191 -0.000832
192 -0.000859
193 -0.000933
194 -0.000855
195 -0.000982
196 -0.000946
197 -0.000647
198 -0.000454
199 -0.000477
200 -0.000256
201 -0.000199
202 -0.000426
203 -0.000518
204 -0.000670
205 -0.000864
206 -0.000975
207 -0.000664
208 -0.000197
209 0.000276
210 0.000598
211 0.000869
212 0.001160
213 0.001082
214 0.000820
215 0.000683
216 0.000461
217 0.000222
218 0.000021
219 -0.000212
220 -0.000481
221 -0.000534
222 -0.000586
223 -0.000597
224 -0.000387
225 -0.000151
226 -0.000045
227 0.000157
228 0.000161
229 0.000008
230 -0.000125
231 -0.000236
232 -0.000217
233 -0.000158
234 0.000066
235 -0.000082
236 -0.000330
237 -0.000576
238 -0.000847
239 -0.001411
240 -0.001700
241 -0.001965
242 -0.002328
243 -0.002388
244 -0.002389
245 -0.002415
246 -0.002434
247 -0.002481
248 -0.002595
249 -0.002791
250 -0.003027
251 -0.003076
252 -0.003043
253 -0.003005
254 -0.002807
255 -0.002770
256 -0.002683
257 -0.002657
258 -0.002642
259 -0.002325
260 -0.002088
261 -0.002090
262 -0.002326
263 -0.002465
264 -0.002119
265 -0.001720
266 -0.001639
267 -0.001173
268 -0.000880
269 -0.000571
270 -0.000492
271 -0.000311
272 -0.000271
273 -0.000318
274 -0.000022
275 0.000175
276 0.000414
277 0.000678
278 0.001017
279 0.001311
280 0.001542
281 0.001647
282 0.001646
283 0.001770
284 0.001792
285 0.001746
286 0.001877
287 0.002075
288 0.002123
289 0.002054
290 0.002102
291 0.002185
292 0.002147
293 0.002105
294 0.001911
295 0.001376
296 0.001102
297 0.000835
298 0.000701
299 0.000285
300 -0.000101
301 -0.000217
302 -0.000386
303 -0.000458
304 -0.000706
305 -0.000791
306 -0.000766
307 -0.000709
308 -0.000633
309 -0.000506
310 -0.000280
311 -0.000066
312 0.000124
313 0.000210
314 0.000293
315 0.000420
316 0.000734
317 0.000896
318 0.001085
319 0.001241
320 0.001394
321 0.001427
322 0.001493
323 0.001490
324 0.001542
325 0.001514
326 0.001646
327 0.001882
328 0.001923
329 0.002011
330 0.002095
331 0.001899
332 0.001974
333 0.002276
334 0.002301
335 0.002298
336 0.002184
337 0.002117
338 0.001903
339 0.001908
340 0.001839
341 0.001847
342 0.001838
343 0.001792
344 0.001759
345 0.001698
346 0.001695
347 0.001766
348 0.001876
349 0.001949
350 0.001936
351 0.001731
352 0.001563
353 0.001575
354 0.001221
355 0.000841
356 0.000510
357 0.000263
358 -0.000042
359 -0.000224
360 -0.000330
361 -0.000413
362 -0.000192
363 0.000145
364 0.000352
365 0.000381
366 0.000325
367 0.000081
368 -0.000171
369 -0.000263
370 -0.000208
371 -0.000237
372 -0.000156
373 -0.000168
374 -0.000358
375 -0.000536
376 -0.000388
377 -0.000371
378 -0.000257
379 -0.000038
380 -0.000091
381 -0.000043
382 0.000105
383 0.000209
384 0.000318
385 0.000364
386 0.000456
387 0.000417
388 0.000214
389 -0.000083
390 -0.000028
391 -0.000035
392 -0.000008
393 0.000050
394 0.000212
395 0.000390
396 0.000679
397 0.000987
398 0.000983
399 0.000961
400 0.000908
401 0.000869
402 0.000559
403 0.000258
404 -0.000134
405 -0.000268
406 -0.000442
407 -0.000771
408 -0.001019
409 -0.001208
410 -0.001190
411 -0.001322
412 -0.001305
413 -0.001517
414 -0.001619
415 -0.001815
416 -0.001981
417 -0.002338
418 -0.002600
419 -0.002544
420 -0.002648
421 -0.002617
422 -0.002517
423 -0.002490
424 -0.002438
425 -0.002111
426 -0.001900
427 -0.001716
428 -0.001435
429 -0.001400
430 -0.001542
431 -0.001615
432 -0.001492
433 -0.001514
434 -0.001448
435 -0.001330
436 -0.001293
437 -0.001141
438 -0.000996
439 -0.000942
440 -0.001025
441 -0.000944
442 -0.000873
443 -0.000751
444 -0.000672
445 -0.000519
446 -0.000270
447 0.000003
448 0.000315
449 0.000361
450 0.000364
451 0.000470
452 0.000684
453 0.000722
454 0.000679
455 0.000592
456 0.000683
457 0.000639
458 0.000537
459 0.000397
460 0.000207
461 0.000056
462 -0.000009
463 -0.000202
464 -0.000429
465 -0.000627
466 -0.000916
467 -0.001184
468 -0.001286
469 -0.001399
470 -0.001535
471 -0.001625
472 -0.001601
473 -0.001707
474 -0.001663
475 -0.001425
476 -0.001324
477 -0.001239
478 -0.000992
479 -0.000584
480 -0.000079
481 0.000286
482 0.000405
483 0.000233
484 0.000155
485 0.000090
486 0.000073
487 0.000126
488 0.000167
489 0.000328
490 0.000545
491 0.000919
492 0.001114
493 0.001390
494 0.001650
495 0.002032
496 0.002150
497 0.002179
498 0.002106
499 0.002042
500 0.001892
501 0.001828
502 0.001807
503 0.001751
504 0.001609
505 0.001533
506 0.001450
507 0.001634
508 0.001742
509 0.001834
510 0.002031
511 0.002036
512 0.001841
513 0.001709
514 0.001861
515 0.002056
516 0.002217
517 0.002320
518 0.002403
519 0.002353
520 0.002437
521 0.002367
522 0.002149
523 0.001985
524 0.001937
525 0.001666
526 0.001405
527 0.001318
528 0.001046
529 0.000614
530 0.000338
531 0.000197
532 0.000062
533 -0.000095
534 -0.000279
535 -0.000524
536 -0.000673
537 -0.000717
538 -0.000794
539 -0.000705
540 -0.000587
541 -0.000469
542 -0.000211
543 -0.000151
544 -0.000020
545 0.000254
546 0.000558
547 0.000895
548 0.000947
549 0.000871
550 0.000806
551 0.000681
552 0.000493
553 0.000411
554 0.000423
555 0.000191
556 -0.000109
557 -0.000308
558 -0.000445
559 -0.000541
560 -0.000631
561 -0.000735
562 -0.000525
563 -0.000372
564 -0.000148
565 0.000124
566 0.000427
567 0.000430
568 0.000225
569 0.000100
570 0.000029
571 -0.000021
572 -0.000118
573 -0.000181
574 -0.000101
575 -0.000021
576 0.000036
577 0.000074
578 0.000037
579 0.000025
580 0.000020
581 0.000073
582 0.000038
583 -0.000035
584 -0.000215
585 -0.000385
586 -0.000471
587 -0.000574
588 -0.000593
589 -0.000376
590 -0.000206
591 -0.000036
592 0.000025
593 -0.000019
594 -0.000037
595 -0.000107
596 -0.000224
597 -0.000275
598 -0.000367
599 -0.000346
600 -0.000442
601 -0.000449
602 -0.000335
603 -0.000212
604 -0.000062
605 -0.000054
606 0.000164
607 0.000342
608 0.000489
609 0.000711
610 0.000769
611 0.000734
612 0.000830
613 0.000812
614 0.000759
615 0.000575
616 0.000617
617 0.000695
618 0.000625
619 0.000661
620 0.000754
621 0.000807
622 0.000925
623 0.000994
624 0.001048
625 0.001123
626 0.001199
627 0.001169
628 0.001091
629 0.001136
630 0.001145
631 0.001334
632 0.001429
633 0.001616
634 0.001687
635 0.001798
636 0.001887
637 0.001885
638 0.001979
639 0.002046
640 0.002047
641 0.001924
642 0.001674
643 0.001567
644 0.001676
645 0.001737
646 0.001861
647 0.001814
648 0.001793
649 0.001872
650 0.002086
651 0.002292
652 0.002261
653 0.002127
654 0.001982
655 0.001891
656 0.001896
657 0.001951
658 0.001925
659 0.001909
660 0.001841
661 0.001847
662 0.001849
663 0.001863
664 0.001803
665 0.001715
666 0.001490
667 0.001323
668 0.001189
669 0.001165
670 0.001249
671 0.001246
672 0.001287
673 0.001370
674 0.001464
675 0.001576
676 0.001631
677 0.001706
678 0.001635
679 0.001542
680 0.001482
681 0.001543
682 0.001654
683 0.001800
684 0.001849
685 0.001835
686 0.001721
687 0.001511
688 0.001334
689 0.001154
690 0.001074
691 0.000979
692 0.000773
693 0.000693
694 0.000507
695 0.000349
696 0.000456
697 0.000479
698 0.000428
699 0.000330
700 0.000246
701 0.000203
702 0.000157
703 0.000110
704 0.000103
705 0.000136
706 0.000238
707 0.000290
708 0.000356
709 0.000361
710 0.000257
711 0.000213
712 0.000220
713 0.000201
714 0.000101
715 -0.000026
716 -0.000096
717 -0.000248
718 -0.000390
719 -0.000390
720 -0.000413
721 -0.000495
722 -0.000641
723 -0.000746
724 -0.000882
725 -0.000891
726 -0.000862
727 -0.000787
728 -0.000694
729 -0.000623
730 -0.000544
731 -0.000442
732 -0.000289
733 -0.000194
734 -0.000088
735 -0.000019
736 0.000108
737 -0.000107
738 -0.000274
739 -0.000473
740 -0.000670
741 -0.000880
742 -0.001083
743 -0.001083
744 -0.001193
745 -0.001309
746 -0.001369
747 -0.001476
748 -0.001595
749 -0.001572
750 -0.001579
751 -0.001544
752 -0.001542
753 -0.001622
754 -0.001615
755 -0.001475
756 -0.001383
757 -0.001339
758 -0.001231
759 -0.001211
760 -0.001271
761 -0.001318
762 -0.001255
763 -0.001234
764 -0.001316
765 -0.001438
766 -0.001484
767 -0.001468
768 -0.001421
769 -0.001349
770 -0.001327
771 -0.001297
772 -0.001324
773 -0.001399
774 -0.001383
775 -0.001312
776 -0.001194
777 -0.001202
778 -0.001142
779 -0.001008
780 -0.000881
781 -0.000779
782 -0.000764
783 -0.000726
784 -0.000647
785 -0.000600
786 -0.000643
787 -0.000700
788 -0.000702
789 -0.000589
790 -0.000658
791 -0.000643
792 -0.000606
793 -0.000624
794 -0.000650
795 -0.000727
796 -0.000778
797 -0.000813
798 -0.000741
799 -0.000646
800 -0.000485
801 -0.000472
802 -0.000536
803 -0.000541
804 -0.000512
805 -0.000447
806 -0.000524
807 -0.000588
808 -0.000638
809 -0.000705
