# i correlation
1 0.022816
2 0.020189
3 0.017964
4 0.016258
5 0.014771
6 0.013421
7 0.012452
8 0.011984
9 0.011558
10 0.011556
11 0.011232
12 0.011071
13 0.010435
14 0.009691
15 0.009135
16 0.008750
17 0.008639
18 0.008405
19 0.008279
20 0.008408
21 0.008742
22 0.008897
23 0.008537
24 0.008246
25 0.008161
26 0.008114
27 0.007987
28 0.007757
29 0.007740
30 0.007515
31 0.007072
32 0.006857
33 0.006551
34 0.006480
35 0.006045
36 0.005961
37 0.006066
38 0.006131
39 0.006131
40 0.005999
41 0.005948
42 0.005919
43 0.005850
44 0.005749
45 0.005525
46 0.005281
47 0.005303
48 0.005170
49 0.005383
50 0.005797
51 0.005840
52 0.005593
53 0.005387
54 0.005296
55 0.005430
56 0.005623
57 0.005602
58 0.005863
59 0.006139
60 0.006276
61 0.006539
62 0.006752
63 0.007037
64 0.007405
65 0.007713
66 0.007825
67 0.007884
68 0.008036
69 0.007885
70 0.007695
71 0.007053
72 0.006166
73 0.005681
74 0.005055
75 0.004708
76 0.004678
77 0.004620
78 0.004787
79 0.004899
80 0.005099
81 0.005148
82 0.004989
83 0.004830
84 0.004345
85 0.004115
86 0.003911
87 0.003724
88 0.003644
89 0.003577
90 0.003799
91 0.004093
92 0.004217
93 0.004509
94 0.004546
95 0.004559
96 0.004594
97 0.004693
98 0.004891
99 0.004947
100 0.005130
101 0.004980
102 0.004683
103 0.004567
104 0.004606
105 0.004623
106 0.004558
107 0.004574
108 0.004734
109 0.004860
110 0.005221
111 0.005318
112 0.005557
113 0.005380
114 0.005184
115 0.005117
116 0.005147
117 0.005089
118 0.005171
119 0.005335
120 0.005623
121 0.005535
122 0.005427
123 0.005453
124 0.005286
125 0.005363
126 0.005156
127 0.004946
128 0.004393
129 0.003889
130 0.003802
131 0.003647
132 0.003432
133 0.003030
134 0.002827
135 0.002972
136 0.003034
137 0.003088
138 0.003414
139 0.003653
140 0.003839
141 0.003878
142 0.003982
143 0.003865
144 0.003832
145 0.004018
146 0.004047
147 0.004073
148 0.004285
149 0.004450
150 0.004500
151 0.004389
152 0.004331
153 0.004121
154 0.004012
155 0.003851
156 0.003650
157 0.003590
158 0.003467
159 0.003526
160 0.003679
161 0.003899
162 0.004000
163 0.004288
164 0.004451
165 0.004264
166 0.004230
167 0.004108
168 0.004153
169 0.004265
170 0.004664
171 0.004867
172 0.004953
173 0.004847
174 0.005081
175 0.005152
176 0.005439
177 0.005369
178 0.005209
179 0.005103
180 0.005281
181 0.005449
182 0.005616
183 0.005434
184 0.005153
185 0.004919
186 0.004972
187 0.004755
188 0.004988
189 0.005186
190 0.005323
191 0.005305
192 0.005183
193 0.005081
194 0.005165
195 0.005053
196 0.005032
197 0.005246
198 0.005410
199 0.005193
200 0.005181
201 0.005100
202 0.004929
203 0.004491
204 0.004380
205 0.004313
206 0.004345
207 0.004548
208 0.004924
209 0.005166
210 0.005499
211 0.005777
212 0.005632
213 0.005723
214 0.005305
215 0.005164
216 0.005017
217 0.004988
218 0.005253
219 0.005719
220 0.006015
221 0.006289
222 0.006073
223 0.006017
224 0.005865
225 0.005903
226 0.005879
227 0.005799
228 0.005736
229 0.005635
230 0.005737
231 0.006307
232 0.006748
233 0.006954
234 0.006978
235 0.007059
236 0.006893
237 0.006813
238 0.006906
239 0.007112
240 0.007501
241 0.007661
242 0.007723
243 0.007646
244 0.007521
245 0.007380
246 0.006996
247 0.006801
248 0.006600
249 0.006500
250 0.006728
251 0.006845
252 0.007066
253 0.007048
254 0.006769
255 0.006458
256 0.006328
257 0.006325
258 0.006226
259 0.006021
260 0.006018
261 0.006178
262 0.006385
263 0.006544
264 0.006651
265 0.006490
266 0.006147
267 0.005986
268 0.005876
269 0.005715
270 0.005641
271 0.005782
272 0.005718
273 0.005800
274 0.005914
275 0.005850
276 0.005727
277 0.005588
278 0.005369
279 0.005110
280 0.004937
281 0.004740
282 0.004531
283 0.004089
284 0.003796
285 0.003465
286 0.003371
287 0.003144
288 0.003263
289 0.003409
290 0.003919
291 0.004212
292 0.004585
293 0.004926
294 0.005088
295 0.005133
296 0.005078
297 0.005004
298 0.005105
299 0.004941
300 0.004966
301 0.005108
302 0.005178
303 0.004855
304 0.004553
305 0.004339
306 0.004188
307 0.003800
308 0.003400
309 0.003241
310 0.003204
311 0.003322
312 0.003290
313 0.003081
314 0.002926
315 0.002627
316 0.002442
317 0.002319
318 0.002417
319 0.002730
320 0.003273
321 0.003636
322 0.003909
323 0.003895
324 0.003854
325 0.003718
326 0.003580
327 0.003446
328 0.003214
329 0.003163
330 0.003159
331 0.003335
332 0.003561
333 0.003790
334 0.003736
335 0.003764
336 0.003642
337 0.003442
338 0.003465
339 0.003459
340 0.003671
341 0.003640
342 0.003690
343 0.004091
344 0.004345
345 0.004331
346 0.004112
347 0.003891
348 0.003678
349 0.003362
350 0.003144
351 0.003079
352 0.003049
353 0.002982
354 0.003048
355 0.003107
356 0.003437
357 0.003715
358 0.004178
359 0.004398
360 0.004879
361 0.005390
362 0.005872
363 0.006227
364 0.006466
365 0.006542
366 0.006383
367 0.006202
368 0.006066
369 0.005605
370 0.005649
371 0.005696
372 0.005715
373 0.005631
374 0.005591
375 0.005414
376 0.005434
377 0.005289
378 0.005035
379 0.004814
380 0.004680
381 0.004749
382 0.004612
383 0.004696
384 0.004760
385 0.004770
386 0.004442
387 0.004500
388 0.004573
389 0.004873
390 0.005136
391 0.005201
392 0.005056
393 0.004919
394 0.004824
395 0.004670
396 0.004398
397 0.004192
398 0.004053
399 0.004089
400 0.003982
401 0.004037
402 0.004205
403 0.004125
404 0.003900
405 0.003906
406 0.003959
407 0.003781
408 0.003539
409 0.003503
410 0.003465
411 0.003582
412 0.003428
413 0.003386
414 0.003225
415 0.003110
416 0.003086
417 0.003191
418 0.003258
419 0.003049
420 0.002897
421 0.003061
422 0.003212
423 0.003275
424 0.003111
425 0.002813
426 0.002792
427 0.002781
428 0.003017
429 0.003110
430 0.003197
431 0.003413
432 0.003670
433 0.003645
434 0.003615
435 0.003321
436 0.002927
437 0.002531
438 0.002317
439 0.002230
440 0.002252
441 0.002389
442 0.002405
443 0.002652
444 0.003048
445 0.003322
446 0.003364
447 0.003364
448 0.003094
449 0.002949
450 0.002946
451 0.003001
452 0.003247
453 0.003460
454 0.003725
455 0.003845
456 0.004035
457 0.003941
458 0.003923
459 0.003801
460 0.003669
461 0.003516
462 0.003223
463 0.003001
464 0.003001
465 0.003093
466 0.003174
467 0.003044
468 0.003145
469 0.003297
470 0.003608
471 0.003809
472 0.004073
473 0.004197
474 0.004257
475 0.004349
476 0.004144
477 0.003940
478 0.003787
479 0.003568
480 0.003544
481 0.003634
482 0.003829
483 0.004025
484 0.004126
485 0.003946
486 0.003803
487 0.003600
488 0.003417
489 0.003106
490 0.003026
491 0.002906
492 0.002961
493 0.002949
494 0.002853
495 0.002872
496 0.002840
497 0.002885
498 0.002520
499 0.002248
500 0.002034
501 0.001801
502 0.001696
503 0.001522
504 0.001238
505 0.001044
506 0.000927
507 0.000771
508 0.000835
509 0.001066
510 0.001093
511 0.001222
512 0.001391
513 0.001542
514 0.001644
515 0.001695
516 0.001896
517 0.002090
518 0.002133
519 0.002267
520 0.002412
521 0.002500
522 0.002609
523 0.002664
524 0.002621
525 0.002408
526 0.002300
527 0.002171
528 0.001820
529 0.001620
530 0.001535
531 0.001358
532 0.001358
533 0.001498
534 0.001753
535 0.001650
536 0.001579
537 0.001701
538 0.001829
539 0.001910
540 0.002013
541 0.002138
542 0.002361
543 0.002246
544 0.002184
545 0.002203
546 0.002229
547 0.002203
548 0.002245
549 0.002079
550 0.002033
551 0.001986
552 0.001897
553 0.001969
554 0.001887
555 0.001800
556 0.001817
557 0.001635
558 0.001591
559 0.001505
560 0.001395
561 0.001173
562 0.001062
563 0.000916
564 0.000853
565 0.000821
566 0.000764
567 0.000538
568 0.000288
569 0.000143
570 0.000326
571 0.000470
572 0.000650
573 0.000835
574 0.000863
575 0.000836
576 0.000893
577 0.000970
578 0.001048
579 0.001177
580 0.001193
581 0.001297
582 0.001449
583 0.001718
584 0.001783
585 0.001862
586 0.001846
587 0.002024
588 0.002165
589 0.002242
590 0.002228
591 0.002362
592 0.002640
593 0.002782
594 0.002781
595 0.002882
596 0.002987
597 0.003087
598 0.003115
599 0.003102
600 0.003324
601 0.003267
602 0.003330
603 0.003413
604 0.003537
605 0.003611
606 0.003694
607 0.003636
608 0.003565
609 0.003512
610 0.003494
611 0.003389
612 0.003235
613 0.003035
614 0.003019
615 0.003181
616 0.003301
617 0.003403
618 0.003484
619 0.003521
620 0.003691
621 0.003906
622 0.004070
623 0.004021
624 0.003857
625 0.003546
626 0.003329
627 0.003109
628 0.002952
629 0.002817
630 0.002672
631 0.002604
632 0.002823
633 0.002935
634 0.002993
635 0.003169
636 0.003386
637 0.003583
638 0.003732
639 0.003766
640 0.003731
641 0.003759
642 0.003922
643 0.003873
644 0.003765
645 0.003499
646 0.003283
647 0.003239
648 0.003039
649 0.002974
650 0.002819
651 0.002579
652 0.002532
653 0.002545
654 0.002749
655 0.002939
656 0.003095
657 0.003194
658 0.003368
659 0.003383
660 0.003288
661 0.003131
662 0.003048
663 0.003065
664 0.003163
665 0.003254
666 0.003340
667 0.003281
668 0.003197
669 0.003136
670 0.002973
671 0.002787
672 0.002600
673 0.002468
674 0.002222
675 0.002001
676 0.001815
677 0.001634
678 0.001397
679 0.001280
680 0.001154
681 0.001138
682 0.001039
683 0.001086
684 0.001127
685 0.001316
686 0.001442
687 0.001666
688 0.001782
689 0.001724
690 0.001601
691 0.001489
692 0.001346
693 0.001289
694 0.001181
695 0.000992
696 0.000876
697 0.000978
698 0.001012
699 0.000993
700 0.001012
701 0.001029
702 0.001107
703 0.001378
704 0.001493
705 0.001690
706 0.001799
707 0.001829
708 0.001862
709 0.001762
710 0.001684
711 0.001515
712 0.001276
713 0.001091
714 0.001032
715 0.001077
716 0.001155
717 0.001178
718 0.001293
719 0.001366
720 0.001436
721 0.001379
722 0.001452
723 0.001578
724 0.001561
725 0.001529
726 0.001289
727 0.001098
728 0.001031
729 0.000777
730 0.000609
731 0.000566
732 0.000543
733 0.000524
734 0.000557
735 0.000530
736 0.000424
737 0.000381
738 0.000310
739 0.000197
740 0.000106
741 0.000045
742 0.000008
743 -0.000131
744 -0.000138
745 -0.000071
746 0.000071
747 0.000173
748 0.000183
749 0.000184
750 0.000097
751 0.000105
752 0.000077
753 0.000120
754 0.000206
755 0.000272
756 0.000301
757 0.000269
758 0.000252
759 0.000265
760 0.000205
761 0.000321
762 0.000252
763 0.000224
764 0.000265
765 0.000230
766 0.000250
767 0.000220
768 0.000137
769 -0.000010
770 -0.000105
771 -0.000159
772 -0.000253
773 -0.000290
774 -0.000225
775 -0.000146
776 -0.000047
777 -0.000019
778 -0.000046
779 -0.000108
780 -0.000227
781 -0.000223
782 -0.000330
783 -0.000300
784 -0.000276
785 -0.000240
786 -0.000239
787 -0.000257
788 -0.000372
789 -0.000449
790 -0.000496
791 -0.000517
792 -0.000598
793 -0.000666
794 -0.000723
795 -0.000778
796 -0.000821
797 -0.000814
798 -0.000676
799 -0.000590
800 -0.000566
801 -0.000567
802 -0.000596
803 -0.000659
804 -0.000646
805 -0.000654
806 -0.000686
807 -0.000746
808 -0.000704
809 -0.000739
