# i correlation
1 0.018614
2 0.016197
3 0.014327
4 0.012628
5 0.011284
6 0.010312
7 0.009396
8 0.008487
9 0.007756
10 0.007414
11 0.006993
12 0.006456
13 0.005721
14 0.004961
15 0.004612
16 0.004234
17 0.004065
18 0.003531
19 0.002765
20 0.002066
21 0.001495
22 0.001164
23 0.001108
24 0.000859
25 0.000842
26 0.000792
27 0.000683
28 0.000655
29 0.000985
30 0.001020
31 0.000792
32 0.000584
33 0.000364
34 0.000454
35 0.000680
36 0.000913
37 0.000941
38 0.000996
39 0.000957
40 0.001010
41 0.001006
42 0.000666
43 0.000215
44 0.000163
45 -0.000013
46 -0.000062
47 -0.000090
48 -0.000375
49 -0.000420
50 -0.000145
51 0.000034
52 0.000361
53 0.000700
54 0.001001
55 0.001234
56 0.001199
57 0.001088
58 0.001014
59 0.001228
60 0.001380
61 0.001679
62 0.001830
63 0.001809
64 0.001681
65 0.001612
66 0.001663
67 0.001675
68 0.002065
69 0.002257
70 0.002306
71 0.002475
72 0.002614
73 0.002824
74 0.002934
75 0.003061
76 0.003406
77 0.003629
78 0.003775
79 0.003880
80 0.003959
81 0.003956
82 0.003812
83 0.003719
84 0.003623
85 0.003597
86 0.003687
87 0.003661
88 0.003852
89 0.004235
90 0.004337
91 0.004328
92 0.004051
93 0.003989
94 0.003817
95 0.003767
96 0.003711
97 0.003626
98 0.003530
99 0.003435
100 0.003304
101 0.003225
102 0.002959
103 0.002533
104 0.002305
105 0.002331
106 0.002537
107 0.002626
108 0.002702
109 0.002537
110 0.002177
111 0.001784
112 0.001970
113 0.001900
114 0.001878
115 0.001920
116 0.001812
117 0.001585
118 0.001620
119 0.001887
120 0.001710
121 0.001414
122 0.001241
123 0.000819
124 0.000668
125 0.000495
126 0.000349
127 0.000447
128 0.000307
129 0.000373
130 0.000301
131 -0.000001
132 -0.000393
133 -0.000496
134 -0.000526
135 -0.000462
136 -0.000308
137 -0.000045
138 0.000057
139 0.000130
140 0.000189
141 0.000194
142 0.000132
143 -0.000026
144 0.000027
145 0.000118
146 0.000497
147 0.000687
148 0.000779
149 0.000685
150 0.000759
151 0.000850
152 0.000903
153 0.001092
154 0.001314
155 0.001206
156 0.001028
157 0.001091
158 0.000991
159 0.000926
160 0.000726
161 0.000522
162 0.000363
163 0.000427
164 0.000306
165 0.000250
166 0.000386
167 0.000466
168 0.000729
169 0.001051
170 0.001395
171 0.001605
172 0.001392
173 0.001276
174 0.001500
175 0.001773
176 0.001798
177 0.001610
178 0.001511
179 0.001198
180 0.001035
181 0.001246
182 0.001484
183 0.001693
184 0.001662
185 0.001336
186 0.001309
187 0.001287
188 0.001629
189 0.002047
190 0.002320
191 0.002419
192 0.002750
193 0.002926
194 0.002850
195 0.002461
196 0.001977
197 0.001557
198 0.001374
199 0.001221
200 0.001315
201 0.001368
202 0.001318
203 0.001289
204 0.001415
205 0.001533
206 0.001332
207 0.001389
208 0.001289
209 0.001441
210 0.001432
211 0.001316
212 0.001254
213 0.001346
214 0.001284
215 0.001367
216 0.001332
217 0.001339
218 0.001321
219 0.001311
220 0.001379
221 0.001329
222 0.001453
223 0.001468
224 0.001509
225 0.001623
226 0.001746
227 0.001897
228 0.002053
229 0.001961
230 0.002250
231 0.002177
232 0.002234
233 0.002208
234 0.002449
235 0.002502
236 0.002482
237 0.002379
238 0.002216
239 0.002079
240 0.002035
241 0.001908
242 0.001729
243 0.001766
244 0.001907
245 0.001834
246 0.001806
247 0.001773
248 0.001495
249 0.001281
250 0.000940
251 0.000612
252 0.000454
253 0.000347
254 0.000353
255 0.000497
256 0.000536
257 0.000406
258 0.000229
259 0.000395
260 0.000373
261 0.000312
262 0.000509
263 0.000717
264 0.000833
265 0.001072
266 0.001420
267 0.001724
268 0.001792
269 0.001891
270 0.002016
271 0.002013
272 0.002066
273 0.002127
274 0.002141
275 0.001982
276 0.001651
277 0.001541
278 0.001437
279 0.001211
280 0.001022
281 0.000890
282 0.000767
283 0.000777
284 0.000756
285 0.000740
286 0.000343
287 0.000134
288 0.000082
289 0.000060
290 0.000221
291 0.000306
292 0.000186
293 0.000277
294 0.000306
295 0.000124
296 0.000095
297 0.000088
298 -0.000065
299 -0.000371
300 -0.000252
301 -0.000166
302 0.000175
303 0.000566
304 0.000706
305 0.000759
306 0.000699
307 0.000569
308 0.000641
309 0.000690
310 0.000711
311 0.000832
312 0.001023
313 0.001180
314 0.001450
315 0.001634
316 0.001761
317 0.001852
318 0.001715
319 0.001838
320 0.001774
321 0.001713
322 0.001726
323 0.002038
324 0.002197
325 0.002198
326 0.001903
327 0.001684
328 0.001635
329 0.001767
330 0.001687
331 0.001673
332 0.001508
333 0.001013
334 0.000843
335 0.000552
336 0.000190
337 -0.000118
338 -0.000111
339 -0.000227
340 0.000027
341 0.000216
342 0.000545
343 0.000689
344 0.000722
345 0.000741
346 0.000848
347 0.000758
348 0.000575
349 0.000458
350 0.000119
351 -0.000361
352 -0.000568
353 -0.000683
354 -0.000866
355 -0.000845
356 -0.000761
357 -0.000771
358 -0.000978
359 -0.001036
360 -0.001202
361 -0.001330
362 -0.001475
363 -0.001350
364 -0.001149
365 -0.001116
366 -0.001057
367 -0.000995
368 -0.000997
369 -0.001099
370 -0.001216
371 -0.001228
372 -0.001148
373 -0.001003
374 -0.000758
375 -0.000657
376 -0.000697
377 -0.000919
378 -0.000867
379 -0.000616
380 -0.000236
381 0.000119
382 0.000391
383 0.000660
384 0.000849
385 0.001054
386 0.001365
387 0.001340
388 0.000991
389 0.000610
390 0.000327
391 0.000168
392 0.000067
393 0.000030
394 -0.000174
395 -0.000266
396 -0.000263
397 -0.000106
398 -0.000039
399 -0.000071
400 -0.000308
401 -0.000637
402 -0.000789
403 -0.000675
404 -0.000709
405 -0.000986
406 -0.001183
407 -0.001504
408 -0.001523
409 -0.001154
410 -0.000816
411 -0.000756
412 -0.000835
413 -0.000961
414 -0.001220
415 -0.001402
416 -0.001490
417 -0.001800
418 -0.001944
419 -0.002129
420 -0.002136
421 -0.002020
422 -0.001812
423 -0.001730
424 -0.001401
425 -0.001288
426 -0.001313
427 -0.001414
428 -0.001448
429 -0.001596
430 -0.001858
431 -0.001962
432 -0.002105
433 -0.002071
434 -0.002195
435 -0.002097
436 -0.002032
437 -0.002111
438 -0.002111
439 -0.001946
440 -0.001889
441 -0.001739
442 -0.001822
443 -0.001774
444 -0.001772
445 -0.001887
446 -0.002018
447 -0.002120
448 -0.002233
449 -0.002247
450 -0.002012
451 -0.001852
452 -0.001783
453 -0.001619
454 -0.001392
455 -0.001364
456 -0.001350
457 -0.001232
458 -0.001292
459 -0.001215
460 -0.000974
461 -0.000762
462 -0.000424
463 -0.000230
464 0.000019
465 0.000213
466 0.000072
467 0.000058
468 0.000042
469 -0.000035
470 -0.000097
471 -0.000206
472 -0.000161
473 -0.000411
474 -0.000646
475 -0.000725
476 -0.000759
477 -0.000879
478 -0.000939
479 -0.000884
480 -0.000879
481 -0.001024
482 -0.001117
483 -0.001095
484 -0.001214
485 -0.001242
486 -0.001033
487 -0.000987
488 -0.001059
489 -0.001154
490 -0.001245
491 -0.001312
492 -0.001164
493 -0.001003
494 -0.000752
495 -0.000489
496 -0.000423
497 -0.000346
498 -0.000284
499 -0.000194
500 -0.000031
501 0.000080
502 0.000230
503 0.000325
504 0.000374
505 0.000559
506 0.000656
507 0.000717
508 0.000581
509 0.000583
510 0.000388
511 0.000029
512 -0.000173
513 -0.000519
514 -0.000723
515 -0.000894
516 -0.001107
517 -0.001225
518 -0.001276
519 -0.001344
520 -0.001610
521 -0.001829
522 -0.001867
523 -0.001960
524 -0.002024
525 -0.002024
526 -0.002018
527 -0.002148
528 -0.002258
529 -0.002361
530 -0.002359
531 -0.002393
532 -0.002251
533 -0.002035
534 -0.001870
535 -0.001836
536 -0.001604
537 -0.001233
538 -0.000842
539 -0.000538
540 -0.000343
541 -0.000172
542 -0.000159
543 -0.000271
544 -0.000359
545 -0.000458
546 -0.000620
547 -0.000638
548 -0.000719
549 -0.000617
550 -0.000458
551 -0.000286
552 -0.000297
553 -0.000303
554 -0.000305
555 -0.000100
556 0.000249
557 0.000601
558 0.000639
559 0.000657
560 0.000614
561 0.000458
562 0.000383
563 0.000302
564 0.000135
565 -0.000032
566 0.000020
567 0.000039
568 0.000247
569 0.000467
570 0.000523
571 0.000390
572 0.000443
573 0.000416
574 0.000313
575 0.000090
576 -0.000024
577 -0.000179
578 -0.000180
579 -0.000067
580 -0.000005
581 0.000062
582 0.000151
583 0.000095
584 0.000116
585 0.000200
586 0.000306
587 0.000451
588 0.000457
589 0.000367
590 0.000184
591 0.000177
592 0.000336
593 0.000351
594 0.000440
595 0.000462
596 0.000493
597 0.000444
598 0.000575
599 0.000758
600 0.000736
601 0.000610
602 0.000585
603 0.000433
604 0.000288
605 0.000080
606 -0.000174
607 -0.000369
608 -0.000519
609 -0.000667
610 -0.000769
611 -0.000976
612 -0.001265
613 -0.001419
614 -0.001523
615 -0.001703
616 -0.001862
617 -0.001901
618 -0.001892
619 -0.001870
620 -0.002030
621 -0.002037
622 -0.001982
623 -0.001929
624 -0.001910
625 -0.001915
626 -0.001961
627 -0.001874
628 -0.001760
629 -0.001640
630 -0.001642
631 -0.001658
632 -0.001765
633 -0.001735
634 -0.001729
635 -0.001762
636 -0.001846
637 -0.002053
638 -0.002060
639 -0.002091
640 -0.002059
641 -0.002093
642 -0.002172
643 -0.002249
644 -0.002349
645 -0.002261
646 -0.001985
647 -0.001817
648 -0.001689
649 -0.001667
650 -0.001705
651 -0.001835
652 -0.001982
653 -0.002093
654 -0.001970
655 -0.001914
656 -0.001833
657 -0.001658
658 -0.001409
659 -0.001200
660 -0.001061
661 -0.001050
662 -0.001060
663 -0.000968
664 -0.000909
665 -0.000749
666 -0.000740
667 -0.000903
668 -0.000891
669 -0.000815
670 -0.000837
671 -0.000863
672 -0.000849
673 -0.001071
674 -0.001188
675 -0.001137
676 -0.001010
677 -0.000865
678 -0.000841
679 -0.000882
680 -0.000823
681 -0.000846
682 -0.000938
683 -0.000881
684 -0.000746
685 -0.000695
686 -0.000637
687 -0.000396
688 -0.000213
689 -0.000113
690 0.000184
691 0.000270
692 0.000196
693 0.000079
694 0.000045
695 0.000099
696 0.000157
697 0.000207
698 0.000303
699 0.000439
700 0.000695
701 0.000813
702 0.000875
703 0.000796
704 0.000708
705 0.000549
706 0.000642
707 0.000678
708 0.000579
709 0.000529
710 0.000528
711 0.000355
712 0.000258
713 0.000186
714 0.000108
715 -0.000054
716 -0.000055
717 -0.000116
718 -0.000325
719 -0.000436
720 -0.000538
721 -0.000785
722 -0.000956
723 -0.001087
724 -0.001161
725 -0.001328
726 -0.001282
727 -0.001139
728 -0.001081
729 -0.001077
730 -0.001095
731 -0.001007
732 -0.001036
733 -0.001137
734 -0.001237
735 -0.001317
736 -0.001331
737 -0.001303
738 -0.001372
739 -0.001438
740 -0.001486
741 -0.001640
742 -0.001705
743 -0.001752
744 -0.001810
745 -0.001808
746 -0.001827
747 -0.001832
748 -0.001795
749 -0.001801
750 -0.001806
751 -0.001861
752 -0.001874
753 -0.001841
754 -0.001857
755 -0.001816
756 -0.001766
757 -0.001730
758 -0.001751
759 -0.001820
760 -0.001783
761 -0.001777
762 -0.001690
763 -0.001608
764 -0.001495
765 -0.001318
766 -0.001190
767 -0.000972
768 -0.000841
769 -0.000684
770 -0.000549
771 -0.000425
772 -0.000290
773 -0.000078
774 0.000101
775 0.000216
776 0.000327
777 0.000477
778 0.000621
779 0.000694
780 0.000642
781 0.000722
782 0.000783
783 0.000851
784 0.000979
785 0.001124
786 0.001098
787 0.001033
788 0.000998
789 0.001059
790 0.001019
791 0.001024
792 0.001208
793 0.001298
794 0.001276
795 0.001275
796 0.001325
797 0.001359
798 0.001354
799 0.001388
800 0.001402
801 0.001277
802 0.001264
803 0.001248
804 0.001207
805 0.001099
806 0.001107
807 0.001113
808 0.001085
809 0.001068
