# i correlation
1 0.019351
2 0.016511
3 0.014283
4 0.012237
5 0.010466
6 0.008879
7 0.007927
8 0.007325
9 0.006653
10 0.006114
11 0.005891
12 0.005563
13 0.005298
14 0.004986
15 0.004804
16 0.004763
17 0.004627
18 0.004559
19 0.004485
20 0.004330
21 0.003745
22 0.003465
23 0.003126
24 0.002994
25 0.002631
26 0.002167
27 0.001890
28 0.001733
29 0.001864
30 0.001852
31 0.002191
32 0.002596
33 0.003095
34 0.003682
35 0.004318
36 0.004831
37 0.005151
38 0.005413
39 0.005095
40 0.004692
41 0.004402
42 0.004147
43 0.003856
44 0.003691
45 0.003443
46 0.003166
47 0.002711
48 0.002495
49 0.002316
50 0.002413
51 0.002436
52 0.002713
53 0.003424
54 0.004037
55 0.004336
56 0.004640
57 0.004727
58 0.004778
59 0.004528
60 0.004450
61 0.004360
62 0.004545
63 0.004784
64 0.004943
65 0.004642
66 0.004663
67 0.004313
68 0.003925
69 0.003469
70 0.002995
71 0.002852
72 0.003047
73 0.003304
74 0.003734
75 0.003807
76 0.004010
77 0.004141
78 0.004050
79 0.004160
80 0.003818
81 0.003530
82 0.003410
83 0.003259
84 0.003077
85 0.002979
86 0.002851
87 0.002729
88 0.002675
89 0.002781
90 0.002698
91 0.002657
92 0.002677
93 0.002898
94 0.002556
95 0.002061
96 0.001842
97 0.001813
98 0.002073
99 0.002092
100 0.002134
101 0.002303
102 0.002103
103 0.001945
104 0.001899
105 0.001668
106 0.001429
107 0.001403
108 0.001481
109 0.001537
110 0.001613
111 0.001572
112 0.001409
113 0.001119
114 0.001062
115 0.001109
116 0.001327
117 0.001941
118 0.002478
119 0.002661
120 0.002920
121 0.002699
122 0.002380
123 0.002016
124 0.001760
125 0.001720
126 0.001770
127 0.002099
128 0.002217
129 0.002316
130 0.002365
131 0.001861
132 0.001526
133 0.001359
134 0.000941
135 0.000773
136 0.000573
137 0.000645
138 0.000621
139 0.000502
140 0.000282
141 0.000376
142 0.000743
143 0.000938
144 0.000830
145 0.001030
146 0.001225
147 0.000955
148 0.000254
149 0.000021
150 -0.000253
151 -0.000742
152 -0.000858
153 -0.000558
154 -0.000282
155 0.000105
156 0.000451
157 0.000876
158 0.000827
159 0.000380
160 0.000049
161 0.000165
162 0.000040
163 0.000061
164 0.000402
165 0.000569
166 0.000631
167 0.000651
168 0.000675
169 0.000736
170 0.000859
171 0.001011
172 0.001233
173 0.001225
174 0.001332
175 0.001399
176 0.001417
177 0.001441
178 0.001616
179 0.001960
180 0.002303
181 0.002555
182 0.002719
183 0.003016
184 0.003014
185 0.002796
186 0.002475
187 0.001935
188 0.001480
189 0.000874
190 0.000702
191 0.000963
192 0.000969
193 0.001382
194 0.001660
195 0.001593
196 0.001366
197 0.000808
198 0.000160
199 -0.000015
200 -0.000447
201 -0.000841
202 -0.001052
203 -0.001180
204 -0.001739
205 -0.002038
206 -0.002324
207 -0.002322
208 -0.002211
209 -0.002093
210 -0.001837
211 -0.001510
212 -0.001284
213 -0.000649
214 -0.000460
215 -0.000465
216 -0.000154
217 -0.000391
218 -0.000302
219 0.000031
220 0.000156
221 0.000425
222 0.000397
223 0.000303
224 0.000121
225 0.000070
226 0.000088
227 0.000118
228 0.000195
229 0.000398
230 0.000266
231 0.000300
232 0.000364
233 0.000338
234 0.000506
235 0.000587
236 0.000725
237 0.000843
238 0.001073
239 0.000924
240 0.000949
241 0.000695
242 0.000388
243 0.000019
244 -0.000349
245 -0.000314
246 -0.000098
247 0.000421
248 0.000863
249 0.001076
250 0.001103
251 0.000928
252 0.000724
253 0.000645
254 0.000450
255 0.000156
256 0.000002
257 0.000110
258 0.000261
259 0.000219
260 -0.000087
261 -0.000429
262 -0.000505
263 -0.000692
264 -0.000882
265 -0.000904
266 -0.001100
267 -0.001135
268 -0.001381
269 -0.001203
270 -0.001179
271 -0.001173
272 -0.000920
273 -0.000687
274 -0.000689
275 -0.000528
276 -0.000459
277 -0.000460
278 -0.000611
279 -0.000682
280 -0.000626
281 -0.000521
282 -0.000296
283 -0.000499
284 -0.000385
285 -0.000427
286 -0.000411
287 -0.000421
288 -0.000435
289 -0.000582
290 -0.000497
291 -0.000113
292 0.000025
293 0.000158
294 -0.000127
295 -0.000211
296 -0.000247
297 -0.000450
298 -0.000277
299 -0.000096
300 0.000335
301 0.000657
302 0.000927
303 0.001121
304 0.001017
305 0.000784
306 0.000562
307 0.000409
308 0.000181
309 0.000055
310 0.000178
311 0.000651
312 0.000925
313 0.001192
314 0.001226
315 0.001117
316 0.000846
317 0.000720
318 0.000304
319 0.000026
320 -0.000211
321 -0.000238
322 -0.000099
323 -0.000070
324 -0.000126
325 0.000100
326 0.000434
327 0.000665
328 0.000837
329 0.000801
330 0.000680
331 0.000404
332 -0.000118
333 -0.000543
334 -0.001019
335 -0.001169
336 -0.000825
337 -0.000601
338 -0.000226
339 0.000139
340 0.000431
341 0.000894
342 0.000838
343 0.000655
344 0.000571
345 0.000450
346 0.000636
347 0.000558
348 0.000590
349 0.000762
350 0.000722
351 0.000553
352 0.000519
353 0.000321
354 0.000127
355 0.000113
356 0.000136
357 0.000178
358 0.000479
359 0.000584
360 0.000433
361 0.000157
362 0.000066
363 0.000035
364 -0.000029
365 0.000331
366 0.000500
367 0.000596
368 0.000525
369 0.000528
370 0.000492
371 0.000419
372 0.000155
373 0.000111
374 0.000109
375 0.000082
376 -0.000038
377 0.000091
378 -0.000086
379 0.000052
380 0.000086
381 -0.000185
382 -0.000468
383 -0.000778
384 -0.000773
385 -0.000715
386 -0.000776
387 -0.000902
388 -0.001182
389 -0.001326
390 -0.001306
391 -0.001273
392 -0.001183
393 -0.000952
394 -0.000778
395 -0.000473
396 -0.000329
397 -0.000444
398 -0.000558
399 -0.000451
400 -0.000519
401 -0.000658
402 -0.000528
403 -0.000489
404 -0.000174
405 -0.000096
406 -0.000098
407 -0.000184
408 -0.000337
409 -0.000297
410 -0.000009
411 0.000227
412 0.000285
413 0.000328
414 0.000430
415 0.001016
416 0.001411
417 0.001451
418 0.001317
419 0.001323
420 0.001104
421 0.000982
422 0.000851
423 0.000582
424 0.000245
425 0.000115
426 0.000433
427 0.000629
428 0.000791
429 0.001108
430 0.001492
431 0.001984
432 0.002220
433 0.002278
434 0.002550
435 0.002476
436 0.002044
437 0.001791
438 0.001585
439 0.001506
440 0.001339
441 0.001091
442 0.000808
443 0.000413
444 -0.000084
445 -0.000416
446 -0.000604
447 -0.000670
448 -0.000429
449 -0.000193
450 0.000026
451 0.000018
452 0.000101
453 0.000057
454 -0.000251
455 -0.000609
456 -0.000857
457 -0.001081
458 -0.000974
459 -0.000916
460 -0.000749
461 -0.000683
462 -0.000898
463 -0.000679
464 -0.000600
465 -0.000600
466 -0.000323
467 -0.000265
468 -0.000109
469 0.000163
470 0.000369
471 0.000501
472 0.000895
473 0.001184
474 0.001512
475 0.001737
476 0.001883
477 0.001876
478 0.001927
479 0.001820
480 0.001449
481 0.001011
482 0.000751
483 0.000865
484 0.000950
485 0.000860
486 0.000631
487 0.000520
488 0.000312
489 0.000042
490 -0.000227
491 -0.000237
492 -0.000168
493 -0.000115
494 0.000203
495 0.000645
496 0.001085
497 0.001271
498 0.001318
499 0.000978
500 0.000701
501 0.000217
502 -0.000326
503 -0.000650
504 -0.000692
505 -0.000826
506 -0.000854
507 -0.000632
508 -0.000306
509 -0.000047
510 0.000115
511 0.000393
512 0.000769
513 0.001010
514 0.001238
515 0.001179
516 0.001434
517 0.001384
518 0.001099
519 0.000995
520 0.001047
521 0.000848
522 0.000630
523 0.000389
524 0.000166
525 -0.000035
526 -0.000221
527 -0.000170
528 -0.000198
529 -0.000125
530 -0.000107
531 -0.000109
532 0.000131
533 0.000156
534 0.000143
535 0.000079
536 0.000148
537 0.000084
538 0.000079
539 -0.000088
540 -0.000217
541 -0.000147
542 -0.000147
543 -0.000192
544 -0.000377
545 -0.000377
546 -0.000475
547 -0.000659
548 -0.000689
549 -0.000280
550 0.000163
551 0.000636
552 0.000994
553 0.001151
554 0.001301
555 0.001189
556 0.000988
557 0.000821
558 0.000762
559 0.000805
560 0.000808
561 0.000906
562 0.000912
563 0.000515
564 0.000189
565 -0.000001
566 -0.000134
567 -0.000205
568 -0.000047
569 0.000056
570 0.000220
571 0.000327
572 0.000527
573 0.000677
574 0.000739
575 0.000790
576 0.000818
577 0.000758
578 0.000679
579 0.000623
580 0.000639
581 0.000563
582 0.000438
583 0.000337
584 0.000411
585 0.000369
586 0.000592
587 0.000865
588 0.000997
589 0.001209
590 0.001412
591 0.001492
592 0.001582
593 0.001949
594 0.002196
595 0.002431
596 0.002577
597 0.002466
598 0.002447
599 0.002286
600 0.001940
601 0.001586
602 0.001312
603 0.001241
604 0.001155
605 0.001127
606 0.001229
607 0.001195
608 0.000911
609 0.000711
610 0.000577
611 0.000314
612 0.000227
613 0.000309
614 0.000325
615 0.000377
616 0.000369
617 0.000525
618 0.000701
619 0.000438
620 0.000222
621 0.000110
622 0.000106
623 -0.000128
624 -0.000147
625 -0.000013
626 0.000087
627 0.000309
628 0.000491
629 0.000660
630 0.000772
631 0.000576
632 0.000335
633 0.000229
634 0.000173
635 -0.000028
636 -0.000199
637 -0.000213
638 -0.000148
639 -0.000193
640 -0.000089
641 0.000020
642 0.000108
643 0.000121
644 0.000179
645 0.000202
646 0.000207
647 0.000157
648 0.000174
649 0.000242
650 0.000223
651 0.000220
652 0.000334
653 0.000560
654 0.000702
655 0.000749
656 0.000724
657 0.000834
658 0.000878
659 0.000842
660 0.000670
661 0.000552
662 0.000557
663 0.000638
664 0.000384
665 0.000222
666 0.000143
667 0.000079
668 0.000116
669 0.000113
670 0.000054
671 0.000105
672 0.000212
673 0.000200
674 0.000242
675 0.000299
676 0.000214
677 0.000183
678 0.000161
679 0.000207
680 0.000402
681 0.000397
682 0.000363
683 0.000255
684 0.000149
685 -0.000065
686 -0.000085
687 -0.000115
688 -0.000024
689 -0.000090
690 -0.000045
691 0.000197
692 0.000483
693 0.000476
694 0.000410
695 0.000236
696 0.000060
697 0.000004
698 -0.000105
699 -0.000176
700 -0.000241
701 -0.000357
702 -0.000555
703 -0.000733
704 -0.000803
705 -0.000954
706 -0.001035
707 -0.000825
708 -0.000584
709 -0.000597
710 -0.000613
711 -0.000459
712 -0.000369
713 -0.000337
714 -0.000326
715 -0.000214
716 -0.000001
717 0.000230
718 0.000180
719 0.000031
720 -0.000159
721 -0.000259
722 -0.000268
723 -0.000171
724 -0.000073
725 0.000111
726 0.000164
727 0.000141
728 0.000061
729 -0.000052
730 -0.000025
731 0.000053
732 0.000201
733 0.000259
734 0.000288
735 0.000296
736 0.000303
737 0.000296
738 0.000294
739 0.000327
740 0.000314
741 0.000260
742 0.000297
743 0.000180
744 0.000095
745 0.000189
746 0.000322
747 0.000429
748 0.000555
749 0.000432
750 0.000316
751 0.000233
752 0.000147
753 -0.000035
754 -0.000033
755 -0.000060
756 0.000029
757 0.000034
758 -0.000021
759 -0.000026
760 0.000032
761 -0.000006
762 -0.000130
763 -0.000138
764 -0.000100
765 -0.000023
766 -0.000071
767 -0.000003
768 -0.000049
769 -0.000119
770 -0.000070
771 -0.000084
772 -0.000119
773 -0.000123
774 -0.000065
775 0.000116
776 0.000246
777 0.000347
778 0.000458
779 0.000569
780 0.000644
781 0.000668
782 0.000641
783 0.000574
784 0.000558
785 0.000530
786 0.000459
787 0.000424
788 0.000375
789 0.000437
790 0.000567
791 0.000705
792 0.000786
793 0.000730
794 0.000649
795 0.000560
796 0.000543
797 0.000573
798 0.000616
799 0.000672
800 0.000753
801 0.000843
802 0.000883
803 0.000750
804 0.000685
805 0.000709
806 0.000638
807 0.000496
808 0.000458
809 0.000523
