# i correlation
1 0.025918
2 0.023475
3 0.021563
4 0.019715
5 0.017892
6 0.016146
7 0.014594
8 0.013116
9 0.011950
10 0.010674
11 0.009775
12 0.008956
13 0.008215
14 0.007634
15 0.007332
16 0.007157
17 0.006774
18 0.006123
19 0.005757
20 0.005768
21 0.005588
22 0.005164
23 0.005102
24 0.005102
25 0.005100
26 0.004888
27 0.004699
28 0.004493
29 0.004584
30 0.004416
31 0.004285
32 0.004349
33 0.004252
34 0.004362
35 0.004300
36 0.004367
37 0.004362
38 0.004112
39 0.003897
40 0.004060
41 0.004226
42 0.004156
43 0.004025
44 0.004057
45 0.003958
46 0.003883
47 0.003591
48 0.003192
49 0.002832
50 0.002010
51 0.001702
52 0.001422
53 0.001218
54 0.001191
55 0.001356
56 0.001544
57 0.001985
58 0.002188
59 0.002158
60 0.002118
61 0.002123
62 0.001980
63 0.002156
64 0.002525
65 0.003095
66 0.003519
67 0.003508
68 0.003496
69 0.003712
70 0.003936
71 0.004096
72 0.004199
73 0.004160
74 0.003867
75 0.003568
76 0.003375
77 0.003084
78 0.002840
79 0.002767
80 0.002975
81 0.003334
82 0.003335
83 0.002948
84 0.002634
85 0.002348
86 0.002092
87 0.001657
88 0.001255
89 0.000670
90 0.000389
91 -0.000166
92 -0.000678
93 -0.001043
94 -0.001449
95 -0.001607
96 -0.001878
97 -0.001946
98 -0.002003
99 -0.002013
100 -0.001905
101 -0.001304
102 -0.001024
103 -0.000985
104 -0.000702
105 -0.000382
106 0.000184
107 0.000343
108 0.000154
109 -0.000096
110 -0.000256
111 -0.000324
112 -0.000414
113 -0.000426
114 -0.000526
115 -0.000855
116 -0.000959
117 -0.001316
118 -0.001808
119 -0.002322
120 -0.002964
121 -0.003408
122 -0.003536
123 -0.003746
124 -0.003913
125 -0.004113
126 -0.003863
127 -0.003581
128 -0.003271
129 -0.002810
130 -0.002445
131 -0.002256
132 -0.001982
133 -0.001676
134 -0.001603
135 -0.001557
136 -0.001235
137 -0.000964
138 -0.000798
139 -0.000394
140 -0.000255
141 -0.000147
142 -0.000412
143 -0.000475
144 -0.000495
145 -0.000770
146 -0.000685
147 -0.000737
148 -0.000917
149 -0.001071
150 -0.001201
151 -0.001469
152 -0.001856
153 -0.001783
154 -0.001878
155 -0.002194
156 -0.002552
157 -0.002680
158 -0.002940
159 -0.003227
160 -0.003370
161 -0.003548
162 -0.003605
163 -0.003844
164 -0.004151
165 -0.004165
166 -0.003849
167 -0.003693
168 -0.003592
169 -0.003612
170 -0.003162
171 -0.002704
172 -0.002153
173 -0.001923
174 -0.001791
175 -0.001751
176 -0.002072
177 -0.002115
178 -0.001920
179 -0.002170
180 -0.002182
181 -0.001763
182 -0.001380
183 -0.001116
184 -0.001239
185 -0.001190
186 -0.000795
187 -0.000415
188 -0.000161
189 -0.000483
190 -0.000905
191 -0.001319
192 -0.001411
193 -0.001793
194 -0.002192
195 -0.002204
196 -0.002242
197 -0.002311
198 -0.002265
199 -0.002326
200 -0.002537
201 -0.002555
202 -0.002424
203 -0.002346
204 -0.002254
205 -0.002652
206 -0.002812
207 -0.002811
208 -0.002707
209 -0.002818
210 -0.002712
211 -0.002505
212 -0.001934
213 -0.001300
214 -0.000879
215 -0.000103
216 0.000499
217 0.001168
218 0.001916
219 0.002665
220 0.002959
221 0.002925
222 0.002963
223 0.002797
224 0.002813
225 0.002624
226 0.002274
227 0.001809
228 0.001501
229 0.001585
230 0.001568
231 0.001484
232 0.001111
233 0.000826
234 0.000461
235 0.000174
236 -0.000285
237 -0.000757
238 -0.000935
239 -0.001147
240 -0.001349
241 -0.001333
242 -0.001097
243 -0.000975
244 -0.000616
245 -0.000153
246 -0.000073
247 0.000089
248 0.000143
249 -0.000097
250 -0.000278
251 -0.000397
252 -0.000575
253 -0.000466
254 -0.000365
255 -0.000132
256 -0.000198
257 -0.000557
258 -0.000502
259 -0.000331
260 -0.000165
261 0.000047
262 0.000073
263 0.000376
264 0.000382
265 0.000523
266 0.000676
267 0.001080
268 0.001820
269 0.002231
270 0.002680
271 0.002995
272 0.003413
273 0.003821
274 0.004133
275 0.004494
276 0.004994
277 0.005207
278 0.005336
279 0.005336
280 0.005375
281 0.005346
282 0.005332
283 0.005249
284 0.005328
285 0.005079
286 0.004815
287 0.004606
288 0.004183
289 0.004016
290 0.003795
291 0.003278
292 0.003017
293 0.002735
294 0.002304
295 0.001808
296 0.001395
297 0.001261
298 0.001057
299 0.001340
300 0.001747
301 0.001938
302 0.002005
303 0.001980
304 0.002007
305 0.002004
306 0.001721
307 0.001305
308 0.000954
309 0.000500
310 0.000432
311 0.000495
312 0.000755
313 0.001007
314 0.001013
315 0.001094
316 0.001226
317 0.001478
318 0.001584
319 0.001945
320 0.002059
321 0.002405
322 0.002356
323 0.002162
324 0.002119
325 0.002140
326 0.002350
327 0.002627
328 0.002994
329 0.003320
330 0.003331
331 0.003250
332 0.003409
333 0.003358
334 0.003220
335 0.003165
336 0.003277
337 0.003181
338 0.002873
339 0.002487
340 0.002203
341 0.001953
342 0.001689
343 0.001316
344 0.001155
345 0.000990
346 0.001025
347 0.001090
348 0.001342
349 0.001655
350 0.001737
351 0.001734
352 0.002026
353 0.002498
354 0.002847
355 0.003102
356 0.003404
357 0.003668
358 0.003882
359 0.003939
360 0.003730
361 0.003672
362 0.003387
363 0.002982
364 0.002724
365 0.002551
366 0.002314
367 0.001936
368 0.001524
369 0.001358
370 0.001343
371 0.001023
372 0.000642
373 0.000434
374 0.000306
375 0.000159
376 0.000044
377 -0.000018
378 -0.000267
379 -0.000467
380 -0.000768
381 -0.000958
382 -0.000915
383 -0.000939
384 -0.000708
385 -0.000423
386 -0.000220
387 -0.000047
388 0.000225
389 0.000376
390 0.000545
391 0.000699
392 0.000701
393 0.000746
394 0.000715
395 0.000483
396 0.000256
397 -0.000006
398 -0.000191
399 -0.000368
400 -0.000362
401 -0.000307
402 -0.000233
403 -0.000123
404 -0.000163
405 -0.000085
406 -0.000105
407 -0.000098
408 -0.000401
409 -0.000723
410 -0.001195
411 -0.001418
412 -0.001723
413 -0.002075
414 -0.002312
415 -0.002842
416 -0.003033
417 -0.003181
418 -0.003348
419 -0.003305
420 -0.003285
421 -0.003277
422 -0.003099
423 -0.003035
424 -0.003468
425 -0.003613
426 -0.003639
427 -0.003861
428 -0.003839
429 -0.003914
430 -0.003935
431 -0.004066
432 -0.004242
433 -0.004280
434 -0.004369
435 -0.004501
436 -0.004619
437 -0.004625
438 -0.004716
439 -0.004980
440 -0.005077
441 -0.004997
442 -0.005056
443 -0.004775
444 -0.004887
445 -0.004870
446 -0.004639
447 -0.004487
448 -0.004327
449 -0.004274
450 -0.004335
451 -0.004404
452 -0.004704
453 -0.005028
454 -0.005041
455 -0.004972
456 -0.004991
457 -0.004988
458 -0.004922
459 -0.004801
460 -0.004549
461 -0.004430
462 -0.004319
463 -0.003992
464 -0.003847
465 -0.003552
466 -0.003154
467 -0.002800
468 -0.002550
469 -0.002624
470 -0.002426
471 -0.002264
472 -0.002181
473 -0.002290
474 -0.002242
475 -0.002228
476 -0.002318
477 -0.002382
478 -0.002411
479 -0.002387
480 -0.002579
481 -0.002937
482 -0.003213
483 -0.003156
484 -0.003152
485 -0.003107
486 -0.003038
487 -0.002967
488 -0.002914
489 -0.002763
490 -0.002742
491 -0.002858
492 -0.002865
493 -0.002722
494 -0.002624
495 -0.002482
496 -0.002468
497 -0.002497
498 -0.002384
499 -0.002252
500 -0.001950
501 -0.001719
502 -0.001424
503 -0.001185
504 -0.000990
505 -0.000790
506 -0.000523
507 -0.000429
508 -0.000271
509 -0.000109
510 -0.000290
511 -0.000405
512 -0.000472
513 -0.000702
514 -0.000839
515 -0.000956
516 -0.001080
517 -0.001199
518 -0.001252
519 -0.001309
520 -0.001383
521 -0.001524
522 -0.001786
523 -0.001799
524 -0.001841
525 -0.001900
526 -0.001964
527 -0.002125
528 -0.002353
529 -0.002448
530 -0.002477
531 -0.002568
532 -0.002456
533 -0.002381
534 -0.002569
535 -0.002503
536 -0.002232
537 -0.001977
538 -0.001837
539 -0.001611
540 -0.001427
541 -0.001200
542 -0.000838
543 -0.000543
544 -0.000185
545 0.000081
546 0.000179
547 0.000440
548 0.000746
549 0.000971
550 0.001196
551 0.001345
552 0.001523
553 0.001618
554 0.001617
555 0.001621
556 0.001656
557 0.001571
558 0.001476
559 0.001450
560 0.001449
561 0.001318
562 0.001273
563 0.001112
564 0.000792
565 0.000521
566 0.000297
567 0.000119
568 -0.000249
569 -0.000526
570 -0.000982
571 -0.001107
572 -0.001124
573 -0.001050
574 -0.000900
575 -0.000976
576 -0.000898
577 -0.000763
578 -0.000668
579 -0.000708
580 -0.000782
581 -0.000634
582 -0.000632
583 -0.000545
584 -0.000352
585 -0.000316
586 -0.000356
587 -0.000353
588 -0.000258
589 -0.000216
590 -0.000089
591 -0.000240
592 -0.000356
593 -0.000631
594 -0.000980
595 -0.001339
596 -0.001657
597 -0.001775
598 -0.002099
599 -0.002330
600 -0.002415
601 -0.002350
602 -0.002219
603 -0.001999
604 -0.001710
605 -0.001395
606 -0.001108
607 -0.000814
608 -0.000515
609 -0.000241
610 -0.000209
611 0.000003
612 0.000033
613 0.000156
614 0.000362
615 0.000462
616 0.000563
617 0.000513
618 0.000536
619 0.000493
620 0.000489
621 0.000565
622 0.000734
623 0.000676
624 0.000703
625 0.000877
626 0.000911
627 0.000716
628 0.000572
629 0.000723
630 0.000823
631 0.000773
632 0.000866
633 0.001137
634 0.001309
635 0.001253
636 0.001140
637 0.000982
638 0.000919
639 0.000783
640 0.000429
641 0.000163
642 0.000001
643 -0.000323
644 -0.000683
645 -0.000915
646 -0.001015
647 -0.001048
648 -0.001104
649 -0.000833
650 -0.000728
651 -0.000689
652 -0.000787
653 -0.000751
654 -0.000760
655 -0.000717
656 -0.000636
657 -0.000765
658 -0.000660
659 -0.000473
660 -0.000423
661 -0.000347
662 -0.000248
663 -0.000282
664 -0.000517
665 -0.000562
666 -0.000398
667 -0.000376
668 -0.000401
669 -0.000306
670 -0.000127
671 -0.000004
672 0.000044
673 0.000059
674 0.000184
675 0.000284
676 0.000373
677 0.000365
678 0.000439
679 0.000508
680 0.000697
681 0.000848
682 0.001003
683 0.001107
684 0.001059
685 0.000910
686 0.000839
687 0.000889
688 0.000873
689 0.000875
690 0.001047
691 0.001151
692 0.001108
693 0.001099
694 0.001063
695 0.001067
696 0.000992
697 0.000967
698 0.001060
699 0.001089
700 0.000968
701 0.000819
702 0.000650
703 0.000526
704 0.000446
705 0.000382
706 0.000421
707 0.000412
708 0.000323
709 0.000145
710 0.000016
711 -0.000262
712 -0.000468
713 -0.000734
714 -0.000977
715 -0.001049
716 -0.001158
717 -0.001341
718 -0.001597
719 -0.001755
720 -0.001780
721 -0.001703
722 -0.001696
723 -0.001711
724 -0.001525
725 -0.001419
726 -0.001427
727 -0.001391
728 -0.001369
729 -0.001360
730 -0.001286
731 -0.001126
732 -0.001053
733 -0.000992
734 -0.000971
735 -0.000896
736 -0.001011
737 -0.000985
738 -0.000964
739 -0.000919
740 -0.000778
741 -0.000568
742 -0.000544
743 -0.000401
744 -0.000330
745 -0.000237
746 -0.000217
747 -0.000186
748 -0.000068
749 0.000155
750 0.000260
751 0.000283
752 0.000334
753 0.000298
754 0.000303
755 0.000391
756 0.000408
757 0.000409
758 0.000413
759 0.000423
760 0.000535
761 0.000629
762 0.000693
763 0.000655
764 0.000723
765 0.000805
766 0.000839
767 0.000835
768 0.000818
769 0.000911
770 0.001052
771 0.001160
772 0.001136
773 0.001146
774 0.001188
775 0.001251
776 0.001327
777 0.001363
778 0.001435
779 0.001586
780 0.001512
781 0.001498
782 0.001495
783 0.001436
784 0.001316
785 0.001249
786 0.001250
787 0.001175
788 0.001051
789 0.000949
790 0.000813
791 0.000564
792 0.000344
793 0.000151
794 -0.000017
795 -0.000232
796 -0.000333
797 -0.000512
798 -0.000602
799 -0.000839
800 -0.000933
801 -0.001100
802 -0.001200
803 -0.001166
804 -0.001126
805 -0.001099
806 -0.001059
807 -0.001044
808 -0.001150
809 -0.001278
