# i correlation
1 0.017690
2 0.014522
3 0.012296
4 0.010705
5 0.009160
6 0.007900
7 0.006841
8 0.005832
9 0.004969
10 0.004125
11 0.003304
12 0.002803
13 0.002586
14 0.002454
15 0.002418
16 0.002495
17 0.002487
18 0.002376
19 0.002645
20 0.002671
21 0.002636
22 0.002673
23 0.003359
24 0.003866
25 0.004345
26 0.004399
27 0.004633
28 0.004736
29 0.004472
30 0.004214
31 0.003841
32 0.003259
33 0.002860
34 0.002227
35 0.001499
36 0.001131
37 0.000812
38 0.000353
39 -0.000108
40 -0.000465
41 -0.000822
42 -0.001181
43 -0.001349
44 -0.001469
45 -0.001230
46 -0.000826
47 -0.000765
48 -0.000996
49 -0.001169
50 -0.001152
51 -0.001185
52 -0.001301
53 -0.001008
54 -0.000477
55 -0.000453
56 -0.000703
57 -0.001118
58 -0.001136
59 -0.001403
60 -0.001440
61 -0.001078
62 -0.001102
63 -0.001377
64 -0.001670
65 -0.001624
66 -0.001668
67 -0.001907
68 -0.002058
69 -0.001627
70 -0.001241
71 -0.001008
72 -0.000724
73 -0.000238
74 -0.000024
75 0.000222
76 0.000272
77 0.000291
78 0.000502
79 0.000700
80 0.000812
81 0.000653
82 0.000555
83 0.000162
84 -0.000028
85 -0.000122
86 -0.000215
87 -0.000183
88 -0.000014
89 0.000224
90 0.000085
91 -0.000057
92 -0.000087
93 -0.000537
94 -0.000812
95 -0.000979
96 -0.000988
97 -0.001213
98 -0.001477
99 -0.001639
100 -0.001827
101 -0.001501
102 -0.001148
103 -0.000624
104 -0.000092
105 0.000500
106 0.000980
107 0.001350
108 0.001426
109 0.001478
110 0.001354
111 0.001409
112 0.001661
113 0.001381
114 0.001062
115 0.001069
116 0.001070
117 0.001130
118 0.001161
119 0.001286
120 0.001278
121 0.001433
122 0.001538
123 0.001599
124 0.001596
125 0.001608
126 0.001403
127 0.001180
128 0.001218
129 0.001360
130 0.001473
131 0.002070
132 0.002453
133 0.002339
134 0.002177
135 0.002153
136 0.002316
137 0.002537
138 0.002564
139 0.002251
140 0.001907
141 0.001815
142 0.001807
143 0.001744
144 0.001630
145 0.001888
146 0.001975
147 0.002097
148 0.002099
149 0.002150
150 0.002529
151 0.002731
152 0.002633
153 0.002258
154 0.002206
155 0.002223
156 0.002154
157 0.002411
158 0.002623
159 0.002885
160 0.002948
161 0.003087
162 0.003179
163 0.002902
164 0.002714
165 0.002592
166 0.002569
167 0.002234
168 0.001854
169 0.001504
170 0.001324
171 0.001258
172 0.001089
173 0.000555
174 0.000239
175 0.000165
176 0.000180
177 0.000268
178 0.000491
179 0.000544
180 0.000321
181 0.000239
182 0.000141
183 0.000123
184 0.000019
185 -0.000006
186 0.000028
187 0.000185
188 0.000282
189 0.000016
190 -0.000331
191 -0.000555
192 -0.000726
193 -0.000748
194 -0.001093
195 -0.001074
196 -0.001286
197 -0.001554
198 -0.001788
199 -0.002037
200 -0.002097
201 -0.002045
202 -0.002047
203 -0.002040
204 -0.001769
205 -0.001528
206 -0.001259
207 -0.000944
208 -0.000604
209 -0.000419
210 -0.000317
211 -0.000218
212 -0.000137
213 -0.000250
214 -0.000483
215 -0.000794
216 -0.001018
217 -0.001260
218 -0.001543
219 -0.001695
220 -0.001808
221 -0.002023
222 -0.002476
223 -0.002865
224 -0.003000
225 -0.003179
226 -0.002983
227 -0.002855
228 -0.002617
229 -0.002525
230 -0.002476
231 -0.002280
232 -0.002043
233 -0.001715
234 -0.001200
235 -0.000603
236 -0.000140
237 0.000015
238 0.000110
239 0.000095
240 -0.000235
241 -0.000578
242 -0.000743
243 -0.000659
244 -0.000647
245 -0.000934
246 -0.001148
247 -0.001207
248 -0.001477
249 -0.001350
250 -0.001392
251 -0.001314
252 -0.001225
253 -0.000993
254 -0.000874
255 -0.000666
256 -0.000458
257 -0.000424
258 -0.000480
259 -0.000404
260 -0.000304
261 -0.000407
262 -0.000420
263 -0.000361
264 -0.000400
265 -0.000204
266 0.000062
267 0.000197
268 -0.000063
269 -0.000155
270 -0.000165
271 -0.000235
272 -0.000541
273 -0.000785
274 -0.000765
275 -0.000955
276 -0.001285
277 -0.001495
278 -0.001696
279 -0.001792
280 -0.001684
281 -0.001380
282 -0.000750
283 -0.000131
284 0.000522
285 0.001078
286 0.001548
287 0.002087
288 0.002481
289 0.002835
290 0.003270
291 0.003328
292 0.003194
293 0.003178
294 0.003082
295 0.003006
296 0.002996
297 0.003184
298 0.003059
299 0.002889
300 0.002698
301 0.002116
302 0.001612
303 0.001166
304 0.000781
305 0.000647
306 0.000512
307 0.000571
308 0.000657
309 0.000619
310 0.000873
311 0.001130
312 0.001165
313 0.001485
314 0.001740
315 0.001739
316 0.001991
317 0.002180
318 0.002559
319 0.002646
320 0.002818
321 0.002656
322 0.002509
323 0.002441
324 0.002630
325 0.002736
326 0.002507
327 0.002173
328 0.001984
329 0.001467
330 0.001090
331 0.000630
332 0.000237
333 0.000006
334 -0.000410
335 -0.000913
336 -0.001326
337 -0.001594
338 -0.001568
339 -0.001577
340 -0.001436
341 -0.001275
342 -0.001078
343 -0.000789
344 -0.000889
345 -0.000886
346 -0.001278
347 -0.001320
348 -0.001575
349 -0.001969
350 -0.002108
351 -0.001948
352 -0.002131
353 -0.002288
354 -0.002369
355 -0.002358
356 -0.002330
357 -0.002267
358 -0.002009
359 -0.001783
360 -0.001841
361 -0.001607
362 -0.001450
363 -0.001447
364 -0.001238
365 -0.001266
366 -0.001293
367 -0.001188
368 -0.000975
369 -0.001112
370 -0.001069
371 -0.000935
372 -0.000781
373 -0.000787
374 -0.000641
375 -0.000466
376 -0.000221
377 -0.000213
378 0.000015
379 0.000323
380 0.000619
381 0.000653
382 0.000483
383 0.000424
384 0.000342
385 0.000083
386 0.000046
387 -0.000044
388 -0.000201
389 -0.000434
390 -0.000779
391 -0.001018
392 -0.001246
393 -0.001569
394 -0.001688
395 -0.001748
396 -0.001522
397 -0.001280
398 -0.001091
399 -0.000874
400 -0.000471
401 -0.000202
402 0.000203
403 0.000688
404 0.000867
405 0.000971
406 0.001088
407 0.001169
408 0.001313
409 0.001463
410 0.001551
411 0.001393
412 0.001376
413 0.001219
414 0.000981
415 0.000779
416 0.000630
417 0.000580
418 0.000196
419 0.000095
420 0.000059
421 0.000113
422 0.000304
423 0.000262
424 0.000229
425 0.000167
426 0.000042
427 -0.000098
428 -0.000164
429 0.000009
430 0.000200
431 0.000576
432 0.000640
433 0.000601
434 0.000622
435 0.000678
436 0.000744
437 0.000996
438 0.001290
439 0.001309
440 0.001223
441 0.001268
442 0.001315
443 0.001299
444 0.001401
445 0.001527
446 0.001586
447 0.001621
448 0.001556
449 0.001586
450 0.001732
451 0.001835
452 0.001755
453 0.001552
454 0.001525
455 0.001406
456 0.001364
457 0.001202
458 0.000794
459 0.000469
460 0.000158
461 -0.000142
462 -0.000146
463 -0.000223
464 -0.000190
465 0.000030
466 0.000166
467 0.000039
468 -0.000240
469 -0.000214
470 -0.000056
471 0.000036
472 0.000115
473 0.000336
474 0.000621
475 0.000995
476 0.001241
477 0.001037
478 0.000878
479 0.000868
480 0.000767
481 0.000553
482 0.000400
483 0.000320
484 0.000207
485 0.000328
486 0.000261
487 0.000059
488 0.000003
489 0.000079
490 0.000157
491 0.000264
492 0.000796
493 0.001168
494 0.001167
495 0.001197
496 0.000974
497 0.000758
498 0.000377
499 0.000249
500 -0.000005
501 0.000036
502 0.000147
503 0.000194
504 0.000124
505 0.000019
506 -0.000003
507 -0.000065
508 -0.000088
509 0.000145
510 0.000134
511 0.000074
512 0.000142
513 0.000278
514 -0.000039
515 -0.000358
516 -0.000430
517 -0.000216
518 0.000185
519 0.000455
520 0.000853
521 0.001154
522 0.001290
523 0.001139
524 0.000905
525 0.001104
526 0.001372
527 0.001306
528 0.001166
529 0.001090
530 0.000778
531 0.000669
532 0.000622
533 0.000527
534 0.000465
535 0.000355
536 0.000274
537 0.000163
538 -0.000005
539 0.000021
540 0.000291
541 0.000535
542 0.000684
543 0.000539
544 0.000371
545 0.000467
546 0.000731
547 0.000886
548 0.001063
549 0.001235
550 0.001443
551 0.001433
552 0.001327
553 0.001350
554 0.001668
555 0.001791
556 0.001624
557 0.001357
558 0.001211
559 0.001145
560 0.001026
561 0.000760
562 0.000803
563 0.000848
564 0.000827
565 0.000716
566 0.000664
567 0.000676
568 0.000658
569 0.000596
570 0.000483
571 0.000610
572 0.000773
573 0.000728
574 0.000882
575 0.000937
576 0.000867
577 0.000812
578 0.000722
579 0.000900
580 0.001054
581 0.001338
582 0.001504
583 0.001414
584 0.001191
585 0.001053
586 0.000993
587 0.001124
588 0.001108
589 0.000873
590 0.000944
591 0.001107
592 0.001093
593 0.001059
594 0.000969
595 0.001073
596 0.001154
597 0.001166
598 0.001178
599 0.001038
600 0.001197
601 0.001260
602 0.001264
603 0.001090
604 0.000936
605 0.000783
606 0.000602
607 0.000450
608 0.000388
609 0.000248
610 0.000249
611 0.000479
612 0.000622
613 0.000837
614 0.001033
615 0.001330
616 0.001527
617 0.001796
618 0.001866
619 0.001585
620 0.001425
621 0.001446
622 0.001331
623 0.001154
624 0.001236
625 0.001275
626 0.001196
627 0.001249
628 0.001347
629 0.001245
630 0.001256
631 0.001239
632 0.001266
633 0.001349
634 0.001406
635 0.001344
636 0.001104
637 0.000781
638 0.000614
639 0.000514
640 0.000405
641 0.000341
642 0.000272
643 0.000327
644 0.000412
645 0.000412
646 0.000352
647 0.000370
648 0.000235
649 0.000222
650 0.000321
651 0.000516
652 0.000677
653 0.000613
654 0.000555
655 0.000441
656 0.000313
657 0.000348
658 0.000684
659 0.000788
660 0.000693
661 0.000773
662 0.000826
663 0.000858
664 0.000840
665 0.000751
666 0.000590
667 0.000484
668 0.000177
669 0.000089
670 -0.000011
671 0.000107
672 0.000046
673 0.000058
674 -0.000029
675 0.000013
676 -0.000046
677 -0.000110
678 -0.000116
679 -0.000083
680 0.000065
681 0.000155
682 0.000309
683 0.000316
684 0.000348
685 0.000319
686 0.000401
687 0.000330
688 0.000380
689 0.000405
690 0.000589
691 0.000538
692 0.000443
693 0.000231
694 0.000191
695 -0.000009
696 -0.000100
697 0.000180
698 0.000471
699 0.000594
700 0.000764
701 0.000775
702 0.000539
703 0.000369
704 0.000259
705 0.000442
706 0.000460
707 0.000460
708 0.000389
709 0.000514
710 0.000426
711 0.000292
712 0.000412
713 0.000743
714 0.000720
715 0.000358
716 0.000067
717 -0.000236
718 -0.000397
719 -0.000386
720 -0.000426
721 -0.000460
722 -0.000367
723 -0.000273
724 -0.000166
725 -0.000064
726 0.000061
727 0.000236
728 0.000460
729 0.000670
730 0.000860
731 0.000993
732 0.001048
733 0.000911
734 0.000747
735 0.000552
736 0.000587
737 0.000874
738 0.001027
739 0.000990
740 0.000916
741 0.000792
742 0.000768
743 0.000734
744 0.000577
745 0.000381
746 0.000278
747 0.000189
748 0.000061
749 0.000008
750 0.000038
751 0.000124
752 0.000272
753 0.000473
754 0.000473
755 0.000561
756 0.000549
757 0.000415
758 0.000277
759 0.000348
760 0.000487
761 0.000591
762 0.000895
763 0.001091
764 0.001213
765 0.001136
766 0.001016
767 0.000998
768 0.000929
769 0.000704
770 0.000613
771 0.000378
772 0.000231
773 0.000022
774 0.000004
775 -0.000056
776 0.000073
777 0.000164
778 0.000251
779 0.000274
780 0.000299
781 0.000237
782 0.000160
783 0.000245
784 0.000263
785 0.000264
786 0.000229
787 0.000250
788 0.000150
789 0.000235
790 0.000264
791 0.000266
792 0.000333
793 0.000416
794 0.000464
795 0.000404
796 0.000237
797 0.000098
798 -0.000095
799 -0.000231
800 -0.000348
801 -0.000322
802 -0.000251
803 -0.000173
804 -0.000200
805 -0.000185
806 -0.000208
807 -0.000176
808 -0.000071
809 0.000155
