# i correlation
1 0.018368
2 0.015472
3 0.012935
4 0.011054
5 0.009098
6 0.007473
7 0.006120
8 0.005283
9 0.004849
10 0.004436
11 0.004121
12 0.004084
13 0.004067
14 0.003960
15 0.003748
16 0.003490
17 0.003210
18 0.002749
19 0.002534
20 0.002347
21 0.002414
22 0.002524
23 0.002634
24 0.002493
25 0.002801
26 0.003101
27 0.003323
28 0.003049
29 0.002762
30 0.002841
31 0.002901
32 0.002732
33 0.002785
34 0.002754
35 0.002615
36 0.002789
37 0.002941
38 0.003051
39 0.002941
40 0.002785
41 0.002846
42 0.002816
43 0.002725
44 0.002228
45 0.001797
46 0.001168
47 0.000863
48 0.000401
49 0.000147
50 0.000113
51 0.000133
52 -0.000025
53 0.000321
54 0.000183
55 0.000197
56 0.000202
57 0.000100
58 0.000185
59 -0.000013
60 -0.000275
61 -0.000457
62 -0.000590
63 -0.000629
64 -0.000734
65 -0.000723
66 -0.000621
67 -0.000493
68 -0.000330
69 -0.000478
70 -0.000626
71 -0.000457
72 -0.000144
73 -0.000095
74 -0.000271
75 -0.000386
76 -0.000434
77 -0.000785
78 -0.000872
79 -0.001097
80 -0.000796
81 -0.000376
82 -0.000066
83 0.000180
84 0.000373
85 0.000665
86 0.000957
87 0.000998
88 0.001104
89 0.001270
90 0.001344
91 0.000942
92 0.000718
93 0.000407
94 0.000308
95 0.000577
96 0.000715
97 0.000921
98 0.001206
99 0.001500
100 0.001385
101 0.001235
102 0.001381
103 0.001452
104 0.001496
105 0.001139
106 0.000625
107 0.000112
108 -0.000372
109 -0.000572
110 -0.000775
111 -0.000795
112 -0.000779
113 -0.000780
114 -0.000586
115 -0.000279
116 0.000189
117 0.000491
118 0.000545
119 0.000294
120 0.000052
121 -0.000171
122 -0.000460
123 -0.000642
124 -0.000558
125 -0.000246
126 0.000076
127 0.000225
128 0.000663
129 0.001164
130 0.001470
131 0.001724
132 0.001969
133 0.002103
134 0.001897
135 0.001771
136 0.001682
137 0.001623
138 0.001362
139 0.001245
140 0.001200
141 0.001351
142 0.001592
143 0.001652
144 0.001412
145 0.001311
146 0.001561
147 0.001810
148 0.002099
149 0.002399
150 0.002528
151 0.002828
152 0.002910
153 0.002731
154 0.002507
155 0.002297
156 0.002140
157 0.002123
158 0.002158
159 0.002029
160 0.002154
161 0.002140
162 0.002426
163 0.002662
164 0.002593
165 0.002781
166 0.002846
167 0.002961
168 0.003113
169 0.003237
170 0.003549
171 0.003678
172 0.003724
173 0.003575
174 0.003334
175 0.003145
176 0.003048
177 0.003137
178 0.003226
179 0.003076
180 0.002722
181 0.002283
182 0.002150
183 0.002217
184 0.002496
185 0.002815
186 0.002765
187 0.002574
188 0.002570
189 0.002769
190 0.002790
191 0.002712
192 0.002778
193 0.002877
194 0.003013
195 0.002740
196 0.002477
197 0.002103
198 0.002002
199 0.001956
200 0.001898
201 0.001850
202 0.001680
203 0.001402
204 0.001470
205 0.001159
206 0.000679
207 0.000268
208 -0.000318
209 -0.000894
210 -0.001282
211 -0.001497
212 -0.001825
213 -0.002039
214 -0.002334
215 -0.002245
216 -0.002141
217 -0.002047
218 -0.001878
219 -0.001642
220 -0.001513
221 -0.001160
222 -0.001359
223 -0.001392
224 -0.001752
225 -0.001613
226 -0.001674
227 -0.001365
228 -0.001163
229 -0.000845
230 -0.000411
231 -0.000010
232 0.000055
233 -0.000142
234 -0.000377
235 -0.000540
236 -0.000798
237 -0.000820
238 -0.000825
239 -0.000956
240 -0.001189
241 -0.001373
242 -0.001668
243 -0.001939
244 -0.002189
245 -0.002488
246 -0.002553
247 -0.002719
248 -0.002860
249 -0.003064
250 -0.003144
251 -0.003317
252 -0.003278
253 -0.003510
254 -0.003570
255 -0.003558
256 -0.003329
257 -0.003063
258 -0.002481
259 -0.001928
260 -0.001423
261 -0.001145
262 -0.000741
263 -0.000438
264 -0.000190
265 -0.000184
266 -0.000180
267 0.000093
268 0.000498
269 0.000784
270 0.000895
271 0.000811
272 0.000988
273 0.000877
274 0.000960
275 0.000643
276 0.000527
277 0.000212
278 -0.000156
279 -0.000472
280 -0.000670
281 -0.000684
282 -0.000634
283 -0.000347
284 -0.000166
285 0.000162
286 0.000214
287 0.000107
288 0.000156
289 0.000337
290 0.000412
291 0.000423
292 0.000087
293 0.000029
294 0.000058
295 0.000213
296 0.000125
297 0.000257
298 0.000267
299 0.000493
300 0.000583
301 0.000940
302 0.001341
303 0.001819
304 0.001694
305 0.001623
306 0.001575
307 0.001490
308 0.001272
309 0.001035
310 0.000906
311 0.000960
312 0.000817
313 0.000841
314 0.000984
315 0.001179
316 0.001004
317 0.000904
318 0.000736
319 0.000725
320 0.000886
321 0.001178
322 0.001595
323 0.001875
324 0.002183
325 0.002617
326 0.002917
327 0.003373
328 0.003873
329 0.004000
330 0.003932
331 0.003674
332 0.003347
333 0.002896
334 0.002581
335 0.002303
336 0.002270
337 0.002319
338 0.002288
339 0.002163
340 0.002317
341 0.002774
342 0.003120
343 0.003101
344 0.003289
345 0.003575
346 0.003596
347 0.003252
348 0.003101
349 0.002998
350 0.002966
351 0.002858
352 0.002551
353 0.002127
354 0.001895
355 0.001802
356 0.001711
357 0.001699
358 0.001682
359 0.001797
360 0.001877
361 0.001917
362 0.002016
363 0.002141
364 0.002390
365 0.002377
366 0.002492
367 0.002683
368 0.002725
369 0.002745
370 0.002670
371 0.002703
372 0.002768
373 0.002764
374 0.002500
375 0.002223
376 0.001816
377 0.001425
378 0.001408
379 0.001368
380 0.001110
381 0.000955
382 0.000785
383 0.000734
384 0.000514
385 0.000136
386 -0.000270
387 -0.000419
388 -0.000275
389 -0.000313
390 -0.000266
391 -0.000410
392 -0.000629
393 -0.000825
394 -0.001035
395 -0.000918
396 -0.000765
397 -0.000670
398 -0.000629
399 -0.000746
400 -0.000704
401 -0.000560
402 -0.000747
403 -0.000994
404 -0.001168
405 -0.001133
406 -0.001236
407 -0.001344
408 -0.001517
409 -0.001575
410 -0.001463
411 -0.001399
412 -0.001353
413 -0.001056
414 -0.000820
415 -0.000429
416 -0.000260
417 0.000075
418 0.000199
419 0.000348
420 0.000408
421 0.000271
422 0.000288
423 0.000269
424 0.000211
425 0.000117
426 0.000221
427 0.000184
428 0.000141
429 -0.000025
430 -0.000026
431 0.000267
432 0.000720
433 0.000805
434 0.000890
435 0.001041
436 0.000984
437 0.000912
438 0.000873
439 0.001041
440 0.001187
441 0.001323
442 0.001315
443 0.001478
444 0.001637
445 0.001770
446 0.001719
447 0.001468
448 0.001258
449 0.001081
450 0.000996
451 0.000810
452 0.000654
453 0.000781
454 0.001143
455 0.001348
456 0.001639
457 0.001781
458 0.002186
459 0.002397
460 0.002495
461 0.002480
462 0.002701
463 0.002804
464 0.002736
465 0.002496
466 0.002371
467 0.002105
468 0.002080
469 0.001942
470 0.002042
471 0.002322
472 0.002257
473 0.002318
474 0.002320
475 0.002243
476 0.002039
477 0.002117
478 0.002066
479 0.001983
480 0.001830
481 0.001774
482 0.001537
483 0.001213
484 0.000792
485 0.000637
486 0.000422
487 0.000570
488 0.000812
489 0.000677
490 0.000544
491 0.000594
492 0.000847
493 0.001100
494 0.001249
495 0.001407
496 0.001482
497 0.001837
498 0.002115
499 0.002401
500 0.002707
501 0.002842
502 0.002712
503 0.002642
504 0.002695
505 0.002574
506 0.002669
507 0.002832
508 0.003044
509 0.002896
510 0.002693
511 0.002540
512 0.002414
513 0.002364
514 0.002181
515 0.002098
516 0.001968
517 0.001744
518 0.001406
519 0.001135
520 0.001194
521 0.001560
522 0.001803
523 0.001662
524 0.001513
525 0.001322
526 0.001198
527 0.000926
528 0.000655
529 0.000615
530 0.000837
531 0.001015
532 0.001150
533 0.001227
534 0.001357
535 0.001467
536 0.001450
537 0.001182
538 0.000835
539 0.000371
540 0.000076
541 -0.000117
542 -0.000283
543 -0.000420
544 -0.000349
545 -0.000293
546 -0.000155
547 -0.000144
548 -0.000061
549 -0.000049
550 -0.000027
551 -0.000157
552 -0.000373
553 -0.000408
554 -0.000497
555 -0.000761
556 -0.000869
557 -0.000966
558 -0.001050
559 -0.000993
560 -0.001016
561 -0.000953
562 -0.000856
563 -0.000674
564 -0.000788
565 -0.000965
566 -0.001124
567 -0.001232
568 -0.001389
569 -0.001599
570 -0.001817
571 -0.001924
572 -0.002048
573 -0.002030
574 -0.002124
575 -0.002153
576 -0.002210
577 -0.002263
578 -0.002277
579 -0.002228
580 -0.002010
581 -0.002074
582 -0.002107
583 -0.002125
584 -0.001998
585 -0.001989
586 -0.001853
587 -0.001715
588 -0.001482
589 -0.001249
590 -0.001048
591 -0.000924
592 -0.000758
593 -0.000738
594 -0.000724
595 -0.000858
596 -0.000834
597 -0.000792
598 -0.000774
599 -0.000822
600 -0.000916
601 -0.001034
602 -0.001077
603 -0.000894
604 -0.000727
605 -0.000478
606 -0.000147
607 -0.000088
608 -0.000053
609 0.000114
610 0.000265
611 0.000413
612 0.000575
613 0.000581
614 0.000463
615 0.000223
616 0.000156
617 0.000184
618 0.000217
619 0.000292
620 0.000440
621 0.000511
622 0.000518
623 0.000460
624 0.000345
625 0.000287
626 0.000102
627 -0.000100
628 -0.000122
629 -0.000100
630 0.000029
631 0.000222
632 0.000322
633 0.000396
634 0.000526
635 0.000550
636 0.000696
637 0.000708
638 0.000565
639 0.000688
640 0.000700
641 0.000628
642 0.000593
643 0.000654
644 0.000527
645 0.000554
646 0.000530
647 0.000526
648 0.000429
649 0.000370
650 0.000360
651 0.000286
652 0.000214
653 0.000123
654 -0.000029
655 -0.000089
656 -0.000118
657 -0.000064
658 -0.000084
659 -0.000053
660 -0.000136
661 -0.000320
662 -0.000226
663 -0.000130
664 0.000071
665 0.000123
666 0.000260
667 0.000276
668 0.000248
669 0.000298
670 0.000483
671 0.000507
672 0.000569
673 0.000668
674 0.000655
675 0.000733
676 0.000753
677 0.000748
678 0.000678
679 0.000658
680 0.000384
681 0.000204
682 -0.000092
683 -0.000274
684 -0.000370
685 -0.000511
686 -0.000567
687 -0.000605
688 -0.000886
689 -0.001008
690 -0.001128
691 -0.001201
692 -0.001134
693 -0.000952
694 -0.000784
695 -0.000561
696 -0.000340
697 -0.000371
698 -0.000298
699 -0.000395
700 -0.000351
701 -0.000350
702 -0.000146
703 -0.000084
704 0.000033
705 0.000160
706 0.000283
707 0.000346
708 0.000559
709 0.000764
710 0.000863
711 0.000839
712 0.000816
713 0.000719
714 0.000676
715 0.000582
716 0.000449
717 0.000461
718 0.000345
719 0.000169
720 0.000051
721 -0.000082
722 -0.000157
723 -0.000219
724 -0.000230
725 -0.000257
726 -0.000243
727 -0.000249
728 -0.000186
729 -0.000063
730 -0.000029
731 -0.000133
732 -0.000263
733 -0.000321
734 -0.000292
735 -0.000296
736 -0.000453
737 -0.000566
738 -0.000511
739 -0.000494
740 -0.000451
741 -0.000515
742 -0.000514
743 -0.000662
744 -0.000886
745 -0.001089
746 -0.001289
747 -0.001269
748 -0.001270
749 -0.001243
750 -0.001271
751 -0.001266
752 -0.001166
753 -0.001187
754 -0.001227
755 -0.001297
756 -0.001197
757 -0.001108
758 -0.001081
759 -0.001051
760 -0.000943
761 -0.000716
762 -0.000606
763 -0.000491
764 -0.000437
765 -0.000369
766 -0.000400
767 -0.000324
768 -0.000349
769 -0.000422
770 -0.000597
771 -0.000641
772 -0.000743
773 -0.000741
774 -0.000659
775 -0.000700
776 -0.000768
777 -0.000856
778 -0.000907
779 -0.000966
780 -0.000928
781 -0.000891
782 -0.000810
783 -0.000622
784 -0.000439
785 -0.000253
786 -0.000144
787 -0.000149
788 -0.000077
789 -0.000172
790 -0.000275
791 -0.000338
792 -0.000286
793 -0.000301
794 -0.000200
795 -0.000016
796 0.000078
797 0.000245
798 0.000348
799 0.000478
800 0.000560
801 0.000600
802 0.000561
803 0.000536
804 0.000593
805 0.000727
806 0.000765
807 0.000890
808 0.000889
809 0.000842
