# i correlation
1 0.016543
2 0.014055
3 0.012126
4 0.010278
5 0.008732
6 0.007518
7 0.006236
8 0.004831
9 0.003771
10 0.003044
11 0.002444
12 0.001849
13 0.001287
14 0.000635
15 0.000634
16 0.000568
17 0.000394
18 0.000708
19 0.000904
20 0.001256
21 0.001867
22 0.002204
23 0.002158
24 0.002248
25 0.002265
26 0.002164
27 0.002102
28 0.002193
29 0.002231
30 0.002152
31 0.002061
32 0.001689
33 0.001558
34 0.001224
35 0.001033
36 0.000801
37 0.000252
38 -0.000168
39 -0.000268
40 -0.000161
41 0.000009
42 0.000014
43 0.000157
44 0.000131
45 0.000244
46 0.000169
47 0.000325
48 0.000548
49 0.000586
50 0.000617
51 0.000953
52 0.001108
53 0.001051
54 0.001192
55 0.001364
56 0.001359
57 0.001513
58 0.001626
59 0.001516
60 0.001572
61 0.001571
62 0.001730
63 0.001956
64 0.002272
65 0.002200
66 0.002156
67 0.001892
68 0.001893
69 0.001965
70 0.001825
71 0.001798
72 0.001805
73 0.001854
74 0.001852
75 0.002004
76 0.002062
77 0.001412
78 0.001164
79 0.001188
80 0.000874
81 0.000972
82 0.000714
83 0.000512
84 0.000420
85 0.000631
86 0.000973
87 0.001017
88 0.001109
89 0.000913
90 0.000955
91 0.000865
92 0.000764
93 0.000576
94 0.000743
95 0.000636
96 0.000568
97 0.000828
98 0.000591
99 0.000271
100 -0.000090
101 -0.000351
102 -0.000481
103 -0.000688
104 -0.000733
105 -0.000769
106 -0.000867
107 -0.001126
108 -0.001472
109 -0.001407
110 -0.001366
111 -0.001700
112 -0.001755
113 -0.002006
114 -0.002170
115 -0.002275
116 -0.002169
117 -0.002022
118 -0.002042
119 -0.002120
120 -0.002426
121 -0.002102
122 -0.001794
123 -0.001604
124 -0.001569
125 -0.001381
126 -0.001393
127 -0.001287
128 -0.001338
129 -0.001273
130 -0.001053
131 -0.000750
132 -0.000715
133 -0.000436
134 -0.000082
135 -0.000210
136 -0.000357
137 -0.000232
138 0.000198
139 0.000486
140 0.000691
141 0.000824
142 0.000822
143 0.000803
144 0.000835
145 0.001092
146 0.001223
147 0.001518
148 0.001491
149 0.001795
150 0.001900
151 0.001806
152 0.001788
153 0.001376
154 0.001043
155 0.000633
156 0.000417
157 0.000286
158 0.000197
159 -0.000049
160 -0.000162
161 -0.000106
162 0.000175
163 0.000405
164 0.000712
165 0.000883
166 0.000829
167 0.000643
168 0.000600
169 0.000715
170 0.000492
171 0.000230
172 -0.000049
173 -0.000044
174 -0.000103
175 -0.000284
176 -0.000313
177 -0.000412
178 -0.000471
179 -0.000356
180 -0.000297
181 -0.000283
182 -0.000247
183 -0.000038
184 0.000145
185 0.000677
186 0.001063
187 0.001310
188 0.001432
189 0.001407
190 0.001425
191 0.001679
192 0.001733
193 0.001686
194 0.001478
195 0.001192
196 0.000949
197 0.000882
198 0.000942
199 0.000835
200 0.000645
201 0.000666
202 0.000773
203 0.001019
204 0.001303
205 0.001570
206 0.001960
207 0.002266
208 0.002437
209 0.002688
210 0.002707
211 0.002621
212 0.002845
213 0.003296
214 0.003543
215 0.003771
216 0.003854
217 0.003675
218 0.003487
219 0.003531
220 0.003648
221 0.003435
222 0.003230
223 0.002791
224 0.002496
225 0.001973
226 0.001644
227 0.001472
228 0.001513
229 0.001016
230 0.000602
231 0.000312
232 0.000195
233 0.000542
234 0.000670
235 0.001022
236 0.001166
237 0.001576
238 0.001850
239 0.002255
240 0.002657
241 0.002660
242 0.002502
243 0.002273
244 0.002102
245 0.001816
246 0.001525
247 0.001296
248 0.001335
249 0.001291
250 0.001199
251 0.001065
252 0.001206
253 0.001022
254 0.000890
255 0.000939
256 0.000946
257 0.000898
258 0.000811
259 0.000759
260 0.000621
261 0.000577
262 0.000483
263 0.000519
264 0.000427
265 0.000217
266 0.000041
267 -0.000017
268 -0.000055
269 -0.000272
270 -0.000630
271 -0.000854
272 -0.001083
273 -0.001053
274 -0.000959
275 -0.000956
276 -0.000906
277 -0.000865
278 -0.000669
279 -0.000229
280 0.000394
281 0.000964
282 0.001496
283 0.001871
284 0.002067
285 0.002270
286 0.002131
287 0.001901
288 0.002098
289 0.002225
290 0.002243
291 0.002172
292 0.001825
293 0.001467
294 0.001145
295 0.000958
296 0.000794
297 0.000597
298 0.000361
299 0.000018
300 -0.000144
301 -0.000358
302 -0.000530
303 -0.000357
304 -0.000513
305 -0.000843
306 -0.001003
307 -0.001028
308 -0.000991
309 -0.000809
310 -0.000516
311 -0.000447
312 -0.000186
313 0.000032
314 0.000211
315 0.000174
316 0.000484
317 0.000311
318 0.000302
319 0.000262
320 -0.000029
321 -0.000140
322 -0.000480
323 -0.000473
324 -0.000515
325 -0.000246
326 -0.000180
327 -0.000164
328 -0.000117
329 -0.000281
330 -0.000266
331 -0.000257
332 -0.000442
333 -0.000364
334 -0.000430
335 -0.000707
336 -0.000646
337 -0.000495
338 -0.000445
339 -0.000368
340 -0.000399
341 -0.000573
342 -0.000853
343 -0.000895
344 -0.001043
345 -0.000919
346 -0.000569
347 -0.000462
348 -0.000349
349 0.000076
350 0.000372
351 0.000479
352 0.000651
353 0.000708
354 0.001008
355 0.001008
356 0.000865
357 0.000893
358 0.000940
359 0.000980
360 0.001010
361 0.001101
362 0.001135
363 0.000821
364 0.000615
365 0.000266
366 0.000072
367 0.000120
368 0.000067
369 -0.000028
370 -0.000093
371 -0.000015
372 -0.000018
373 0.000125
374 0.000068
375 0.000054
376 0.000095
377 0.000166
378 0.000551
379 0.000853
380 0.000734
381 0.000906
382 0.001373
383 0.001331
384 0.001457
385 0.001657
386 0.001673
387 0.001549
388 0.001491
389 0.001373
390 0.001123
391 0.000718
392 0.000507
393 0.000214
394 0.000177
395 0.000028
396 -0.000476
397 -0.000541
398 -0.000562
399 -0.000554
400 -0.000509
401 -0.000365
402 -0.000232
403 -0.000128
404 0.000143
405 0.000269
406 0.000420
407 0.000708
408 0.000843
409 0.000921
410 0.000939
411 0.000647
412 0.000627
413 0.000879
414 0.000967
415 0.001003
416 0.000979
417 0.000687
418 0.000352
419 0.000207
420 0.000085
421 0.000034
422 0.000070
423 -0.000010
424 0.000019
425 0.000329
426 0.000516
427 0.000665
428 0.000615
429 0.000719
430 0.000858
431 0.001091
432 0.001249
433 0.001664
434 0.001913
435 0.002144
436 0.002133
437 0.002254
438 0.002476
439 0.002597
440 0.002593
441 0.002418
442 0.002414
443 0.002435
444 0.002104
445 0.001981
446 0.001762
447 0.001544
448 0.001385
449 0.001260
450 0.001114
451 0.000663
452 0.000567
453 0.000437
454 0.000592
455 0.000868
456 0.000901
457 0.000909
458 0.000975
459 0.000954
460 0.000879
461 0.000715
462 0.000513
463 0.000484
464 0.000314
465 0.000328
466 0.000341
467 0.000385
468 0.000620
469 0.000454
470 0.000483
471 0.000383
472 0.000449
473 0.000540
474 0.000768
475 0.000725
476 0.000974
477 0.000908
478 0.001004
479 0.001094
480 0.001105
481 0.000940
482 0.000507
483 0.000112
484 -0.000272
485 -0.000463
486 -0.000646
487 -0.000679
488 -0.000587
489 -0.000400
490 -0.000356
491 -0.000201
492 -0.000150
493 -0.000293
494 -0.000288
495 -0.000104
496 0.000349
497 0.000619
498 0.000864
499 0.001166
500 0.001297
501 0.001673
502 0.001882
503 0.001858
504 0.001834
505 0.001613
506 0.001395
507 0.001408
508 0.001175
509 0.000974
510 0.000664
511 0.000338
512 -0.000020
513 -0.000440
514 -0.000737
515 -0.001010
516 -0.001205
517 -0.001202
518 -0.001036
519 -0.000609
520 -0.000350
521 -0.000172
522 -0.000107
523 0.000070
524 0.000195
525 0.000406
526 0.000585
527 0.000412
528 0.000405
529 0.000436
530 0.000545
531 0.000873
532 0.001067
533 0.001091
534 0.001151
535 0.001109
536 0.001213
537 0.001372
538 0.001393
539 0.001155
540 0.001060
541 0.000905
542 0.000557
543 0.000431
544 0.000382
545 0.000085
546 -0.000153
547 -0.000170
548 -0.000272
549 -0.000444
550 -0.000525
551 -0.000558
552 -0.000457
553 -0.000421
554 -0.000409
555 -0.000393
556 -0.000459
557 -0.000733
558 -0.000967
559 -0.001034
560 -0.001251
561 -0.001352
562 -0.001328
563 -0.001279
564 -0.001019
565 -0.000768
566 -0.000588
567 -0.000636
568 -0.000620
569 -0.000643
570 -0.000625
571 -0.000624
572 -0.000526
573 -0.000380
574 -0.000083
575 0.000074
576 0.000230
577 0.000502
578 0.000663
579 0.000592
580 0.000601
581 0.000650
582 0.000572
583 0.000438
584 0.000370
585 0.000441
586 0.000440
587 0.000404
588 0.000460
589 0.000379
590 0.000281
591 0.000199
592 0.000194
593 0.000291
594 0.000297
595 0.000472
596 0.000528
597 0.000531
598 0.000613
599 0.000766
600 0.000845
601 0.001102
602 0.001257
603 0.001295
604 0.001508
605 0.001671
606 0.002053
607 0.002352
608 0.002358
609 0.002136
610 0.001861
611 0.001677
612 0.001561
613 0.001402
614 0.001198
615 0.000829
616 0.000480
617 0.000245
618 -0.000083
619 -0.000194
620 -0.000417
621 -0.000547
622 -0.000496
623 -0.000400
624 -0.000501
625 -0.000624
626 -0.000584
627 -0.000646
628 -0.000543
629 -0.000464
630 -0.000380
631 -0.000402
632 -0.000494
633 -0.000686
634 -0.000752
635 -0.000859
636 -0.000856
637 -0.000678
638 -0.000716
639 -0.000825
640 -0.000708
641 -0.000500
642 -0.000164
643 0.000165
644 0.000335
645 0.000285
646 0.000096
647 0.000064
648 0.000045
649 0.000195
650 0.000310
651 0.000205
652 0.000069
653 0.000204
654 0.000082
655 0.000057
656 0.000073
657 0.000037
658 -0.000039
659 -0.000099
660 -0.000240
661 -0.000214
662 -0.000127
663 -0.000157
664 -0.000094
665 -0.000026
666 0.000180
667 0.000248
668 0.000242
669 0.000107
670 -0.000029
671 0.000116
672 0.000223
673 0.000242
674 0.000174
675 0.000318
676 0.000308
677 0.000222
678 0.000192
679 0.000225
680 0.000235
681 0.000157
682 0.000263
683 0.000450
684 0.000473
685 0.000559
686 0.000663
687 0.001030
688 0.001279
689 0.001327
690 0.001242
691 0.001109
692 0.001030
693 0.000910
694 0.000847
695 0.000813
696 0.000682
697 0.000597
698 0.000753
699 0.000608
700 0.000524
701 0.000422
702 0.000231
703 0.000068
704 -0.000045
705 -0.000205
706 -0.000287
707 -0.000307
708 -0.000344
709 -0.000205
710 -0.000286
711 -0.000273
712 -0.000283
713 -0.000077
714 -0.000026
715 0.000088
716 0.000217
717 0.000090
718 -0.000072
719 -0.000189
720 -0.000379
721 -0.000613
722 -0.000736
723 -0.000804
724 -0.000863
725 -0.001117
726 -0.001416
727 -0.001692
728 -0.001724
729 -0.001607
730 -0.001621
731 -0.001650
732 -0.001739
733 -0.001863
734 -0.001780
735 -0.001608
736 -0.001529
737 -0.001383
738 -0.001135
739 -0.000727
740 -0.000377
741 -0.000096
742 0.000076
743 0.000251
744 0.000553
745 0.000760
746 0.000808
747 0.000870
748 0.000772
749 0.000577
750 0.000392
751 0.000246
752 0.000034
753 -0.000263
754 -0.000530
755 -0.000846
756 -0.001025
757 -0.001086
758 -0.001092
759 -0.001107
760 -0.001014
761 -0.000977
762 -0.000952
763 -0.000847
764 -0.000737
765 -0.000620
766 -0.000518
767 -0.000398
768 -0.000362
769 -0.000345
770 -0.000263
771 -0.000104
772 -0.000014
773 0.000067
774 0.000039
775 -0.000009
776 -0.000094
777 -0.000169
778 -0.000184
779 -0.000235
780 -0.000315
781 -0.000432
782 -0.000488
783 -0.000511
784 -0.000546
785 -0.000598
786 -0.000569
787 -0.000502
788 -0.000278
789 -0.000080
790 -0.000037
791 -0.000023
792 0.000065
793 0.000212
794 0.000408
795 0.000432
796 0.000422
797 0.000352
798 0.000205
799 0.000068
800 -0.000096
801 -0.000310
802 -0.000463
803 -0.000646
804 -0.000726
805 -0.000784
806 -0.000813
807 -0.000897
808 -0.000844
809 -0.000759
