# i correlation
1 0.018116
2 0.015459
3 0.013143
4 0.011012
5 0.009695
6 0.008545
7 0.007531
8 0.006788
9 0.006449
10 0.006486
11 0.006503
12 0.006242
13 0.005887
14 0.005381
15 0.004864
16 0.004354
17 0.004133
18 0.003827
19 0.003563
20 0.003286
21 0.002617
22 0.002259
23 0.001504
24 0.001220
25 0.001080
26 0.000920
27 0.000856
28 0.000803
29 0.000931
30 0.001131
31 0.001526
32 0.001846
33 0.001912
34 0.001659
35 0.001587
36 0.001606
37 0.001682
38 0.001600
39 0.001406
40 0.001170
41 0.001009
42 0.001312
43 0.001231
44 0.001425
45 0.001293
46 0.001318
47 0.001239
48 0.001187
49 0.001029
50 0.000962
51 0.001071
52 0.001310
53 0.001259
54 0.001147
55 0.000889
56 0.000625
57 0.000267
58 0.000144
59 0.000081
60 0.000055
61 0.000444
62 0.000875
63 0.001523
64 0.002098
65 0.002198
66 0.002299
67 0.002265
68 0.002290
69 0.002384
70 0.002398
71 0.002386
72 0.002479
73 0.002537
74 0.002640
75 0.002693
76 0.002787
77 0.002930
78 0.002904
79 0.002966
80 0.002962
81 0.002811
82 0.002602
83 0.002383
84 0.001944
85 0.002007
86 0.002121
87 0.002057
88 0.002119
89 0.002002
90 0.001922
91 0.001995
92 0.001696
93 0.001511
94 0.001153
95 0.000851
96 0.000579
97 0.000432
98 0.000347
99 0.000455
100 0.000513
101 0.000243
102 -0.000080
103 -0.000254
104 -0.000430
105 -0.000548
106 -0.000505
107 -0.000703
108 -0.000751
109 -0.000867
110 -0.001082
111 -0.001268
112 -0.001584
113 -0.001659
114 -0.001679
115 -0.001692
116 -0.001756
117 -0.001885
118 -0.001920
119 -0.001786
120 -0.001476
121 -0.001368
122 -0.001621
123 -0.001660
124 -0.001858
125 -0.001924
126 -0.001826
127 -0.001525
128 -0.000812
129 -0.000213
130 0.000241
131 0.000480
132 0.000597
133 0.000851
134 0.001005
135 0.000995
136 0.000922
137 0.001227
138 0.001744
139 0.002556
140 0.003049
141 0.003607
142 0.003852
143 0.003930
144 0.003765
145 0.003607
146 0.003497
147 0.003215
148 0.002844
149 0.002653
150 0.002507
151 0.002328
152 0.002436
153 0.002437
154 0.002506
155 0.002311
156 0.002114
157 0.002150
158 0.002188
159 0.002409
160 0.002230
161 0.001806
162 0.001464
163 0.001190
164 0.001041
165 0.001229
166 0.001037
167 0.000641
168 0.000421
169 0.000098
170 0.000182
171 0.000131
172 0.000252
173 0.000167
174 0.000478
175 0.000847
176 0.001380
177 0.001753
178 0.001888
179 0.002050
180 0.001923
181 0.001790
182 0.001662
183 0.001616
184 0.001210
185 0.001058
186 0.001263
187 0.001305
188 0.001372
189 0.001436
190 0.001322
191 0.001286
192 0.001266
193 0.000985
194 0.000877
195 0.000731
196 0.000381
197 0.000360
198 0.000438
199 0.000500
200 0.000564
201 0.000817
202 0.001030
203 0.001307
204 0.001344
205 0.001381
206 0.001261
207 0.001087
208 0.000968
209 0.000946
210 0.000872
211 0.000818
212 0.000648
213 0.000530
214 0.000763
215 0.000582
216 0.000441
217 0.000176
218 0.000093
219 0.000479
220 0.000806
221 0.001141
222 0.001250
223 0.001387
224 0.001608
225 0.001512
226 0.001466
227 0.001207
228 0.000737
229 0.000585
230 0.000425
231 0.000505
232 0.000557
233 0.000470
234 0.000465
235 0.000128
236 -0.000092
237 0.000019
238 0.000058
239 0.000191
240 0.000249
241 0.000364
242 0.000531
243 0.000750
244 0.000724
245 0.000574
246 0.000274
247 0.000228
248 -0.000160
249 -0.000400
250 -0.000531
251 -0.000496
252 -0.000480
253 -0.000275
254 -0.000232
255 -0.000241
256 -0.000206
257 -0.000136
258 0.000001
259 -0.000177
260 -0.000621
261 -0.000886
262 -0.001137
263 -0.001219
264 -0.001291
265 -0.001162
266 -0.001132
267 -0.000963
268 -0.000616
269 -0.000260
270 -0.000106
271 -0.000061
272 -0.000108
273 -0.000002
274 0.000223
275 0.000434
276 0.000581
277 0.000447
278 0.000498
279 0.000500
280 0.000583
281 0.000566
282 0.000523
283 0.000558
284 0.000721
285 0.000813
286 0.000950
287 0.001118
288 0.001425
289 0.001625
290 0.001656
291 0.001780
292 0.001827
293 0.001886
294 0.002018
295 0.002337
296 0.002457
297 0.002454
298 0.002006
299 0.001806
300 0.001600
301 0.001475
302 0.001471
303 0.001669
304 0.001988
305 0.002164
306 0.002435
307 0.002578
308 0.002514
309 0.002285
310 0.001826
311 0.001637
312 0.001321
313 0.001136
314 0.000941
315 0.000806
316 0.000911
317 0.001354
318 0.001808
319 0.002278
320 0.002496
321 0.002744
322 0.003046
323 0.003222
324 0.003239
325 0.002974
326 0.002652
327 0.002162
328 0.001773
329 0.001419
330 0.001210
331 0.000831
332 0.000819
333 0.000694
334 0.000767
335 0.000921
336 0.001077
337 0.001052
338 0.000820
339 0.000634
340 0.000602
341 0.000673
342 0.000872
343 0.000954
344 0.001041
345 0.001048
346 0.000880
347 0.000720
348 0.000758
349 0.000557
350 0.000353
351 0.000188
352 0.000112
353 0.000128
354 0.000212
355 0.000496
356 0.000739
357 0.000923
358 0.000997
359 0.000886
360 0.000924
361 0.000892
362 0.000998
363 0.001054
364 0.000846
365 0.000944
366 0.000924
367 0.000870
368 0.000953
369 0.000901
370 0.000854
371 0.000676
372 0.000560
373 0.000497
374 0.000573
375 0.000570
376 0.000496
377 0.000266
378 0.000274
379 0.000302
380 0.000472
381 0.000659
382 0.000785
383 0.000785
384 0.001014
385 0.001195
386 0.001440
387 0.001636
388 0.001703
389 0.001671
390 0.001520
391 0.001353
392 0.001030
393 0.000832
394 0.000632
395 0.000664
396 0.000669
397 0.000800
398 0.000992
399 0.001080
400 0.001195
401 0.001076
402 0.000796
403 0.000518
404 0.000302
405 0.000079
406 -0.000236
407 -0.000379
408 -0.000371
409 -0.000331
410 -0.000447
411 -0.000694
412 -0.000649
413 -0.000789
414 -0.001098
415 -0.001333
416 -0.001589
417 -0.001581
418 -0.001698
419 -0.001889
420 -0.001730
421 -0.001807
422 -0.001669
423 -0.001405
424 -0.001300
425 -0.001220
426 -0.001150
427 -0.000898
428 -0.000761
429 -0.000576
430 -0.000338
431 -0.000445
432 -0.000392
433 -0.000145
434 0.000072
435 0.000354
436 0.000281
437 0.000232
438 -0.000023
439 -0.000239
440 -0.000383
441 -0.000556
442 -0.000470
443 -0.000286
444 -0.000248
445 -0.000119
446 0.000151
447 0.000373
448 0.000470
449 0.000463
450 0.000369
451 0.000047
452 -0.000122
453 -0.000320
454 -0.000563
455 -0.000837
456 -0.000927
457 -0.001014
458 -0.001199
459 -0.001197
460 -0.001261
461 -0.001094
462 -0.000864
463 -0.000637
464 -0.000424
465 -0.000168
466 0.000031
467 0.000202
468 0.000185
469 0.000065
470 -0.000074
471 0.000064
472 0.000011
473 -0.000159
474 -0.000122
475 0.000015
476 0.000222
477 0.000498
478 0.000880
479 0.001073
480 0.001109
481 0.001365
482 0.001423
483 0.001398
484 0.001247
485 0.001189
486 0.001269
487 0.001059
488 0.000822
489 0.000521
490 0.000127
491 -0.000043
492 -0.000360
493 -0.000530
494 -0.000393
495 -0.000080
496 0.000066
497 0.000302
498 0.000618
499 0.000805
500 0.001132
501 0.001040
502 0.000911
503 0.000765
504 0.000606
505 0.000780
506 0.000876
507 0.000872
508 0.000940
509 0.000837
510 0.000689
511 0.000717
512 0.000669
513 0.000869
514 0.000922
515 0.001082
516 0.001135
517 0.001175
518 0.001373
519 0.001432
520 0.001598
521 0.001574
522 0.001662
523 0.001842
524 0.001814
525 0.001774
526 0.001907
527 0.002139
528 0.002424
529 0.002431
530 0.002320
531 0.002302
532 0.002142
533 0.002183
534 0.002109
535 0.001923
536 0.001483
537 0.001449
538 0.001413
539 0.001394
540 0.001450
541 0.001360
542 0.001426
543 0.001431
544 0.001394
545 0.001282
546 0.001128
547 0.000927
548 0.000709
549 0.000526
550 0.000610
551 0.000692
552 0.000564
553 0.000422
554 0.000196
555 0.000068
556 0.000011
557 -0.000049
558 0.000067
559 0.000030
560 -0.000086
561 0.000006
562 0.000057
563 0.000192
564 0.000299
565 0.000366
566 0.000236
567 0.000282
568 0.000373
569 0.000600
570 0.000713
571 0.000794
572 0.000696
573 0.000568
574 0.000658
575 0.000829
576 0.001113
577 0.001497
578 0.001605
579 0.001776
580 0.001806
581 0.001927
582 0.002064
583 0.001998
584 0.001741
585 0.001632
586 0.001770
587 0.002053
588 0.002238
589 0.002437
590 0.002355
591 0.002318
592 0.002259
593 0.001979
594 0.001853
595 0.001855
596 0.001781
597 0.001628
598 0.001392
599 0.001241
600 0.001334
601 0.001357
602 0.001310
603 0.001241
604 0.001068
605 0.001049
606 0.001120
607 0.001104
608 0.000889
609 0.000671
610 0.000403
611 0.000452
612 0.000539
613 0.000707
614 0.001016
615 0.001136
616 0.001151
617 0.001102
618 0.000904
619 0.000886
620 0.000814
621 0.000844
622 0.000963
623 0.000939
624 0.001044
625 0.001198
626 0.001301
627 0.001509
628 0.001700
629 0.001657
630 0.001423
631 0.001336
632 0.001251
633 0.001240
634 0.001108
635 0.000788
636 0.000541
637 0.000364
638 0.000294
639 0.000293
640 0.000217
641 0.000221
642 0.000215
643 0.000296
644 0.000481
645 0.000544
646 0.000730
647 0.000941
648 0.000976
649 0.001035
650 0.000869
651 0.000745
652 0.000590
653 0.000457
654 0.000456
655 0.000196
656 0.000059
657 0.000203
658 0.000346
659 0.000637
660 0.000826
661 0.000942
662 0.001040
663 0.001138
664 0.001294
665 0.001489
666 0.001579
667 0.001601
668 0.001613
669 0.001589
670 0.001642
671 0.001632
672 0.001575
673 0.001554
674 0.001468
675 0.001384
676 0.001330
677 0.001329
678 0.001495
679 0.001536
680 0.001554
681 0.001636
682 0.001493
683 0.001463
684 0.001381
685 0.001477
686 0.001572
687 0.001443
688 0.001257
689 0.001023
690 0.000805
691 0.000743
692 0.000864
693 0.000880
694 0.000808
695 0.000752
696 0.000595
697 0.000549
698 0.000553
699 0.000462
700 0.000396
701 0.000264
702 0.000250
703 0.000312
704 0.000362
705 0.000583
706 0.000713
707 0.000690
708 0.000673
709 0.000617
710 0.000716
711 0.000749
712 0.000732
713 0.000518
714 0.000342
715 0.000312
716 0.000354
717 0.000605
718 0.000925
719 0.001149
720 0.001431
721 0.001688
722 0.001782
723 0.001842
724 0.001779
725 0.001726
726 0.001563
727 0.001386
728 0.001398
729 0.001326
730 0.001274
731 0.001325
732 0.001323
733 0.001328
734 0.001426
735 0.001536
736 0.001658
737 0.001786
738 0.001733
739 0.001746
740 0.001623
741 0.001359
742 0.001258
743 0.000924
744 0.000671
745 0.000602
746 0.000537
747 0.000537
748 0.000498
749 0.000436
750 0.000469
751 0.000515
752 0.000699
753 0.000905
754 0.001011
755 0.000972
756 0.001004
757 0.001020
758 0.000969
759 0.000779
760 0.000570
761 0.000414
762 0.000243
763 0.000101
764 0.000149
765 0.000224
766 0.000305
767 0.000492
768 0.000593
769 0.000654
770 0.000732
771 0.000892
772 0.000995
773 0.001025
774 0.001036
775 0.001015
776 0.000926
777 0.000754
778 0.000640
779 0.000415
780 0.000200
781 0.000109
782 0.000111
783 0.000106
784 0.000103
785 0.000138
786 0.000251
787 0.000360
788 0.000490
789 0.000593
790 0.000631
791 0.000599
792 0.000713
793 0.000825
794 0.000829
795 0.000735
796 0.000507
797 0.000299
798 0.000209
799 0.000096
800 0.000139
801 0.000176
802 0.000232
803 0.000327
804 0.000536
805 0.000716
806 0.000822
807 0.000808
808 0.000843
809 0.000763
