# i correlation
1 0.015553
2 0.013288
3 0.010890
4 0.009158
5 0.007708
6 0.006476
7 0.005433
8 0.005002
9 0.004363
10 0.003842
11 0.002994
12 0.002480
13 0.002135
14 0.001890
15 0.001520
16 0.001131
17 0.000692
18 0.000725
19 0.001062
20 0.000974
21 0.000830
22 0.000669
23 0.000913
24 0.001065
25 0.001140
26 0.001373
27 0.001261
28 0.001348
29 0.001181
30 0.001029
31 0.000796
32 0.000705
33 0.000626
34 0.000969
35 0.000952
36 0.001565
37 0.001763
38 0.002191
39 0.002111
40 0.001870
41 0.001456
42 0.001361
43 0.000964
44 0.001048
45 0.000734
46 0.000555
47 0.000553
48 0.000718
49 0.000794
50 0.000716
51 0.000663
52 0.000557
53 0.000557
54 0.000269
55 -0.000068
56 -0.000350
57 -0.000353
58 -0.000563
59 -0.000749
60 -0.001111
61 -0.001078
62 -0.000830
63 -0.000597
64 -0.000309
65 -0.000253
66 -0.000043
67 0.000128
68 0.000631
69 0.000805
70 0.001352
71 0.001626
72 0.001892
73 0.001700
74 0.001758
75 0.001595
76 0.001764
77 0.001513
78 0.001423
79 0.001044
80 0.000933
81 0.000673
82 0.001030
83 0.001395
84 0.001691
85 0.001910
86 0.001779
87 0.001663
88 0.001188
89 0.000934
90 0.000770
91 0.000718
92 0.000412
93 0.000095
94 -0.000349
95 -0.000475
96 -0.000475
97 -0.000363
98 -0.000204
99 0.000038
100 0.000283
101 0.000704
102 0.000763
103 0.000728
104 0.000815
105 0.000990
106 0.001386
107 0.001495
108 0.001557
109 0.001786
110 0.002154
111 0.002295
112 0.002508
113 0.001973
114 0.001708
115 0.001331
116 0.000847
117 0.000326
118 0.000010
119 -0.000335
120 -0.000696
121 -0.001115
122 -0.001569
123 -0.001868
124 -0.001796
125 -0.001707
126 -0.001533
127 -0.001061
128 -0.000968
129 -0.000744
130 -0.000663
131 -0.000727
132 -0.001071
133 -0.001055
134 -0.000961
135 -0.000906
136 -0.001024
137 -0.000910
138 -0.000862
139 -0.000975
140 -0.001226
141 -0.001837
142 -0.002219
143 -0.002468
144 -0.002571
145 -0.002813
146 -0.002723
147 -0.002470
148 -0.002102
149 -0.001829
150 -0.001562
151 -0.001456
152 -0.001444
153 -0.001216
154 -0.000656
155 -0.000751
156 -0.000666
157 -0.000693
158 -0.000826
159 -0.000633
160 -0.000709
161 -0.000591
162 -0.000449
163 -0.000026
164 -0.000020
165 0.000113
166 0.000061
167 0.000323
168 0.000547
169 0.000689
170 0.000722
171 0.000851
172 0.000704
173 0.000760
174 0.000703
175 0.000933
176 0.000934
177 0.001082
178 0.000920
179 0.000670
180 0.000367
181 0.000118
182 0.000239
183 0.000431
184 0.000277
185 0.000376
186 0.000451
187 0.000540
188 0.000760
189 0.000683
190 0.000893
191 0.000895
192 0.000735
193 0.000607
194 0.000541
195 0.000571
196 0.000656
197 0.001063
198 0.001440
199 0.001787
200 0.001985
201 0.002430
202 0.002798
203 0.002978
204 0.003061
205 0.003204
206 0.003017
207 0.002989
208 0.002372
209 0.001951
210 0.001590
211 0.001411
212 0.001346
213 0.001319
214 0.001034
215 0.001084
216 0.001122
217 0.000983
218 0.000677
219 0.000127
220 -0.000262
221 -0.000391
222 -0.000586
223 -0.000798
224 -0.000796
225 -0.000546
226 -0.000422
227 -0.000409
228 -0.000551
229 -0.000867
230 -0.000834
231 -0.000858
232 -0.001184
233 -0.001331
234 -0.001677
235 -0.001892
236 -0.001720
237 -0.001834
238 -0.001581
239 -0.001174
240 -0.000671
241 0.000038
242 0.000306
243 0.000540
244 0.000636
245 0.000952
246 0.001268
247 0.001386
248 0.001364
249 0.001546
250 0.001554
251 0.001653
252 0.001381
253 0.000889
254 0.000586
255 0.000321
256 -0.000017
257 -0.000375
258 -0.000824
259 -0.000940
260 -0.000947
261 -0.000748
262 -0.000510
263 -0.000642
264 -0.000516
265 -0.000311
266 0.000072
267 0.000080
268 0.000135
269 0.000223
270 0.000485
271 0.000495
272 0.000530
273 0.000611
274 0.000913
275 0.000963
276 0.000864
277 0.001076
278 0.001324
279 0.001409
280 0.001561
281 0.001622
282 0.001591
283 0.001528
284 0.001551
285 0.001625
286 0.001753
287 0.002052
288 0.002132
289 0.002288
290 0.002208
291 0.001872
292 0.001496
293 0.001130
294 0.000704
295 0.000255
296 -0.000009
297 0.000011
298 0.000064
299 0.000336
300 0.000728
301 0.000944
302 0.000998
303 0.000875
304 0.000764
305 0.000407
306 0.000097
307 -0.000214
308 -0.000116
309 -0.000126
310 0.000192
311 0.000248
312 0.000239
313 0.000444
314 0.000631
315 0.000927
316 0.001067
317 0.001257
318 0.001185
319 0.001267
320 0.000958
321 0.000538
322 0.000103
323 -0.000172
324 -0.000414
325 -0.000460
326 -0.000716
327 -0.000769
328 -0.000777
329 -0.000703
330 -0.000694
331 -0.000635
332 -0.000647
333 -0.000709
334 -0.000720
335 -0.000843
336 -0.000823
337 -0.000703
338 -0.000551
339 -0.000403
340 -0.000190
341 -0.000325
342 -0.000194
343 -0.000449
344 -0.000840
345 -0.001131
346 -0.001534
347 -0.001753
348 -0.001490
349 -0.001339
350 -0.000943
351 -0.000425
352 0.000045
353 0.000450
354 0.000677
355 0.000884
356 0.001008
357 0.001102
358 0.001227
359 0.001108
360 0.000924
361 0.001150
362 0.001037
363 0.000941
364 0.000748
365 0.000357
366 -0.000019
367 -0.000390
368 -0.000865
369 -0.001214
370 -0.001361
371 -0.001486
372 -0.001625
373 -0.001801
374 -0.001951
375 -0.001890
376 -0.001565
377 -0.001447
378 -0.001358
379 -0.001353
380 -0.001325
381 -0.001362
382 -0.001477
383 -0.001484
384 -0.001157
385 -0.000731
386 -0.000368
387 0.000092
388 0.000325
389 0.000695
390 0.000886
391 0.000801
392 0.000651
393 0.000465
394 0.000153
395 0.000418
396 0.000384
397 0.000457
398 0.000315
399 0.000427
400 0.000452
401 0.000500
402 0.000309
403 0.000149
404 0.000152
405 0.000076
406 -0.000091
407 -0.000352
408 -0.000550
409 -0.000690
410 -0.000831
411 -0.001076
412 -0.001159
413 -0.001186
414 -0.000973
415 -0.000666
416 -0.000218
417 -0.000220
418 -0.000054
419 -0.000261
420 -0.000295
421 -0.000508
422 -0.000825
423 -0.000927
424 -0.000770
425 -0.000560
426 -0.000477
427 -0.000440
428 -0.000246
429 -0.000277
430 -0.000394
431 -0.000496
432 -0.000595
433 -0.000422
434 -0.000242
435 -0.000106
436 -0.000204
437 0.000032
438 0.000170
439 0.000133
440 0.000126
441 0.000330
442 0.000324
443 0.000408
444 0.000422
445 0.000264
446 0.000120
447 -0.000052
448 -0.000121
449 -0.000060
450 -0.000270
451 -0.000445
452 -0.000499
453 -0.000482
454 -0.000269
455 -0.000225
456 -0.000156
457 0.000023
458 0.000125
459 0.000065
460 -0.000080
461 -0.000178
462 -0.000125
463 0.000015
464 0.000158
465 0.000146
466 0.000039
467 0.000370
468 0.000531
469 0.000773
470 0.000731
471 0.000870
472 0.001067
473 0.001169
474 0.001021
475 0.000846
476 0.000488
477 0.000296
478 0.000051
479 -0.000079
480 -0.000305
481 -0.000414
482 -0.000310
483 -0.000567
484 -0.000748
485 -0.000859
486 -0.000876
487 -0.000600
488 -0.000402
489 -0.000372
490 -0.000156
491 0.000054
492 0.000153
493 0.000013
494 -0.000178
495 -0.000394
496 -0.000376
497 -0.000332
498 -0.000311
499 -0.000364
500 -0.000378
501 -0.000243
502 -0.000168
503 -0.000037
504 0.000010
505 0.000224
506 0.000485
507 0.000707
508 0.000912
509 0.000743
510 0.000602
511 0.000542
512 0.000388
513 0.000494
514 0.000363
515 0.000635
516 0.000975
517 0.001385
518 0.001563
519 0.001452
520 0.001370
521 0.001240
522 0.001092
523 0.000924
524 0.000881
525 0.001068
526 0.001359
527 0.001428
528 0.001395
529 0.001261
530 0.001123
531 0.000926
532 0.000671
533 0.000458
534 0.000326
535 0.000234
536 0.000108
537 -0.000267
538 -0.000474
539 -0.000474
540 -0.000493
541 -0.000492
542 -0.000617
543 -0.000612
544 -0.000476
545 -0.000393
546 -0.000281
547 -0.000163
548 -0.000316
549 -0.000345
550 -0.000599
551 -0.000700
552 -0.000680
553 -0.000643
554 -0.000629
555 -0.000347
556 -0.000259
557 -0.000250
558 -0.000197
559 -0.000218
560 -0.000162
561 -0.000201
562 -0.000243
563 -0.000364
564 -0.000442
565 -0.000389
566 -0.000380
567 -0.000346
568 -0.000335
569 -0.000464
570 -0.000499
571 -0.000645
572 -0.000717
573 -0.001010
574 -0.001093
575 -0.001073
576 -0.000980
577 -0.001000
578 -0.000927
579 -0.000859
580 -0.000956
581 -0.000869
582 -0.000908
583 -0.000689
584 -0.000685
585 -0.000693
586 -0.000682
587 -0.000645
588 -0.000736
589 -0.000639
590 -0.000725
591 -0.000391
592 -0.000226
593 -0.000065
594 0.000015
595 -0.000050
596 -0.000313
597 -0.000453
598 -0.000561
599 -0.000556
600 -0.000584
601 -0.000480
602 -0.000158
603 0.000057
604 0.000094
605 0.000059
606 0.000053
607 -0.000070
608 -0.000011
609 -0.000023
610 0.000045
611 -0.000022
612 -0.000110
613 -0.000233
614 -0.000517
615 -0.000662
616 -0.000722
617 -0.000570
618 -0.000426
619 -0.000379
620 -0.000401
621 -0.000344
622 -0.000485
623 -0.000555
624 -0.000885
625 -0.000830
626 -0.000955
627 -0.000890
628 -0.000857
629 -0.000672
630 -0.000484
631 -0.000098
632 0.000108
633 0.000094
634 -0.000008
635 0.000101
636 0.000242
637 0.000297
638 0.000352
639 0.000248
640 0.000339
641 0.000500
642 0.000485
643 0.000417
644 0.000414
645 0.000484
646 0.000504
647 0.000402
648 0.000183
649 -0.000057
650 -0.000205
651 -0.000280
652 -0.000380
653 -0.000496
654 -0.000633
655 -0.000587
656 -0.000656
657 -0.000492
658 -0.000484
659 -0.000308
660 -0.000369
661 -0.000376
662 -0.000461
663 -0.000544
664 -0.000712
665 -0.000604
666 -0.000667
667 -0.000591
668 -0.000711
669 -0.000696
670 -0.000824
671 -0.000879
672 -0.000939
673 -0.000806
674 -0.000657
675 -0.000563
676 -0.000462
677 -0.000312
678 -0.000165
679 -0.000153
680 -0.000209
681 -0.000407
682 -0.000501
683 -0.000591
684 -0.000616
685 -0.000608
686 -0.000636
687 -0.000627
688 -0.000545
689 -0.000417
690 -0.000406
691 -0.000496
692 -0.000612
693 -0.000576
694 -0.000659
695 -0.000630
696 -0.000627
697 -0.000669
698 -0.000801
699 -0.000911
700 -0.001082
701 -0.001232
702 -0.001320
703 -0.001045
704 -0.000979
705 -0.000858
706 -0.000714
707 -0.000551
708 -0.000515
709 -0.000528
710 -0.000615
711 -0.000741
712 -0.000760
713 -0.000854
714 -0.000761
715 -0.000483
716 -0.000269
717 -0.000087
718 0.000075
719 0.000119
720 0.000152
721 0.000083
722 0.000026
723 -0.000070
724 -0.000191
725 -0.000265
726 -0.000433
727 -0.000530
728 -0.000559
729 -0.000420
730 -0.000366
731 -0.000309
732 -0.000355
733 -0.000324
734 -0.000315
735 -0.000255
736 -0.000469
737 -0.000424
738 -0.000462
739 -0.000504
740 -0.000694
741 -0.000756
742 -0.000742
743 -0.000688
744 -0.000785
745 -0.000862
746 -0.000813
747 -0.000659
748 -0.000483
749 -0.000456
750 -0.000525
751 -0.000594
752 -0.000645
753 -0.000614
754 -0.000664
755 -0.000806
756 -0.000763
757 -0.000668
758 -0.000583
759 -0.000464
760 -0.000256
761 -0.000116
762 -0.000080
763 -0.000220
764 -0.000268
765 -0.000257
766 -0.000284
767 -0.000266
768 -0.000333
769 -0.000287
770 -0.000438
771 -0.000534
772 -0.000590
773 -0.000496
774 -0.000340
775 -0.000302
776 -0.000406
777 -0.000381
778 -0.000407
779 -0.000339
780 -0.000343
781 -0.000395
782 -0.000440
783 -0.000494
784 -0.000461
785 -0.000411
786 -0.000317
787 -0.000249
788 -0.000082
789 0.000021
790 0.000116
791 0.000160
792 0.000311
793 0.000360
794 0.000281
795 0.000201
796 0.000202
797 0.000279
798 0.000334
799 0.000416
800 0.000458
801 0.000423
802 0.000383
803 0.000342
804 0.000378
805 0.000533
806 0.000608
807 0.000631
808 0.000603
809 0.000565
