# i correlation
1 0.017641
2 0.014687
3 0.011932
4 0.009490
5 0.007133
6 0.005300
7 0.004305
8 0.003508
9 0.002823
10 0.001966
11 0.001276
12 0.000921
13 0.000580
14 0.000644
15 0.001068
16 0.001548
17 0.002147
18 0.002497
19 0.002870
20 0.002814
21 0.002894
22 0.003193
23 0.003439
24 0.003643
25 0.003689
26 0.003717
27 0.003712
28 0.003772
29 0.003562
30 0.003507
31 0.003707
32 0.004034
33 0.003906
34 0.003934
35 0.003985
36 0.003742
37 0.003175
38 0.002286
39 0.001899
40 0.001359
41 0.000579
42 0.000106
43 -0.000002
44 0.000033
45 0.000074
46 0.000517
47 0.001147
48 0.001650
49 0.002328
50 0.002869
51 0.003390
52 0.003587
53 0.003467
54 0.003563
55 0.003825
56 0.004206
57 0.004580
58 0.004753
59 0.004715
60 0.004673
61 0.004554
62 0.004138
63 0.003843
64 0.003333
65 0.002842
66 0.002360
67 0.002115
68 0.001724
69 0.001374
70 0.000855
71 0.000565
72 0.000302
73 0.000033
74 0.000242
75 0.000804
76 0.001180
77 0.001621
78 0.002226
79 0.002713
80 0.002890
81 0.002750
82 0.002789
83 0.002935
84 0.003046
85 0.003212
86 0.003322
87 0.003324
88 0.002795
89 0.002263
90 0.001835
91 0.001254
92 0.001313
93 0.001527
94 0.002090
95 0.002325
96 0.002660
97 0.002633
98 0.002449
99 0.002350
100 0.001980
101 0.001911
102 0.001341
103 0.000931
104 0.000369
105 -0.000437
106 -0.000822
107 -0.001130
108 -0.001162
109 -0.001093
110 -0.000881
111 -0.000148
112 0.000458
113 0.000907
114 0.001530
115 0.002039
116 0.002338
117 0.002158
118 0.002503
119 0.002421
120 0.002195
121 0.001702
122 0.001502
123 0.001049
124 0.000749
125 0.000564
126 0.000936
127 0.001359
128 0.001439
129 0.001396
130 0.001239
131 0.001206
132 0.000981
133 0.000841
134 0.000705
135 0.000811
136 0.001009
137 0.001063
138 0.001168
139 0.001068
140 0.001075
141 0.001111
142 0.001062
143 0.001169
144 0.001322
145 0.001538
146 0.001859
147 0.001793
148 0.001731
149 0.001657
150 0.001920
151 0.001874
152 0.001481
153 0.001152
154 0.000837
155 0.000693
156 0.000142
157 -0.000268
158 -0.000445
159 -0.000699
160 -0.001053
161 -0.001107
162 -0.000827
163 -0.000429
164 -0.000125
165 0.000005
166 0.000202
167 0.000021
168 -0.000026
169 -0.000237
170 -0.000223
171 0.000002
172 0.000483
173 0.000856
174 0.001041
175 0.001025
176 0.001020
177 0.001008
178 0.000966
179 0.000795
180 0.000592
181 0.000689
182 0.000509
183 0.000330
184 -0.000155
185 -0.000502
186 -0.001050
187 -0.001295
188 -0.001931
189 -0.002245
190 -0.002119
191 -0.002058
192 -0.002137
193 -0.001884
194 -0.001459
195 -0.001208
196 -0.001076
197 -0.000367
198 0.000264
199 0.000622
200 0.001051
201 0.001313
202 0.001549
203 0.001407
204 0.001177
205 0.001087
206 0.001109
207 0.001093
208 0.000738
209 0.000554
210 0.000485
211 0.000325
212 0.000420
213 0.000759
214 0.001097
215 0.001197
216 0.001128
217 0.000978
218 0.000636
219 0.000362
220 -0.000088
221 -0.000113
222 -0.000104
223 -0.000202
224 -0.000421
225 -0.000547
226 -0.000490
227 -0.000575
228 -0.000601
229 -0.000326
230 -0.000092
231 -0.000088
232 -0.000248
233 -0.000091
234 0.000001
235 -0.000206
236 -0.000422
237 -0.000458
238 -0.000424
239 -0.000218
240 0.000137
241 0.000374
242 0.000477
243 0.000545
244 0.000576
245 0.000463
246 0.000434
247 0.000358
248 0.000308
249 0.000517
250 0.000795
251 0.001057
252 0.001111
253 0.001144
254 0.000979
255 0.000455
256 -0.000031
257 -0.000543
258 -0.000713
259 -0.000940
260 -0.000883
261 -0.000603
262 -0.000134
263 0.000185
264 0.000428
265 0.000757
266 0.000792
267 0.000606
268 0.000355
269 0.000023
270 -0.000252
271 -0.000617
272 -0.000583
273 -0.000420
274 -0.000173
275 0.000038
276 -0.000155
277 -0.000083
278 -0.000210
279 -0.000175
280 -0.000284
281 -0.000485
282 -0.000625
283 -0.000879
284 -0.000938
285 -0.001263
286 -0.001458
287 -0.001577
288 -0.001728
289 -0.001759
290 -0.001726
291 -0.001582
292 -0.001397
293 -0.001292
294 -0.001376
295 -0.001302
296 -0.001005
297 -0.000650
298 -0.000241
299 0.000198
300 0.000401
301 0.000732
302 0.000814
303 0.000925
304 0.000843
305 0.000520
306 0.000100
307 -0.000253
308 -0.000309
309 -0.000156
310 -0.000266
311 -0.000305
312 -0.000373
313 -0.000273
314 -0.000221
315 -0.000360
316 -0.000667
317 -0.000994
318 -0.001173
319 -0.001460
320 -0.001831
321 -0.002037
322 -0.001998
323 -0.001957
324 -0.001998
325 -0.001632
326 -0.001284
327 -0.001086
328 -0.000831
329 -0.000561
330 -0.000270
331 0.000039
332 0.000188
333 0.000241
334 0.000173
335 0.000283
336 0.000258
337 0.000396
338 0.000384
339 0.000309
340 0.000561
341 0.000666
342 0.000545
343 0.000293
344 0.000252
345 0.000483
346 0.000558
347 0.000768
348 0.001134
349 0.001583
350 0.001824
351 0.001569
352 0.001309
353 0.001216
354 0.000925
355 0.000513
356 -0.000006
357 -0.000280
358 -0.000580
359 -0.000584
360 -0.000598
361 -0.000486
362 -0.000269
363 -0.000175
364 -0.000008
365 0.000253
366 0.000514
367 0.000727
368 0.000829
369 0.001031
370 0.000879
371 0.000803
372 0.001012
373 0.000822
374 0.000811
375 0.000659
376 0.000767
377 0.000803
378 0.000820
379 0.000684
380 0.000722
381 0.000737
382 0.000737
383 0.000795
384 0.000792
385 0.000862
386 0.000654
387 0.000281
388 -0.000023
389 -0.000126
390 -0.000293
391 -0.000149
392 -0.000018
393 0.000235
394 0.000526
395 0.000617
396 0.000675
397 0.000805
398 0.000934
399 0.001087
400 0.001288
401 0.001468
402 0.001536
403 0.001533
404 0.001471
405 0.001389
406 0.001109
407 0.000841
408 0.000730
409 0.000376
410 -0.000002
411 -0.000153
412 -0.000238
413 -0.000366
414 -0.000346
415 -0.000184
416 0.000009
417 0.000212
418 0.000441
419 0.000714
420 0.001070
421 0.001104
422 0.001002
423 0.000904
424 0.000916
425 0.001070
426 0.001109
427 0.001290
428 0.001474
429 0.001617
430 0.001586
431 0.001474
432 0.001331
433 0.001236
434 0.001141
435 0.001076
436 0.001024
437 0.001159
438 0.000987
439 0.000902
440 0.000995
441 0.001357
442 0.001359
443 0.001479
444 0.001533
445 0.001581
446 0.001690
447 0.001798
448 0.001871
449 0.001911
450 0.001730
451 0.001405
452 0.001058
453 0.000644
454 0.000354
455 0.000170
456 0.000065
457 -0.000032
458 -0.000071
459 0.000060
460 0.000244
461 0.000534
462 0.000938
463 0.001525
464 0.001873
465 0.002259
466 0.002440
467 0.002415
468 0.002341
469 0.002379
470 0.002335
471 0.002184
472 0.002067
473 0.001832
474 0.001353
475 0.001029
476 0.000963
477 0.001054
478 0.000999
479 0.001174
480 0.001511
481 0.002013
482 0.002158
483 0.002186
484 0.002002
485 0.001558
486 0.001401
487 0.001223
488 0.001129
489 0.001010
490 0.000924
491 0.000982
492 0.001017
493 0.001029
494 0.001161
495 0.001355
496 0.001689
497 0.001857
498 0.002204
499 0.002271
500 0.002262
501 0.002315
502 0.002168
503 0.001927
504 0.001873
505 0.001933
506 0.001775
507 0.001615
508 0.001248
509 0.000962
510 0.000494
511 0.000053
512 0.000036
513 0.000198
514 0.000397
515 0.000661
516 0.001185
517 0.001500
518 0.001809
519 0.001993
520 0.002239
521 0.002513
522 0.002635
523 0.002698
524 0.002779
525 0.002694
526 0.002629
527 0.002603
528 0.002559
529 0.002459
530 0.002253
531 0.001891
532 0.001561
533 0.001209
534 0.000688
535 0.000231
536 -0.000236
537 -0.000580
538 -0.000598
539 -0.000554
540 -0.000287
541 0.000044
542 0.000301
543 0.000429
544 0.000783
545 0.000983
546 0.001187
547 0.001545
548 0.001958
549 0.002301
550 0.002364
551 0.002311
552 0.002179
553 0.002106
554 0.001741
555 0.001559
556 0.001450
557 0.001405
558 0.001283
559 0.001382
560 0.001043
561 0.000799
562 0.000498
563 0.000325
564 0.000100
565 -0.000012
566 -0.000012
567 -0.000110
568 -0.000309
569 -0.000512
570 -0.000760
571 -0.000944
572 -0.001019
573 -0.001028
574 -0.001006
575 -0.000807
576 -0.000182
577 0.000404
578 0.001002
579 0.001382
580 0.001575
581 0.001653
582 0.001561
583 0.001554
584 0.001608
585 0.001566
586 0.001292
587 0.000938
588 0.000727
589 0.000246
590 -0.000066
591 -0.000248
592 -0.000196
593 -0.000288
594 -0.000375
595 -0.000270
596 -0.000277
597 -0.000378
598 -0.000402
599 -0.000181
600 0.000019
601 0.000278
602 0.000629
603 0.000844
604 0.000839
605 0.000882
606 0.000968
607 0.000940
608 0.000875
609 0.000882
610 0.001040
611 0.001057
612 0.001103
613 0.001198
614 0.001283
615 0.001261
616 0.001141
617 0.000867
618 0.000807
619 0.000630
620 0.000519
621 0.000230
622 0.000005
623 -0.000204
624 -0.000441
625 -0.000672
626 -0.000975
627 -0.000896
628 -0.000710
629 -0.000683
630 -0.000760
631 -0.000679
632 -0.000557
633 -0.000478
634 -0.000210
635 0.000108
636 0.000351
637 0.000584
638 0.000701
639 0.000668
640 0.000564
641 0.000467
642 0.000696
643 0.000889
644 0.001085
645 0.001184
646 0.001357
647 0.001355
648 0.001143
649 0.000872
650 0.000517
651 0.000276
652 -0.000061
653 -0.000222
654 -0.000439
655 -0.000616
656 -0.000761
657 -0.000919
658 -0.001058
659 -0.001004
660 -0.000815
661 -0.000757
662 -0.000501
663 -0.000184
664 0.000136
665 0.000302
666 0.000399
667 0.000518
668 0.000574
669 0.000523
670 0.000608
671 0.000634
672 0.000559
673 0.000466
674 0.000317
675 0.000119
676 -0.000060
677 -0.000198
678 -0.000218
679 -0.000194
680 -0.000199
681 -0.000168
682 -0.000178
683 -0.000363
684 -0.000478
685 -0.000391
686 -0.000380
687 -0.000388
688 -0.000334
689 -0.000294
690 -0.000238
691 -0.000270
692 -0.000313
693 -0.000465
694 -0.000402
695 -0.000309
696 -0.000243
697 -0.000234
698 -0.000075
699 0.000312
700 0.000552
701 0.000594
702 0.000718
703 0.000983
704 0.001138
705 0.001053
706 0.000906
707 0.000806
708 0.000515
709 0.000137
710 -0.000232
711 -0.000551
712 -0.000790
713 -0.001013
714 -0.000973
715 -0.000997
716 -0.001007
717 -0.000944
718 -0.000901
719 -0.000776
720 -0.000611
721 -0.000301
722 -0.000066
723 0.000006
724 0.000073
725 0.000047
726 0.000039
727 0.000008
728 -0.000064
729 -0.000021
730 0.000015
731 0.000113
732 0.000060
733 -0.000142
734 -0.000209
735 -0.000293
736 -0.000350
737 -0.000537
738 -0.000568
739 -0.000582
740 -0.000586
741 -0.000659
742 -0.000736
743 -0.000759
744 -0.000841
745 -0.000767
746 -0.000602
747 -0.000394
748 -0.000319
749 -0.000276
750 -0.000283
751 -0.000219
752 -0.000360
753 -0.000482
754 -0.000429
755 -0.000369
756 -0.000213
757 -0.000131
758 -0.000074
759 -0.000144
760 -0.000203
761 -0.000327
762 -0.000530
763 -0.000613
764 -0.000680
765 -0.000653
766 -0.000618
767 -0.000787
768 -0.000917
769 -0.001013
770 -0.001118
771 -0.001176
772 -0.001243
773 -0.001150
774 -0.000988
775 -0.000837
776 -0.000865
777 -0.000827
778 -0.000762
779 -0.000672
780 -0.000601
781 -0.000500
782 -0.000392
783 -0.000383
784 -0.000431
785 -0.000593
786 -0.000684
787 -0.000908
788 -0.001045
789 -0.001170
790 -0.001239
791 -0.001293
792 -0.001310
793 -0.001271
794 -0.001299
795 -0.001404
796 -0.001440
797 -0.001445
798 -0.001447
799 -0.001376
800 -0.001244
801 -0.001065
802 -0.000903
803 -0.000819
804 -0.000753
805 -0.000686
806 -0.000670
807 -0.000669
808 -0.000622
809 -0.000694
