# i correlation
1 0.021233
2 0.018628
3 0.016275
4 0.014168
5 0.012459
6 0.010897
7 0.009758
8 0.008765
9 0.007873
10 0.007003
11 0.006457
12 0.005714
13 0.004920
14 0.004528
15 0.004050
16 0.003852
17 0.003738
18 0.003954
19 0.004018
20 0.003898
21 0.003604
22 0.003447
23 0.003516
24 0.003489
25 0.003591
26 0.003837
27 0.003821
28 0.003949
29 0.003838
30 0.003574
31 0.003452
32 0.003291
33 0.002893
34 0.002671
35 0.002386
36 0.002500
37 0.002726
38 0.002998
39 0.003032
40 0.003119
41 0.002977
42 0.002844
43 0.002841
44 0.002764
45 0.002194
46 0.001982
47 0.001650
48 0.001607
49 0.001605
50 0.001656
51 0.001757
52 0.001720
53 0.001600
54 0.001596
55 0.001635
56 0.001323
57 0.001295
58 0.001462
59 0.001590
60 0.001720
61 0.001737
62 0.001770
63 0.001944
64 0.002218
65 0.002297
66 0.002456
67 0.002540
68 0.002807
69 0.002874
70 0.002928
71 0.002749
72 0.002617
73 0.002186
74 0.002079
75 0.002217
76 0.002331
77 0.002657
78 0.002866
79 0.003053
80 0.003337
81 0.003338
82 0.003747
83 0.003864
84 0.003869
85 0.003462
86 0.003559
87 0.003494
88 0.003127
89 0.002885
90 0.002565
91 0.002324
92 0.001812
93 0.001461
94 0.001417
95 0.001123
96 0.000861
97 0.000375
98 0.000033
99 -0.000203
100 -0.000285
101 -0.000337
102 -0.000080
103 0.000307
104 0.000627
105 0.000836
106 0.000978
107 0.001167
108 0.001327
109 0.001620
110 0.001908
111 0.001938
112 0.001885
113 0.001571
114 0.001437
115 0.000936
116 0.000450
117 -0.000080
118 -0.000231
119 -0.000255
120 -0.000338
121 -0.000538
122 -0.000667
123 -0.000759
124 -0.000915
125 -0.000715
126 -0.000634
127 -0.000701
128 -0.000479
129 -0.000286
130 0.000043
131 0.000248
132 0.000692
133 0.001083
134 0.001294
135 0.001384
136 0.001541
137 0.001615
138 0.001740
139 0.001742
140 0.001781
141 0.001795
142 0.001785
143 0.001768
144 0.001784
145 0.001924
146 0.002250
147 0.002558
148 0.002739
149 0.002679
150 0.002699
151 0.002684
152 0.002901
153 0.002833
154 0.003033
155 0.003040
156 0.002679
157 0.002349
158 0.002387
159 0.002446
160 0.002375
161 0.002111
162 0.002177
163 0.002364
164 0.002445
165 0.002408
166 0.002405
167 0.002283
168 0.002112
169 0.002028
170 0.001954
171 0.002052
172 0.002437
173 0.002877
174 0.003008
175 0.003002
176 0.003221
177 0.003294
178 0.003396
179 0.003282
180 0.003230
181 0.003152
182 0.003082
183 0.003154
184 0.003358
185 0.003495
186 0.003333
187 0.003248
188 0.003028
189 0.002843
190 0.002694
191 0.002519
192 0.002326
193 0.002022
194 0.001840
195 0.001368
196 0.001165
197 0.001032
198 0.000985
199 0.000995
200 0.001040
201 0.001264
202 0.001302
203 0.001452
204 0.001308
205 0.001502
206 0.001581
207 0.001631
208 0.002170
209 0.002599
210 0.002770
211 0.002696
212 0.002859
213 0.002705
214 0.002578
215 0.002500
216 0.002723
217 0.002994
218 0.003097
219 0.003240
220 0.003490
221 0.003530
222 0.003758
223 0.003945
224 0.004246
225 0.004177
226 0.004280
227 0.004221
228 0.004276
229 0.004448
230 0.004414
231 0.004519
232 0.004399
233 0.004354
234 0.004346
235 0.004315
236 0.004098
237 0.003737
238 0.003414
239 0.003335
240 0.003555
241 0.003588
242 0.003733
243 0.003755
244 0.003626
245 0.003459
246 0.003226
247 0.002890
248 0.002435
249 0.002192
250 0.001893
251 0.001724
252 0.001806
253 0.001446
254 0.001141
255 0.000779
256 0.000433
257 0.000338
258 0.000440
259 0.000592
260 0.000958
261 0.001136
262 0.001621
263 0.001905
264 0.001997
265 0.001745
266 0.001920
267 0.002029
268 0.002140
269 0.002313
270 0.002438
271 0.002796
272 0.002841
273 0.002740
274 0.002368
275 0.001833
276 0.001337
277 0.001122
278 0.001082
279 0.000982
280 0.000964
281 0.000983
282 0.000942
283 0.001094
284 0.001042
285 0.000995
286 0.000971
287 0.001129
288 0.001604
289 0.002056
290 0.002275
291 0.002359
292 0.002650
293 0.002563
294 0.002928
295 0.003443
296 0.003713
297 0.003786
298 0.003863
299 0.004309
300 0.004483
301 0.004453
302 0.004109
303 0.003619
304 0.003271
305 0.002666
306 0.002526
307 0.002164
308 0.002093
309 0.001946
310 0.001961
311 0.002009
312 0.002049
313 0.002148
314 0.002162
315 0.002460
316 0.002425
317 0.002819
318 0.002906
319 0.003288
320 0.003498
321 0.003715
322 0.003796
323 0.003730
324 0.003605
325 0.003200
326 0.003245
327 0.003137
328 0.002959
329 0.002753
330 0.002620
331 0.002711
332 0.002782
333 0.002798
334 0.002747
335 0.002550
336 0.002174
337 0.001631
338 0.001251
339 0.000902
340 0.000736
341 0.000553
342 0.000612
343 0.000790
344 0.000831
345 0.000881
346 0.001019
347 0.000721
348 0.000517
349 0.000474
350 0.000259
351 -0.000060
352 -0.000231
353 -0.000177
354 -0.000117
355 -0.000053
356 -0.000284
357 -0.000512
358 -0.000849
359 -0.001055
360 -0.000942
361 -0.000769
362 -0.000618
363 -0.000338
364 -0.000041
365 0.000028
366 0.000070
367 0.000118
368 0.000201
369 0.000231
370 0.000354
371 0.000468
372 0.000958
373 0.001318
374 0.001701
375 0.001919
376 0.002005
377 0.001881
378 0.002024
379 0.002029
380 0.001812
381 0.001930
382 0.002061
383 0.002267
384 0.002438
385 0.002511
386 0.002847
387 0.003015
388 0.003033
389 0.002908
390 0.003024
391 0.003122
392 0.003338
393 0.003651
394 0.003855
395 0.003953
396 0.003897
397 0.003894
398 0.003744
399 0.003581
400 0.003366
401 0.003380
402 0.003518
403 0.003648
404 0.003797
405 0.003669
406 0.003688
407 0.003569
408 0.003360
409 0.003069
410 0.003005
411 0.002835
412 0.002660
413 0.002518
414 0.002507
415 0.002467
416 0.002234
417 0.001982
418 0.001731
419 0.001335
420 0.001102
421 0.001024
422 0.000959
423 0.000760
424 0.000805
425 0.000920
426 0.000934
427 0.000934
428 0.000900
429 0.000998
430 0.001172
431 0.001230
432 0.001208
433 0.001235
434 0.001153
435 0.001006
436 0.001075
437 0.001383
438 0.001465
439 0.001407
440 0.001308
441 0.001091
442 0.001063
443 0.001150
444 0.001241
445 0.001348
446 0.001490
447 0.001490
448 0.001434
449 0.001316
450 0.001222
451 0.001164
452 0.000984
453 0.000831
454 0.000779
455 0.000796
456 0.000795
457 0.000783
458 0.000715
459 0.000536
460 0.000190
461 -0.000060
462 -0.000060
463 -0.000183
464 -0.000264
465 -0.000183
466 -0.000236
467 -0.000286
468 -0.000201
469 0.000002
470 -0.000044
471 0.000035
472 0.000248
473 0.000541
474 0.001002
475 0.001331
476 0.001684
477 0.001870
478 0.002020
479 0.002081
480 0.002215
481 0.002360
482 0.002495
483 0.002421
484 0.002261
485 0.001968
486 0.001753
487 0.001366
488 0.001212
489 0.001179
490 0.000965
491 0.000741
492 0.000618
493 0.000673
494 0.000507
495 0.000389
496 0.000200
497 0.000203
498 0.000173
499 -0.000143
500 -0.000191
501 -0.000302
502 -0.000262
503 -0.000178
504 0.000085
505 0.000267
506 0.000456
507 0.000730
508 0.000928
509 0.000958
510 0.000687
511 0.000442
512 0.000346
513 0.000215
514 0.000046
515 0.000010
516 0.000139
517 0.000200
518 0.000482
519 0.000521
520 0.000865
521 0.001188
522 0.001384
523 0.001552
524 0.001681
525 0.001764
526 0.001811
527 0.001760
528 0.001816
529 0.002007
530 0.002136
531 0.002044
532 0.002145
533 0.002363
534 0.002524
535 0.002621
536 0.002531
537 0.002403
538 0.002077
539 0.001896
540 0.001875
541 0.001973
542 0.001976
543 0.001880
544 0.001814
545 0.001604
546 0.001728
547 0.001586
548 0.001579
549 0.001590
550 0.001538
551 0.001671
552 0.001748
553 0.001831
554 0.001887
555 0.001824
556 0.001889
557 0.001885
558 0.002123
559 0.002240
560 0.002356
561 0.002588
562 0.003051
563 0.003250
564 0.003282
565 0.003417
566 0.003590
567 0.003574
568 0.003553
569 0.003482
570 0.003493
571 0.003394
572 0.003524
573 0.003576
574 0.003349
575 0.003177
576 0.002865
577 0.002584
578 0.002437
579 0.002284
580 0.002049
581 0.001668
582 0.001204
583 0.000909
584 0.000921
585 0.000964
586 0.000991
587 0.001107
588 0.001256
589 0.001389
590 0.001670
591 0.001919
592 0.002104
593 0.002199
594 0.002223
595 0.002239
596 0.002105
597 0.001960
598 0.001833
599 0.001602
600 0.001372
601 0.001031
602 0.000971
603 0.000898
604 0.000920
605 0.000935
606 0.000950
607 0.000927
608 0.000828
609 0.001010
610 0.001090
611 0.001130
612 0.001415
613 0.001683
614 0.002144
615 0.002517
616 0.003030
617 0.003417
618 0.003524
619 0.003373
620 0.003265
621 0.003185
622 0.002984
623 0.002887
624 0.002584
625 0.002203
626 0.001879
627 0.001621
628 0.001743
629 0.001548
630 0.001496
631 0.001291
632 0.001327
633 0.001320
634 0.001338
635 0.001285
636 0.001284
637 0.001109
638 0.001038
639 0.000773
640 0.000673
641 0.000563
642 0.000471
643 0.000489
644 0.000447
645 0.000485
646 0.000527
647 0.000494
648 0.000476
649 0.000414
650 0.000339
651 0.000067
652 0.000008
653 0.000042
654 0.000278
655 0.000559
656 0.000797
657 0.000983
658 0.001115
659 0.001057
660 0.000957
661 0.000895
662 0.000755
663 0.000438
664 0.000164
665 -0.000118
666 -0.000186
667 -0.000205
668 -0.000167
669 -0.000122
670 -0.000095
671 -0.000044
672 0.000178
673 0.000298
674 0.000504
675 0.000647
676 0.000857
677 0.001126
678 0.001246
679 0.001341
680 0.001390
681 0.001432
682 0.001426
683 0.001287
684 0.001232
685 0.001179
686 0.001144
687 0.001052
688 0.000928
689 0.000823
690 0.000588
691 0.000522
692 0.000630
693 0.000702
694 0.000753
695 0.000719
696 0.000682
697 0.000665
698 0.000897
699 0.000983
700 0.001199
701 0.001308
702 0.001351
703 0.001534
704 0.001584
705 0.001794
706 0.002009
707 0.001943
708 0.001973
709 0.002041
710 0.002056
711 0.001934
712 0.001749
713 0.001543
714 0.001365
715 0.001117
716 0.001113
717 0.001210
718 0.001353
719 0.001424
720 0.001468
721 0.001548
722 0.001583
723 0.001499
724 0.001584
725 0.001660
726 0.001697
727 0.001648
728 0.001557
729 0.001512
730 0.001280
731 0.001059
732 0.000972
733 0.000705
734 0.000423
735 0.000123
736 -0.000069
737 -0.000125
738 0.000028
739 0.000254
740 0.000407
741 0.000538
742 0.000645
743 0.000820
744 0.000939
745 0.001099
746 0.001233
747 0.001382
748 0.001459
749 0.001457
750 0.001484
751 0.001474
752 0.001449
753 0.001301
754 0.001194
755 0.001070
756 0.001000
757 0.001095
758 0.001222
759 0.001253
760 0.001273
761 0.001337
762 0.001329
763 0.001414
764 0.001571
765 0.001668
766 0.001726
767 0.001682
768 0.001708
769 0.001682
770 0.001684
771 0.001568
772 0.001409
773 0.001135
774 0.000796
775 0.000640
776 0.000536
777 0.000444
778 0.000292
779 0.000183
780 0.000290
781 0.000384
782 0.000539
783 0.000617
784 0.000620
785 0.000544
786 0.000623
787 0.000705
788 0.000882
789 0.001072
790 0.001139
791 0.001139
792 0.001239
793 0.001216
794 0.001181
795 0.001240
796 0.001296
797 0.001303
798 0.001257
799 0.001196
800 0.001145
801 0.001127
802 0.001022
803 0.000932
804 0.000839
805 0.000828
806 0.000763
807 0.000732
808 0.000817
809 0.000863
