# i correlation
1 0.017133
2 0.014669
3 0.013264
4 0.011864
5 0.010560
6 0.009303
7 0.008399
8 0.007389
9 0.006186
10 0.005099
11 0.004141
12 0.003336
13 0.002672
14 0.002182
15 0.001641
16 0.001109
17 0.000867
18 0.000381
19 0.000071
20 0.000006
21 0.000133
22 0.000236
23 0.000182
24 0.000295
25 0.000248
26 0.000104
27 -0.000069
28 -0.000477
29 -0.000810
30 -0.000948
31 -0.001109
32 -0.001196
33 -0.001567
34 -0.001559
35 -0.001515
36 -0.001491
37 -0.001754
38 -0.001950
39 -0.002001
40 -0.001696
41 -0.001192
42 -0.000986
43 -0.000939
44 -0.001045
45 -0.001297
46 -0.001211
47 -0.000716
48 -0.000454
49 -0.000328
50 -0.000144
51 -0.000285
52 -0.000371
53 -0.000316
54 -0.000252
55 -0.000512
56 -0.000732
57 -0.000712
58 -0.000903
59 -0.001124
60 -0.001534
61 -0.001694
62 -0.001938
63 -0.002166
64 -0.002460
65 -0.002918
66 -0.002879
67 -0.002752
68 -0.002942
69 -0.002758
70 -0.002418
71 -0.002170
72 -0.001783
73 -0.001405
74 -0.001230
75 -0.001139
76 -0.001268
77 -0.001092
78 -0.001191
79 -0.001473
80 -0.001507
81 -0.001752
82 -0.001835
83 -0.001835
84 -0.001955
85 -0.002039
86 -0.002370
87 -0.002519
88 -0.002573
89 -0.002731
90 -0.002780
91 -0.002580
92 -0.002537
93 -0.002119
94 -0.001737
95 -0.001611
96 -0.001274
97 -0.000800
98 -0.000382
99 0.000105
100 0.000538
101 0.001035
102 0.001156
103 0.001046
104 0.001090
105 0.000866
106 0.000560
107 0.000331
108 0.000483
109 0.000189
110 -0.000054
111 -0.000292
112 -0.000166
113 0.000122
114 0.000393
115 0.000300
116 0.000163
117 0.000190
118 0.000275
119 0.000329
120 0.000674
121 0.000894
122 0.000984
123 0.001280
124 0.001359
125 0.001791
126 0.002035
127 0.002255
128 0.002160
129 0.002156
130 0.002299
131 0.002156
132 0.002019
133 0.001496
134 0.001208
135 0.001045
136 0.001013
137 0.000890
138 0.000785
139 0.000781
140 0.000664
141 0.000481
142 0.000232
143 0.000097
144 0.000078
145 -0.000039
146 0.000019
147 0.000405
148 0.000712
149 0.000645
150 0.000588
151 0.000598
152 0.000847
153 0.000624
154 0.000593
155 0.000353
156 0.000054
157 -0.000271
158 -0.000641
159 -0.000986
160 -0.000991
161 -0.001032
162 -0.001348
163 -0.001645
164 -0.002102
165 -0.002649
166 -0.003072
167 -0.003431
168 -0.003681
169 -0.003909
170 -0.003863
171 -0.003691
172 -0.003461
173 -0.003003
174 -0.002479
175 -0.002255
176 -0.002043
177 -0.001604
178 -0.001161
179 -0.000490
180 -0.000241
181 -0.000218
182 0.000173
183 0.000211
184 0.000568
185 0.000491
186 0.000466
187 0.000646
188 0.000619
189 0.000453
190 0.000222
191 0.000023
192 -0.000036
193 -0.000308
194 -0.000387
195 -0.000155
196 0.000052
197 0.000138
198 0.000102
199 0.000303
200 0.000612
201 0.000716
202 0.000733
203 0.000756
204 0.000732
205 0.000531
206 0.000267
207 0.000034
208 -0.000144
209 -0.000427
210 -0.000806
211 -0.001233
212 -0.001691
213 -0.001975
214 -0.001937
215 -0.002137
216 -0.002153
217 -0.002308
218 -0.002500
219 -0.002930
220 -0.003227
221 -0.003042
222 -0.002950
223 -0.003043
224 -0.002655
225 -0.002303
226 -0.001798
227 -0.001143
228 -0.000841
229 -0.000511
230 -0.000273
231 0.000031
232 0.000033
233 0.000099
234 -0.000040
235 0.000066
236 0.000074
237 0.000056
238 0.000314
239 0.000369
240 0.000222
241 0.000068
242 -0.000033
243 -0.000082
244 -0.000109
245 -0.000147
246 0.000034
247 -0.000236
248 -0.000374
249 -0.000144
250 0.000066
251 0.000328
252 0.000841
253 0.001435
254 0.001741
255 0.002084
256 0.002417
257 0.002615
258 0.002601
259 0.002694
260 0.002709
261 0.002768
262 0.002885
263 0.002843
264 0.003010
265 0.002912
266 0.002657
267 0.002563
268 0.002496
269 0.002328
270 0.001763
271 0.001451
272 0.001182
273 0.001030
274 0.001066
275 0.001013
276 0.000895
277 0.000562
278 0.000611
279 0.000853
280 0.001085
281 0.001278
282 0.001000
283 0.000860
284 0.000779
285 0.000600
286 0.000676
287 0.001015
288 0.001532
289 0.001360
290 0.001292
291 0.001229
292 0.001075
293 0.001161
294 0.001033
295 0.000910
296 0.001040
297 0.001049
298 0.001068
299 0.001212
300 0.001554
301 0.001667
302 0.001665
303 0.001559
304 0.001453
305 0.001291
306 0.000990
307 0.000758
308 0.000715
309 0.000737
310 0.000771
311 0.000837
312 0.000746
313 0.000524
314 0.000396
315 0.000570
316 0.000494
317 0.000228
318 0.000069
319 -0.000196
320 -0.000519
321 -0.000851
322 -0.000860
323 -0.000738
324 -0.000865
325 -0.001055
326 -0.000842
327 -0.000704
328 -0.000473
329 -0.000240
330 0.000013
331 0.000287
332 0.000465
333 0.000332
334 0.000384
335 0.000642
336 0.000737
337 0.000789
338 0.000883
339 0.000905
340 0.000987
341 0.001031
342 0.000992
343 0.001035
344 0.000920
345 0.000726
346 0.000513
347 0.000468
348 0.000487
349 0.000385
350 -0.000002
351 -0.000171
352 -0.000234
353 -0.000379
354 -0.000537
355 -0.000854
356 -0.000928
357 -0.001010
358 -0.001035
359 -0.001241
360 -0.001592
361 -0.001687
362 -0.001982
363 -0.002093
364 -0.002386
365 -0.002486
366 -0.002449
367 -0.002557
368 -0.002696
369 -0.002590
370 -0.002506
371 -0.002393
372 -0.002324
373 -0.002264
374 -0.002173
375 -0.001924
376 -0.001517
377 -0.001226
378 -0.000981
379 -0.000571
380 -0.000377
381 -0.000142
382 0.000286
383 0.000668
384 0.000985
385 0.001213
386 0.001343
387 0.001526
388 0.001553
389 0.001777
390 0.001851
391 0.001979
392 0.002020
393 0.001926
394 0.001709
395 0.001346
396 0.001063
397 0.000596
398 0.000293
399 0.000216
400 0.000127
401 0.000286
402 0.000045
403 -0.000014
404 -0.000127
405 -0.000335
406 -0.000411
407 -0.000445
408 -0.000398
409 -0.000684
410 -0.000832
411 -0.000782
412 -0.000717
413 -0.000586
414 -0.000449
415 -0.000219
416 0.000056
417 0.000237
418 0.000372
419 0.000319
420 0.000259
421 0.000076
422 -0.000231
423 -0.000244
424 -0.000421
425 -0.000539
426 -0.000684
427 -0.000824
428 -0.000659
429 -0.000372
430 -0.000167
431 -0.000168
432 -0.000110
433 -0.000031
434 -0.000013
435 0.000077
436 0.000168
437 0.000078
438 0.000186
439 0.000137
440 0.000188
441 0.000433
442 0.000797
443 0.001117
444 0.001129
445 0.001014
446 0.001029
447 0.000822
448 0.000896
449 0.001262
450 0.001356
451 0.001357
452 0.001407
453 0.001560
454 0.001588
455 0.001501
456 0.001435
457 0.001489
458 0.001467
459 0.001467
460 0.001552
461 0.001447
462 0.001456
463 0.001407
464 0.001330
465 0.001248
466 0.001195
467 0.001055
468 0.000726
469 0.000456
470 0.000365
471 0.000325
472 0.000172
473 0.000039
474 0.000021
475 -0.000163
476 -0.000443
477 -0.000638
478 -0.000742
479 -0.000922
480 -0.000968
481 -0.000967
482 -0.001067
483 -0.001134
484 -0.000923
485 -0.000691
486 -0.000655
487 -0.000620
488 -0.000487
489 -0.000453
490 -0.000308
491 -0.000181
492 -0.000006
493 -0.000054
494 -0.000384
495 -0.000309
496 -0.000066
497 -0.000041
498 -0.000219
499 -0.000215
500 -0.000177
501 -0.000374
502 -0.000463
503 -0.000467
504 -0.000540
505 -0.000523
506 -0.000620
507 -0.000613
508 -0.000676
509 -0.000782
510 -0.000879
511 -0.001213
512 -0.001287
513 -0.001360
514 -0.001372
515 -0.001273
516 -0.001402
517 -0.001299
518 -0.001269
519 -0.001179
520 -0.001074
521 -0.000990
522 -0.000899
523 -0.000701
524 -0.000586
525 -0.000552
526 -0.000323
527 -0.000138
528 -0.000063
529 -0.000038
530 -0.000064
531 0.000158
532 0.000351
533 0.000399
534 0.000286
535 0.000090
536 0.000022
537 0.000070
538 -0.000143
539 -0.000166
540 -0.000185
541 -0.000415
542 -0.000557
543 -0.000301
544 -0.000043
545 0.000009
546 0.000081
547 0.000070
548 -0.000033
549 -0.000022
550 0.000045
551 0.000126
552 -0.000061
553 0.000106
554 0.000228
555 0.000356
556 0.000446
557 0.000509
558 0.000538
559 0.000574
560 0.000335
561 0.000180
562 0.000234
563 0.000219
564 0.000334
565 0.000432
566 0.000368
567 0.000571
568 0.000831
569 0.000953
570 0.001002
571 0.001155
572 0.001190
573 0.001279
574 0.001392
575 0.001577
576 0.001613
577 0.001573
578 0.001592
579 0.001728
580 0.001920
581 0.002069
582 0.001966
583 0.001965
584 0.001907
585 0.001970
586 0.002099
587 0.002315
588 0.002280
589 0.002294
590 0.002408
591 0.002334
592 0.002293
593 0.002238
594 0.002187
595 0.002163
596 0.001936
597 0.001699
598 0.001617
599 0.001366
600 0.001055
601 0.000794
602 0.000532
603 0.000397
604 0.000089
605 -0.000114
606 -0.000221
607 -0.000390
608 -0.000713
609 -0.001169
610 -0.001450
611 -0.001563
612 -0.001406
613 -0.001329
614 -0.001435
615 -0.001430
616 -0.001309
617 -0.001232
618 -0.001176
619 -0.001331
620 -0.001545
621 -0.001608
622 -0.001427
623 -0.001550
624 -0.001877
625 -0.002028
626 -0.002022
627 -0.001942
628 -0.001718
629 -0.001600
630 -0.001415
631 -0.001185
632 -0.001089
633 -0.001042
634 -0.001037
635 -0.001023
636 -0.001047
637 -0.000980
638 -0.000935
639 -0.000721
640 -0.000609
641 -0.000733
642 -0.000785
643 -0.000830
644 -0.000669
645 -0.000492
646 -0.000463
647 -0.000252
648 -0.000078
649 -0.000019
650 -0.000065
651 -0.000240
652 -0.000368
653 -0.000500
654 -0.000579
655 -0.000725
656 -0.000885
657 -0.001144
658 -0.001343
659 -0.001482
660 -0.001721
661 -0.002048
662 -0.002168
663 -0.002201
664 -0.002279
665 -0.002315
666 -0.002293
667 -0.002210
668 -0.002212
669 -0.002020
670 -0.001797
671 -0.001524
672 -0.001169
673 -0.000894
674 -0.000740
675 -0.000523
676 -0.000352
677 -0.000318
678 -0.000440
679 -0.000259
680 0.000167
681 0.000466
682 0.000559
683 0.000691
684 0.000884
685 0.001068
686 0.001227
687 0.001347
688 0.001499
689 0.001777
690 0.001866
691 0.002033
692 0.002161
693 0.002002
694 0.001868
695 0.001726
696 0.001670
697 0.001613
698 0.001403
699 0.001371
700 0.001150
701 0.000981
702 0.000797
703 0.000699
704 0.000627
705 0.000610
706 0.000659
707 0.000735
708 0.000569
709 0.000417
710 0.000345
711 0.000273
712 0.000133
713 0.000089
714 0.000064
715 0.000077
716 0.000328
717 0.000524
718 0.000428
719 0.000349
720 0.000241
721 0.000255
722 0.000296
723 0.000369
724 0.000459
725 0.000512
726 0.000652
727 0.000691
728 0.000725
729 0.000819
730 0.000971
731 0.001074
732 0.001085
733 0.001247
734 0.001227
735 0.001117
736 0.000959
737 0.000861
738 0.000826
739 0.000806
740 0.000826
741 0.000818
742 0.000737
743 0.000657
744 0.000426
745 0.000248
746 0.000141
747 0.000077
748 -0.000009
749 -0.000093
750 -0.000135
751 -0.000330
752 -0.000436
753 -0.000344
754 -0.000379
755 -0.000524
756 -0.000755
757 -0.000893
758 -0.000980
759 -0.000975
760 -0.000898
761 -0.000894
762 -0.000816
763 -0.000822
764 -0.000750
765 -0.000598
766 -0.000536
767 -0.000563
768 -0.000553
769 -0.000512
770 -0.000462
771 -0.000536
772 -0.000533
773 -0.000432
774 -0.000266
775 -0.000258
776 -0.000191
777 -0.000129
778 -0.000118
779 0.000014
780 0.000099
781 0.000102
782 0.000118
783 0.000225
784 0.000253
785 0.000248
786 0.000310
787 0.000322
788 0.000243
789 0.000290
790 0.000322
791 0.000310
792 0.000321
793 0.000391
794 0.000464
795 0.000609
796 0.000615
797 0.000694
798 0.000689
799 0.000647
800 0.000721
801 0.000800
802 0.000817
803 0.000781
804 0.000736
805 0.000688
806 0.000581
807 0.000559
808 0.000501
809 0.000334
