# i correlation
1 0.018279
2 0.015789
3 0.013581
4 0.011884
5 0.010648
6 0.009497
7 0.008468
8 0.007780
9 0.007227
10 0.006537
11 0.006164
12 0.005880
13 0.005790
14 0.005714
15 0.005601
16 0.005600
17 0.005481
18 0.005481
19 0.005432
20 0.005374
21 0.005142
22 0.005049
23 0.004783
24 0.004489
25 0.004018
26 0.003459
27 0.003169
28 0.002991
29 0.003116
30 0.002892
31 0.002759
32 0.002448
33 0.002161
34 0.002144
35 0.002132
36 0.002052
37 0.001899
38 0.002037
39 0.002161
40 0.002530
41 0.002700
42 0.002781
43 0.002812
44 0.003071
45 0.003437
46 0.003746
47 0.004107
48 0.004160
49 0.004315
50 0.004180
51 0.004049
52 0.003817
53 0.003572
54 0.003613
55 0.003638
56 0.003520
57 0.003585
58 0.003829
59 0.003829
60 0.003779
61 0.003670
62 0.003264
63 0.003191
64 0.003177
65 0.003198
66 0.002765
67 0.002464
68 0.002565
69 0.002911
70 0.003135
71 0.003210
72 0.003422
73 0.003631
74 0.003317
75 0.002920
76 0.002598
77 0.002573
78 0.002481
79 0.002412
80 0.002518
81 0.002541
82 0.002553
83 0.002534
84 0.002501
85 0.002473
86 0.002467
87 0.002377
88 0.002099
89 0.002004
90 0.002040
91 0.002218
92 0.002226
93 0.002268
94 0.002438
95 0.002580
96 0.002843
97 0.003022
98 0.003186
99 0.003473
100 0.003476
101 0.003420
102 0.003457
103 0.003626
104 0.004091
105 0.004359
106 0.004534
107 0.004597
108 0.004208
109 0.003742
110 0.003158
111 0.002834
112 0.002516
113 0.002614
114 0.002637
115 0.002626
116 0.002618
117 0.002438
118 0.002493
119 0.002626
120 0.003013
121 0.003279
122 0.003516
123 0.003611
124 0.003557
125 0.003530
126 0.003710
127 0.004054
128 0.004419
129 0.004670
130 0.004661
131 0.004658
132 0.004244
133 0.003958
134 0.003626
135 0.003318
136 0.003110
137 0.002901
138 0.003019
139 0.002938
140 0.002758
141 0.002640
142 0.002620
143 0.002397
144 0.002064
145 0.002128
146 0.002016
147 0.001795
148 0.001589
149 0.001533
150 0.001634
151 0.001900
152 0.001992
153 0.001688
154 0.001509
155 0.001565
156 0.001338
157 0.001194
158 0.001046
159 0.001109
160 0.000957
161 0.000641
162 0.000574
163 0.000675
164 0.000708
165 0.000589
166 0.000420
167 0.000425
168 0.000837
169 0.001213
170 0.001518
171 0.001854
172 0.001922
173 0.001926
174 0.002128
175 0.001905
176 0.002163
177 0.002355
178 0.002430
179 0.002337
180 0.002154
181 0.001825
182 0.001382
183 0.001280
184 0.001209
185 0.001093
186 0.001198
187 0.001304
188 0.001409
189 0.001503
190 0.001490
191 0.001469
192 0.001436
193 0.001357
194 0.000792
195 0.000476
196 0.000200
197 0.000252
198 0.000267
199 0.000292
200 0.000233
201 0.000155
202 0.000017
203 0.000117
204 0.000324
205 0.000338
206 0.000393
207 0.000404
208 0.000655
209 0.000925
210 0.001373
211 0.001822
212 0.001990
213 0.002019
214 0.001875
215 0.001658
216 0.001562
217 0.001535
218 0.001579
219 0.001601
220 0.001618
221 0.001266
222 0.001258
223 0.001393
224 0.001614
225 0.001718
226 0.001917
227 0.002341
228 0.002614
229 0.002770
230 0.002646
231 0.002671
232 0.002751
233 0.002598
234 0.002332
235 0.002131
236 0.001985
237 0.001946
238 0.001696
239 0.001627
240 0.001363
241 0.001073
242 0.001187
243 0.001148
244 0.001140
245 0.001167
246 0.001277
247 0.001303
248 0.001505
249 0.001552
250 0.001350
251 0.001245
252 0.000894
253 0.000704
254 0.000652
255 0.000471
256 0.000436
257 0.000655
258 0.000869
259 0.001024
260 0.001036
261 0.001098
262 0.001062
263 0.000886
264 0.000613
265 0.000180
266 0.000029
267 -0.000167
268 -0.000104
269 0.000109
270 0.000542
271 0.000703
272 0.000759
273 0.000917
274 0.001005
275 0.001068
276 0.001106
277 0.001332
278 0.001587
279 0.001387
280 0.001307
281 0.001046
282 0.000892
283 0.000898
284 0.000959
285 0.000569
286 0.000230
287 -0.000183
288 -0.000393
289 -0.000353
290 -0.000111
291 -0.000013
292 0.000181
293 0.000175
294 0.000274
295 0.000479
296 0.000810
297 0.001126
298 0.001270
299 0.001336
300 0.001676
301 0.001806
302 0.001821
303 0.001795
304 0.001832
305 0.001918
306 0.002059
307 0.002099
308 0.002141
309 0.001949
310 0.001514
311 0.001132
312 0.000789
313 0.000421
314 0.000134
315 0.000165
316 0.000279
317 0.000356
318 0.000549
319 0.001229
320 0.001542
321 0.001734
322 0.001846
323 0.001603
324 0.001439
325 0.001208
326 0.001127
327 0.000868
328 0.000664
329 0.000391
330 0.000091
331 0.000187
332 0.000181
333 0.000115
334 -0.000011
335 -0.000109
336 -0.000140
337 -0.000299
338 -0.000317
339 -0.000138
340 -0.000149
341 -0.000193
342 -0.000318
343 -0.000312
344 -0.000208
345 -0.000103
346 -0.000050
347 0.000065
348 0.000219
349 0.000293
350 0.000419
351 0.000332
352 0.000315
353 0.000316
354 0.000382
355 0.000797
356 0.001038
357 0.001223
358 0.001023
359 0.000752
360 0.000561
361 0.000519
362 0.000382
363 0.000222
364 0.000002
365 -0.000176
366 -0.000311
367 -0.000556
368 -0.000543
369 -0.000677
370 -0.000658
371 -0.000854
372 -0.001218
373 -0.001412
374 -0.001514
375 -0.001502
376 -0.001339
377 -0.001007
378 -0.000849
379 -0.000626
380 -0.000494
381 -0.000431
382 -0.000424
383 -0.000620
384 -0.000599
385 -0.000638
386 -0.000644
387 -0.000591
388 -0.000670
389 -0.000764
390 -0.000678
391 -0.000569
392 -0.000503
393 -0.000530
394 -0.000602
395 -0.000686
396 -0.000641
397 -0.000378
398 -0.000208
399 0.000109
400 0.000430
401 0.000533
402 0.000824
403 0.001166
404 0.001505
405 0.001523
406 0.001583
407 0.001470
408 0.001402
409 0.001179
410 0.000886
411 0.000687
412 0.000477
413 0.000322
414 -0.000086
415 -0.000318
416 -0.000481
417 -0.000508
418 -0.000539
419 -0.000545
420 -0.000323
421 -0.000156
422 0.000139
423 0.000321
424 0.000311
425 0.000380
426 0.000495
427 0.000345
428 0.000345
429 0.000578
430 0.000548
431 0.000530
432 0.000387
433 0.000283
434 0.000187
435 0.000324
436 0.000273
437 0.000408
438 0.000565
439 0.000566
440 0.000579
441 0.000720
442 0.000924
443 0.001008
444 0.000933
445 0.000821
446 0.000878
447 0.001037
448 0.001052
449 0.000956
450 0.000921
451 0.000913
452 0.000680
453 0.000568
454 0.000523
455 0.000406
456 0.000209
457 0.000305
458 0.000207
459 0.000154
460 0.000287
461 0.000323
462 0.000414
463 0.000323
464 0.000258
465 0.000064
466 -0.000060
467 -0.000198
468 -0.000455
469 -0.000795
470 -0.001033
471 -0.001150
472 -0.001235
473 -0.001222
474 -0.001241
475 -0.001116
476 -0.001093
477 -0.001026
478 -0.001124
479 -0.001296
480 -0.001636
481 -0.001793
482 -0.001887
483 -0.001837
484 -0.001764
485 -0.001671
486 -0.001418
487 -0.001200
488 -0.000938
489 -0.000921
490 -0.000784
491 -0.000740
492 -0.000887
493 -0.000870
494 -0.001075
495 -0.001139
496 -0.001158
497 -0.001277
498 -0.001309
499 -0.001340
500 -0.001347
501 -0.001444
502 -0.001292
503 -0.001352
504 -0.001269
505 -0.001097
506 -0.000713
507 -0.000241
508 0.000317
509 0.000608
510 0.000632
511 0.000709
512 0.000637
513 0.000362
514 0.000080
515 0.000073
516 0.000117
517 0.000273
518 0.000345
519 0.000535
520 0.000531
521 0.000239
522 0.000002
523 0.000073
524 0.000209
525 0.000148
526 0.000176
527 0.000205
528 0.000458
529 0.000770
530 0.000974
531 0.001177
532 0.001338
533 0.001640
534 0.001770
535 0.001974
536 0.002250
537 0.002489
538 0.002611
539 0.002594
540 0.002496
541 0.002104
542 0.001889
543 0.001586
544 0.001448
545 0.001397
546 0.001595
547 0.001761
548 0.001930
549 0.001969
550 0.001880
551 0.001847
552 0.001792
553 0.001620
554 0.001462
555 0.001312
556 0.001172
557 0.001020
558 0.001098
559 0.001152
560 0.001271
561 0.001277
562 0.001195
563 0.001187
564 0.001077
565 0.000964
566 0.000896
567 0.000827
568 0.000977
569 0.001134
570 0.001211
571 0.001258
572 0.001216
573 0.001018
574 0.001004
575 0.000950
576 0.001096
577 0.001380
578 0.001646
579 0.001808
580 0.002066
581 0.002205
582 0.002174
583 0.002013
584 0.001902
585 0.001676
586 0.001333
587 0.000995
588 0.000959
589 0.001053
590 0.001119
591 0.001011
592 0.001074
593 0.001278
594 0.001373
595 0.001416
596 0.001326
597 0.001400
598 0.001518
599 0.001679
600 0.001656
601 0.001627
602 0.001567
603 0.001588
604 0.001432
605 0.001316
606 0.001393
607 0.001384
608 0.001344
609 0.001476
610 0.001553
611 0.001519
612 0.001540
613 0.001553
614 0.001501
615 0.001573
616 0.001676
617 0.001789
618 0.001811
619 0.001829
620 0.001537
621 0.001330
622 0.001090
623 0.001108
624 0.001163
625 0.001135
626 0.001020
627 0.001015
628 0.000994
629 0.001079
630 0.001071
631 0.000993
632 0.001001
633 0.000925
634 0.000872
635 0.000843
636 0.000749
637 0.000725
638 0.000818
639 0.000960
640 0.001098
641 0.001064
642 0.000925
643 0.000863
644 0.000733
645 0.000675
646 0.000619
647 0.000513
648 0.000450
649 0.000258
650 0.000213
651 0.000155
652 0.000211
653 0.000392
654 0.000461
655 0.000561
656 0.000450
657 0.000569
658 0.000701
659 0.000791
660 0.000849
661 0.000921
662 0.000923
663 0.000937
664 0.000958
665 0.000986
666 0.001105
667 0.001202
668 0.001401
669 0.001465
670 0.001522
671 0.001499
672 0.001374
673 0.001176
674 0.001269
675 0.001239
676 0.001422
677 0.001673
678 0.001806
679 0.001993
680 0.002121
681 0.002166
682 0.002289
683 0.002365
684 0.002313
685 0.002078
686 0.001923
687 0.001730
688 0.001651
689 0.001488
690 0.001281
691 0.000980
692 0.000808
693 0.000771
694 0.000676
695 0.000534
696 0.000415
697 0.000518
698 0.000587
699 0.000710
700 0.000696
701 0.000644
702 0.000709
703 0.000698
704 0.000715
705 0.000568
706 0.000582
707 0.000520
708 0.000453
709 0.000325
710 0.000190
711 0.000119
712 0.000159
713 0.000201
714 0.000286
715 0.000368
716 0.000453
717 0.000483
718 0.000494
719 0.000577
720 0.000648
721 0.000697
722 0.000609
723 0.000621
724 0.000537
725 0.000424
726 0.000399
727 0.000254
728 0.000207
729 0.000122
730 0.000013
731 -0.000057
732 -0.000144
733 -0.000187
734 -0.000214
735 -0.000172
736 -0.000202
737 -0.000165
738 -0.000201
739 -0.000199
740 -0.000121
741 -0.000034
742 0.000067
743 0.000238
744 0.000367
745 0.000399
746 0.000417
747 0.000498
748 0.000659
749 0.000732
750 0.000868
751 0.000911
752 0.000885
753 0.000837
754 0.000759
755 0.000553
756 0.000343
757 0.000187
758 0.000098
759 0.000040
760 0.000007
761 0.000056
762 0.000042
763 0.000078
764 0.000001
765 0.000062
766 0.000189
767 0.000370
768 0.000618
769 0.000820
770 0.000907
771 0.000920
772 0.000865
773 0.000796
774 0.000686
775 0.000510
776 0.000360
777 0.000268
778 0.000185
779 0.000190
780 0.000140
781 0.000130
782 0.000188
783 0.000236
784 0.000265
785 0.000238
786 0.000228
787 0.000323
788 0.000435
789 0.000581
790 0.000747
791 0.000718
792 0.000661
793 0.000540
794 0.000454
795 0.000348
796 0.000288
797 0.000225
798 0.000241
799 0.000187
800 0.000099
801 0.000075
802 -0.000037
803 -0.000112
804 -0.000193
805 -0.000293
806 -0.000312
807 -0.000211
808 -0.000024
809 0.000157
