# i correlation
1 0.019624
2 0.017058
3 0.015263
4 0.013861
5 0.012721
6 0.011948
7 0.011109
8 0.010291
9 0.009793
10 0.009046
11 0.008482
12 0.008111
13 0.008117
14 0.007914
15 0.007711
16 0.007409
17 0.007100
18 0.006869
19 0.006781
20 0.006650
21 0.006186
22 0.006190
23 0.006430
24 0.006454
25 0.006676
26 0.007200
27 0.007588
28 0.007730
29 0.007991
30 0.008494
31 0.008797
32 0.008918
33 0.008838
34 0.008445
35 0.008210
36 0.007960
37 0.008104
38 0.008293
39 0.008191
40 0.007869
41 0.007527
42 0.007032
43 0.006564
44 0.006462
45 0.006275
46 0.005952
47 0.005768
48 0.005711
49 0.005461
50 0.005530
51 0.005312
52 0.005322
53 0.005306
54 0.004983
55 0.004728
56 0.004557
57 0.004295
58 0.004095
59 0.003720
60 0.003633
61 0.003699
62 0.003622
63 0.003699
64 0.003740
65 0.003664
66 0.003444
67 0.003099
68 0.003048
69 0.002816
70 0.002663
71 0.002641
72 0.002545
73 0.002341
74 0.002280
75 0.002109
76 0.001812
77 0.001895
78 0.001973
79 0.002004
80 0.002075
81 0.002162
82 0.001874
83 0.001817
84 0.001831
85 0.001920
86 0.001899
87 0.002083
88 0.002451
89 0.002685
90 0.002839
91 0.003025
92 0.002920
93 0.002893
94 0.002800
95 0.002660
96 0.002565
97 0.002399
98 0.002337
99 0.001998
100 0.002318
101 0.002546
102 0.002826
103 0.002890
104 0.003084
105 0.003149
106 0.003285
107 0.003253
108 0.002960
109 0.002706
110 0.002546
111 0.002375
112 0.001883
113 0.001551
114 0.001573
115 0.001436
116 0.001667
117 0.001616
118 0.001687
119 0.001960
120 0.002023
121 0.001992
122 0.001996
123 0.002065
124 0.002351
125 0.002485
126 0.002317
127 0.002059
128 0.001873
129 0.001945
130 0.001915
131 0.001823
132 0.001805
133 0.001855
134 0.001810
135 0.001851
136 0.001672
137 0.001556
138 0.001641
139 0.001788
140 0.001740
141 0.001733
142 0.001661
143 0.001529
144 0.001513
145 0.001703
146 0.001620
147 0.001872
148 0.002167
149 0.002303
150 0.002000
151 0.001983
152 0.002183
153 0.002231
154 0.002630
155 0.002986
156 0.003093
157 0.003338
158 0.003447
159 0.003250
160 0.002710
161 0.002518
162 0.002330
163 0.002449
164 0.002529
165 0.002354
166 0.002376
167 0.002563
168 0.002813
169 0.002764
170 0.002689
171 0.002844
172 0.002931
173 0.002473
174 0.002295
175 0.001952
176 0.001747
177 0.001774
178 0.001657
179 0.001666
180 0.001732
181 0.001715
182 0.001614
183 0.001789
184 0.002037
185 0.002324
186 0.002643
187 0.002866
188 0.002849
189 0.002970
190 0.002843
191 0.002477
192 0.002107
193 0.001771
194 0.001627
195 0.001784
196 0.002180
197 0.002326
198 0.002614
199 0.002784
200 0.002887
201 0.002868
202 0.002826
203 0.002799
204 0.002773
205 0.002979
206 0.002876
207 0.002922
208 0.002728
209 0.002739
210 0.002709
211 0.002627
212 0.002695
213 0.002604
214 0.002549
215 0.002351
216 0.002520
217 0.002550
218 0.002557
219 0.002588
220 0.002492
221 0.002551
222 0.002554
223 0.002464
224 0.002339
225 0.002120
226 0.001899
227 0.001828
228 0.001706
229 0.001536
230 0.001762
231 0.001688
232 0.001617
233 0.001917
234 0.002129
235 0.002254
236 0.002370
237 0.002525
238 0.002486
239 0.002643
240 0.002920
241 0.003155
242 0.003375
243 0.003524
244 0.003626
245 0.003623
246 0.003693
247 0.003739
248 0.003707
249 0.003915
250 0.004161
251 0.004358
252 0.004281
253 0.004101
254 0.003927
255 0.003718
256 0.003570
257 0.003553
258 0.003417
259 0.003444
260 0.003420
261 0.003500
262 0.003669
263 0.003846
264 0.004025
265 0.004046
266 0.003820
267 0.003613
268 0.003495
269 0.003435
270 0.003333
271 0.003356
272 0.003283
273 0.003242
274 0.003197
275 0.003026
276 0.002898
277 0.003063
278 0.003379
279 0.003421
280 0.003580
281 0.003642
282 0.003618
283 0.003538
284 0.003523
285 0.003457
286 0.003613
287 0.003816
288 0.003804
289 0.003645
290 0.003747
291 0.003753
292 0.003921
293 0.004086
294 0.004160
295 0.004063
296 0.003954
297 0.003613
298 0.003422
299 0.003102
300 0.002717
301 0.002448
302 0.002344
303 0.002455
304 0.002292
305 0.002315
306 0.002024
307 0.002127
308 0.002169
309 0.002101
310 0.001726
311 0.001541
312 0.001509
313 0.001337
314 0.001197
315 0.000889
316 0.000668
317 0.000380
318 0.000365
319 0.000194
320 -0.000097
321 -0.000104
322 0.000035
323 0.000019
324 -0.000087
325 -0.000006
326 0.000133
327 0.000052
328 -0.000005
329 -0.000140
330 -0.000272
331 -0.000333
332 -0.000602
333 -0.001100
334 -0.001494
335 -0.001494
336 -0.001819
337 -0.002031
338 -0.001865
339 -0.001787
340 -0.001571
341 -0.001358
342 -0.001098
343 -0.001105
344 -0.000976
345 -0.000964
346 -0.000925
347 -0.000863
348 -0.000795
349 -0.000818
350 -0.001011
351 -0.001245
352 -0.001305
353 -0.001067
354 -0.001038
355 -0.000886
356 -0.001014
357 -0.001019
358 -0.001043
359 -0.001013
360 -0.000985
361 -0.001193
362 -0.001469
363 -0.001735
364 -0.002105
365 -0.002519
366 -0.002581
367 -0.002783
368 -0.002729
369 -0.002812
370 -0.003005
371 -0.003195
372 -0.003432
373 -0.003345
374 -0.003233
375 -0.002930
376 -0.002890
377 -0.003006
378 -0.003237
379 -0.002928
380 -0.002866
381 -0.002804
382 -0.002694
383 -0.002614
384 -0.002493
385 -0.002262
386 -0.001978
387 -0.001980
388 -0.001587
389 -0.001530
390 -0.001522
391 -0.001448
392 -0.001208
393 -0.001020
394 -0.000911
395 -0.001075
396 -0.001159
397 -0.001337
398 -0.001304
399 -0.001226
400 -0.001484
401 -0.001576
402 -0.001828
403 -0.002117
404 -0.002463
405 -0.002538
406 -0.002594
407 -0.002594
408 -0.002602
409 -0.002597
410 -0.002577
411 -0.002509
412 -0.002466
413 -0.002369
414 -0.002327
415 -0.002477
416 -0.002505
417 -0.002572
418 -0.002391
419 -0.001962
420 -0.001718
421 -0.001559
422 -0.001577
423 -0.001573
424 -0.001749
425 -0.001835
426 -0.001822
427 -0.001852
428 -0.001721
429 -0.001699
430 -0.001657
431 -0.001572
432 -0.001290
433 -0.001063
434 -0.001086
435 -0.001277
436 -0.001650
437 -0.001829
438 -0.001840
439 -0.001802
440 -0.001788
441 -0.001624
442 -0.001446
443 -0.001477
444 -0.001549
445 -0.001590
446 -0.001374
447 -0.000990
448 -0.000681
449 -0.000425
450 -0.000271
451 0.000009
452 0.000212
453 0.000144
454 0.000031
455 -0.000240
456 -0.000529
457 -0.000663
458 -0.000696
459 -0.000789
460 -0.000740
461 -0.000599
462 -0.000644
463 -0.000630
464 -0.000395
465 -0.000551
466 -0.000630
467 -0.000636
468 -0.001049
469 -0.001176
470 -0.001120
471 -0.001005
472 -0.001167
473 -0.001109
474 -0.001217
475 -0.001247
476 -0.001272
477 -0.001242
478 -0.001266
479 -0.001045
480 -0.000864
481 -0.000779
482 -0.000661
483 -0.000588
484 -0.000564
485 -0.000461
486 -0.000376
487 -0.000270
488 -0.000140
489 -0.000121
490 -0.000076
491 -0.000166
492 -0.000354
493 -0.000400
494 -0.000504
495 -0.000719
496 -0.000866
497 -0.001072
498 -0.001292
499 -0.001374
500 -0.001597
501 -0.001795
502 -0.001736
503 -0.001572
504 -0.001455
505 -0.001477
506 -0.001629
507 -0.001603
508 -0.001442
509 -0.001434
510 -0.001476
511 -0.001297
512 -0.001043
513 -0.000715
514 -0.000438
515 -0.000171
516 -0.000028
517 -0.000019
518 -0.000254
519 -0.000337
520 -0.000551
521 -0.000678
522 -0.000827
523 -0.001075
524 -0.001441
525 -0.001765
526 -0.001832
527 -0.001804
528 -0.001769
529 -0.001912
530 -0.001806
531 -0.001671
532 -0.001586
533 -0.001554
534 -0.001718
535 -0.001786
536 -0.001791
537 -0.001885
538 -0.001887
539 -0.001934
540 -0.001898
541 -0.001745
542 -0.001438
543 -0.001289
544 -0.001206
545 -0.001129
546 -0.001067
547 -0.001050
548 -0.001079
549 -0.001018
550 -0.001012
551 -0.000867
552 -0.000804
553 -0.000793
554 -0.000948
555 -0.001057
556 -0.000956
557 -0.000921
558 -0.000815
559 -0.000792
560 -0.000803
561 -0.001036
562 -0.001062
563 -0.001016
564 -0.001039
565 -0.001002
566 -0.001072
567 -0.001237
568 -0.001271
569 -0.001308
570 -0.001403
571 -0.001230
572 -0.001105
573 -0.000871
574 -0.000939
575 -0.001118
576 -0.001345
577 -0.001364
578 -0.001422
579 -0.001412
580 -0.001341
581 -0.001432
582 -0.001274
583 -0.001140
584 -0.001232
585 -0.001214
586 -0.001156
587 -0.001316
588 -0.001337
589 -0.001198
590 -0.001113
591 -0.001059
592 -0.001228
593 -0.001397
594 -0.001511
595 -0.001518
596 -0.001340
597 -0.001084
598 -0.000923
599 -0.000826
600 -0.000761
601 -0.000825
602 -0.000905
603 -0.001078
604 -0.001117
605 -0.000999
606 -0.000918
607 -0.001021
608 -0.001285
609 -0.001291
610 -0.001231
611 -0.001291
612 -0.001189
613 -0.001118
614 -0.001236
615 -0.001350
616 -0.001392
617 -0.001525
618 -0.001487
619 -0.001435
620 -0.001468
621 -0.001388
622 -0.001385
623 -0.001492
624 -0.001742
625 -0.002043
626 -0.002170
627 -0.002149
628 -0.002123
629 -0.002134
630 -0.002114
631 -0.002243
632 -0.002235
633 -0.002117
634 -0.002048
635 -0.001962
636 -0.001791
637 -0.001549
638 -0.001294
639 -0.001194
640 -0.001125
641 -0.001101
642 -0.000906
643 -0.000729
644 -0.000611
645 -0.000643
646 -0.000654
647 -0.000599
648 -0.000756
649 -0.001078
650 -0.001276
651 -0.001372
652 -0.001485
653 -0.001580
654 -0.001736
655 -0.002094
656 -0.002220
657 -0.002378
658 -0.002587
659 -0.002773
660 -0.002586
661 -0.002392
662 -0.002139
663 -0.001977
664 -0.002067
665 -0.002188
666 -0.002245
667 -0.002216
668 -0.002201
669 -0.002027
670 -0.001722
671 -0.001505
672 -0.001637
673 -0.001572
674 -0.001344
675 -0.001136
676 -0.000986
677 -0.000772
678 -0.000679
679 -0.000706
680 -0.000606
681 -0.000718
682 -0.000747
683 -0.000854
684 -0.000918
685 -0.001104
686 -0.001215
687 -0.001295
688 -0.001450
689 -0.001579
690 -0.001644
691 -0.001631
692 -0.001667
693 -0.001611
694 -0.001603
695 -0.001709
696 -0.001941
697 -0.001908
698 -0.001815
699 -0.001750
700 -0.001528
701 -0.001254
702 -0.001111
703 -0.001092
704 -0.001066
705 -0.001037
706 -0.000918
707 -0.000860
708 -0.000831
709 -0.000920
710 -0.000923
711 -0.001006
712 -0.000995
713 -0.000985
714 -0.000896
715 -0.000722
716 -0.000578
717 -0.000437
718 -0.000382
719 -0.000443
720 -0.000380
721 -0.000277
722 -0.000305
723 -0.000327
724 -0.000482
725 -0.000682
726 -0.000813
727 -0.000833
728 -0.000764
729 -0.000675
730 -0.000580
731 -0.000458
732 -0.000319
733 -0.000354
734 -0.000333
735 -0.000343
736 -0.000419
737 -0.000482
738 -0.000518
739 -0.000601
740 -0.000628
741 -0.000738
742 -0.000812
743 -0.000758
744 -0.000708
745 -0.000630
746 -0.000538
747 -0.000327
748 -0.000116
749 0.000042
750 0.000172
751 0.000307
752 0.000383
753 0.000365
754 0.000582
755 0.000655
756 0.000629
757 0.000546
758 0.000620
759 0.000529
760 0.000382
761 0.000345
762 0.000290
763 0.000113
764 -0.000066
765 -0.000128
766 -0.000233
767 -0.000227
768 -0.000298
769 -0.000306
770 -0.000249
771 -0.000228
772 -0.000192
773 -0.000170
774 -0.000158
775 -0.000136
776 -0.000143
777 -0.000148
778 -0.000017
779 -0.000051
780 -0.000029
781 0.000077
782 0.000188
783 0.000152
784 0.000265
785 0.000354
786 0.000391
787 0.000525
788 0.000530
789 0.000548
790 0.000513
791 0.000489
792 0.000468
793 0.000452
794 0.000335
795 0.000404
796 0.000423
797 0.000298
798 0.000203
799 0.000150
800 0.000052
801 0.000055
802 0.000049
803 -0.000021
804 -0.000046
805 -0.000020
806 -0.000064
807 -0.000099
808 -0.000002
809 0.000034
