# i correlation
1 0.019428
2 0.016665
3 0.014475
4 0.012678
5 0.011062
6 0.010037
7 0.008954
8 0.008139
9 0.007603
10 0.007038
11 0.006653
12 0.006069
13 0.005745
14 0.005264
15 0.004813
16 0.004116
17 0.003280
18 0.002732
19 0.002376
20 0.002282
21 0.002302
22 0.002488
23 0.002452
24 0.002704
25 0.002571
26 0.002610
27 0.002652
28 0.002755
29 0.002682
30 0.002482
31 0.002549
32 0.002760
33 0.002796
34 0.002902
35 0.003027
36 0.002890
37 0.002778
38 0.002393
39 0.002194
40 0.002082
41 0.001909
42 0.001784
43 0.001966
44 0.002190
45 0.002197
46 0.002359
47 0.002714
48 0.003031
49 0.003002
50 0.003066
51 0.003284
52 0.003192
53 0.002955
54 0.002608
55 0.002294
56 0.002184
57 0.002011
58 0.001773
59 0.001635
60 0.001372
61 0.001084
62 0.000897
63 0.000873
64 0.000526
65 0.000218
66 0.000123
67 -0.000009
68 -0.000648
69 -0.001238
70 -0.001584
71 -0.001723
72 -0.001610
73 -0.001431
74 -0.001294
75 -0.001386
76 -0.001365
77 -0.001404
78 -0.001402
79 -0.001259
80 -0.001044
81 -0.001181
82 -0.001075
83 -0.000837
84 -0.000912
85 -0.000789
86 -0.000488
87 -0.000356
88 -0.000446
89 -0.000686
90 -0.001185
91 -0.001695
92 -0.002010
93 -0.002381
94 -0.002537
95 -0.002482
96 -0.002410
97 -0.002553
98 -0.002676
99 -0.002742
100 -0.002791
101 -0.002926
102 -0.002990
103 -0.003210
104 -0.003490
105 -0.003870
106 -0.003796
107 -0.003315
108 -0.002943
109 -0.002335
110 -0.001690
111 -0.001093
112 -0.001097
113 -0.001179
114 -0.001216
115 -0.001319
116 -0.001477
117 -0.001653
118 -0.001728
119 -0.001743
120 -0.001481
121 -0.001588
122 -0.001816
123 -0.002121
124 -0.002298
125 -0.002132
126 -0.002151
127 -0.002601
128 -0.003181
129 -0.003670
130 -0.003738
131 -0.003301
132 -0.003151
133 -0.003045
134 -0.003051
135 -0.003109
136 -0.002925
137 -0.002608
138 -0.002174
139 -0.001536
140 -0.000856
141 -0.000440
142 -0.000213
143 -0.000086
144 -0.000190
145 -0.000335
146 -0.000102
147 -0.000017
148 0.000094
149 0.000049
150 -0.000132
151 -0.000274
152 -0.000004
153 0.000301
154 0.000587
155 0.000848
156 0.000661
157 0.000408
158 0.000131
159 0.000058
160 -0.000026
161 -0.000097
162 0.000174
163 0.000335
164 0.000429
165 0.000883
166 0.001178
167 0.001238
168 0.001277
169 0.001092
170 0.000841
171 0.000576
172 0.000421
173 0.000316
174 0.000311
175 0.000212
176 0.000274
177 0.000110
178 -0.000075
179 -0.000471
180 -0.000982
181 -0.001527
182 -0.001716
183 -0.001902
184 -0.001817
185 -0.001930
186 -0.001938
187 -0.001838
188 -0.001688
189 -0.001531
190 -0.001451
191 -0.001272
192 -0.000862
193 -0.000621
194 -0.000509
195 -0.000374
196 -0.000249
197 0.000167
198 0.000565
199 0.001069
200 0.001593
201 0.001787
202 0.001932
203 0.002154
204 0.002297
205 0.002556
206 0.002561
207 0.002377
208 0.002286
209 0.002154
210 0.002167
211 0.002255
212 0.002213
213 0.002240
214 0.002514
215 0.002639
216 0.002561
217 0.001999
218 0.001722
219 0.001553
220 0.001429
221 0.001361
222 0.001499
223 0.001386
224 0.001309
225 0.001276
226 0.001240
227 0.001359
228 0.001536
229 0.001683
230 0.001398
231 0.001204
232 0.001255
233 0.001331
234 0.001319
235 0.001306
236 0.001377
237 0.001241
238 0.001102
239 0.000939
240 0.001090
241 0.000821
242 0.000450
243 0.000127
244 -0.000117
245 -0.000325
246 -0.000459
247 -0.000570
248 -0.000613
249 -0.000287
250 0.000177
251 0.000725
252 0.001067
253 0.001315
254 0.001394
255 0.001201
256 0.001059
257 0.000828
258 0.000640
259 0.000645
260 0.000523
261 0.000239
262 0.000467
263 0.000450
264 0.000555
265 0.000512
266 0.000635
267 0.000490
268 0.000324
269 -0.000265
270 -0.001013
271 -0.001155
272 -0.001040
273 -0.000945
274 -0.000912
275 -0.000757
276 -0.000869
277 -0.000715
278 -0.000332
279 -0.000072
280 0.000262
281 0.000448
282 0.000704
283 0.000658
284 0.000746
285 0.000815
286 0.001247
287 0.001615
288 0.001926
289 0.002043
290 0.001890
291 0.001862
292 0.001772
293 0.001634
294 0.001587
295 0.001685
296 0.001656
297 0.001418
298 0.001276
299 0.001205
300 0.001025
301 0.000884
302 0.001066
303 0.001078
304 0.000888
305 0.000577
306 0.000217
307 -0.000003
308 0.000017
309 -0.000003
310 0.000361
311 0.000751
312 0.001118
313 0.001596
314 0.002054
315 0.002640
316 0.003038
317 0.003308
318 0.003473
319 0.003596
320 0.003667
321 0.003473
322 0.003328
323 0.003295
324 0.003137
325 0.003014
326 0.002927
327 0.002584
328 0.002269
329 0.002010
330 0.001798
331 0.001661
332 0.001386
333 0.000945
334 0.000557
335 0.000475
336 0.000446
337 0.000488
338 0.000588
339 0.000853
340 0.000841
341 0.000634
342 0.000483
343 0.000376
344 0.000157
345 0.000195
346 0.000480
347 0.000978
348 0.001259
349 0.001433
350 0.001363
351 0.001413
352 0.001301
353 0.001407
354 0.001654
355 0.001680
356 0.001308
357 0.000815
358 0.000572
359 0.000431
360 0.000427
361 0.000467
362 0.000593
363 0.000758
364 0.000936
365 0.001154
366 0.001294
367 0.001388
368 0.001340
369 0.001266
370 0.001246
371 0.001184
372 0.000980
373 0.000810
374 0.000889
375 0.001175
376 0.001438
377 0.001685
378 0.001718
379 0.001537
380 0.001257
381 0.001252
382 0.001096
383 0.000635
384 0.000095
385 -0.000714
386 -0.001325
387 -0.001604
388 -0.001614
389 -0.001624
390 -0.001372
391 -0.001129
392 -0.000936
393 -0.000661
394 -0.000365
395 -0.000196
396 -0.000307
397 -0.000227
398 0.000028
399 0.000187
400 0.000291
401 0.000309
402 0.000762
403 0.001095
404 0.001090
405 0.001263
406 0.001486
407 0.001319
408 0.001166
409 0.000985
410 0.000659
411 0.000224
412 -0.000038
413 -0.000364
414 -0.000615
415 -0.000652
416 -0.000738
417 -0.001012
418 -0.001278
419 -0.001453
420 -0.001869
421 -0.002040
422 -0.002261
423 -0.002529
424 -0.002482
425 -0.002417
426 -0.002378
427 -0.002159
428 -0.001994
429 -0.001856
430 -0.001513
431 -0.001483
432 -0.001536
433 -0.001422
434 -0.001257
435 -0.001289
436 -0.001376
437 -0.001453
438 -0.001460
439 -0.001401
440 -0.001449
441 -0.001425
442 -0.001343
443 -0.001228
444 -0.001214
445 -0.001265
446 -0.001147
447 -0.001072
448 -0.000967
449 -0.000925
450 -0.000896
451 -0.000792
452 -0.000950
453 -0.000983
454 -0.000720
455 -0.000461
456 -0.000159
457 0.000343
458 0.000663
459 0.000794
460 0.000740
461 0.000771
462 0.000716
463 0.000573
464 0.000656
465 0.000798
466 0.000801
467 0.000907
468 0.001005
469 0.000910
470 0.000700
471 0.000338
472 -0.000190
473 -0.000750
474 -0.001152
475 -0.001564
476 -0.001869
477 -0.002052
478 -0.001946
479 -0.001902
480 -0.001867
481 -0.001868
482 -0.001778
483 -0.001899
484 -0.002285
485 -0.002584
486 -0.002790
487 -0.002856
488 -0.002874
489 -0.002839
490 -0.002695
491 -0.002387
492 -0.002058
493 -0.001756
494 -0.001607
495 -0.001660
496 -0.001807
497 -0.002019
498 -0.002129
499 -0.002441
500 -0.002576
501 -0.002643
502 -0.002422
503 -0.002328
504 -0.002187
505 -0.002183
506 -0.002059
507 -0.001846
508 -0.001367
509 -0.001023
510 -0.000876
511 -0.000741
512 -0.000584
513 -0.000137
514 0.000273
515 0.000632
516 0.001012
517 0.001294
518 0.001491
519 0.001561
520 0.001607
521 0.001627
522 0.001609
523 0.001562
524 0.001428
525 0.001288
526 0.001181
527 0.000918
528 0.000779
529 0.000576
530 0.000485
531 0.000704
532 0.000744
533 0.000626
534 0.000557
535 0.000449
536 0.000324
537 0.000289
538 0.000106
539 -0.000042
540 -0.000029
541 0.000063
542 0.000158
543 0.000043
544 -0.000031
545 -0.000048
546 0.000180
547 0.000293
548 0.000435
549 0.000520
550 0.000831
551 0.001025
552 0.000975
553 0.001101
554 0.001243
555 0.001525
556 0.001726
557 0.002069
558 0.002130
559 0.002090
560 0.002046
561 0.001931
562 0.001802
563 0.001750
564 0.001847
565 0.002093
566 0.002284
567 0.002426
568 0.002806
569 0.003054
570 0.003224
571 0.003164
572 0.002948
573 0.002733
574 0.002602
575 0.002532
576 0.002469
577 0.002338
578 0.002237
579 0.002465
580 0.002523
581 0.002524
582 0.002530
583 0.002365
584 0.002185
585 0.001897
586 0.001610
587 0.001379
588 0.001282
589 0.001349
590 0.001420
591 0.001341
592 0.001325
593 0.001200
594 0.001208
595 0.001276
596 0.001163
597 0.001172
598 0.001307
599 0.001478
600 0.001683
601 0.001929
602 0.002214
603 0.002706
604 0.003104
605 0.003267
606 0.003156
607 0.003069
608 0.002971
609 0.002909
610 0.002865
611 0.002808
612 0.002646
613 0.002774
614 0.002881
615 0.002990
616 0.002991
617 0.002924
618 0.002777
619 0.002602
620 0.002452
621 0.002402
622 0.002362
623 0.002304
624 0.002336
625 0.002153
626 0.002052
627 0.002017
628 0.001876
629 0.001881
630 0.001933
631 0.001977
632 0.001801
633 0.001809
634 0.001744
635 0.001779
636 0.001643
637 0.001490
638 0.001087
639 0.000861
640 0.000694
641 0.000626
642 0.000745
643 0.000816
644 0.000716
645 0.000620
646 0.000693
647 0.000627
648 0.000731
649 0.000753
650 0.000828
651 0.000750
652 0.000695
653 0.000643
654 0.000584
655 0.000586
656 0.000787
657 0.000986
658 0.001113
659 0.001186
660 0.001026
661 0.000962
662 0.001045
663 0.001133
664 0.001052
665 0.000935
666 0.000961
667 0.001000
668 0.001096
669 0.001002
670 0.001004
671 0.001067
672 0.001034
673 0.000868
674 0.000818
675 0.000690
676 0.000582
677 0.000668
678 0.000712
679 0.000517
680 0.000510
681 0.000419
682 0.000354
683 0.000326
684 0.000180
685 -0.000082
686 -0.000137
687 -0.000155
688 -0.000255
689 -0.000325
690 -0.000204
691 -0.000173
692 -0.000197
693 -0.000233
694 -0.000313
695 -0.000458
696 -0.000474
697 -0.000441
698 -0.000425
699 -0.000581
700 -0.000742
701 -0.000883
702 -0.000960
703 -0.001198
704 -0.001402
705 -0.001504
706 -0.001565
707 -0.001597
708 -0.001666
709 -0.001866
710 -0.001907
711 -0.001950
712 -0.002112
713 -0.002126
714 -0.002068
715 -0.001994
716 -0.002002
717 -0.002035
718 -0.001896
719 -0.001694
720 -0.001521
721 -0.001343
722 -0.001058
723 -0.000734
724 -0.000497
725 -0.000228
726 -0.000057
727 -0.000072
728 -0.000084
729 -0.000007
730 0.000070
731 0.000118
732 0.000076
733 0.000009
734 -0.000028
735 0.000017
736 0.000021
737 0.000038
738 -0.000056
739 -0.000226
740 -0.000456
741 -0.000493
742 -0.000385
743 -0.000168
744 -0.000037
745 0.000020
746 0.000061
747 0.000118
748 0.000050
749 -0.000022
750 -0.000098
751 -0.000226
752 -0.000334
753 -0.000266
754 -0.000129
755 0.000066
756 0.000181
757 0.000311
758 0.000342
759 0.000188
760 0.000012
761 -0.000184
762 -0.000388
763 -0.000538
764 -0.000627
765 -0.000678
766 -0.000685
767 -0.000660
768 -0.000557
769 -0.000399
770 -0.000213
771 -0.000068
772 0.000159
773 0.000406
774 0.000472
775 0.000457
776 0.000432
777 0.000348
778 0.000342
779 0.000610
780 0.000873
781 0.001046
782 0.001257
783 0.001400
784 0.001525
785 0.001542
786 0.001505
787 0.001461
788 0.001470
789 0.001500
790 0.001514
791 0.001490
792 0.001278
793 0.001108
794 0.001048
795 0.000931
796 0.000833
797 0.000907
798 0.000910
799 0.000857
800 0.000795
801 0.000589
802 0.000502
803 0.000486
804 0.000471
805 0.000545
806 0.000585
807 0.000483
808 0.000597
809 0.000681
