# i correlation
1 0.018684
2 0.015505
3 0.012917
4 0.011206
5 0.010234
6 0.009741
7 0.009372
8 0.008867
9 0.007932
10 0.007217
11 0.006762
12 0.006552
13 0.006049
14 0.005322
15 0.004514
16 0.003867
17 0.003599
18 0.003411
19 0.003117
20 0.002611
21 0.002120
22 0.001745
23 0.001170
24 0.000874
25 0.000780
26 0.000868
27 0.000951
28 0.000774
29 0.001038
30 0.001230
31 0.001641
32 0.002135
33 0.002557
34 0.003017
35 0.003192
36 0.003157
37 0.002713
38 0.002350
39 0.001866
40 0.001498
41 0.001445
42 0.001530
43 0.001503
44 0.001365
45 0.000874
46 0.000576
47 0.000007
48 -0.000522
49 -0.001282
50 -0.002070
51 -0.002048
52 -0.001698
53 -0.001369
54 -0.001468
55 -0.002054
56 -0.002528
57 -0.003076
58 -0.003374
59 -0.003560
60 -0.003393
61 -0.003109
62 -0.003186
63 -0.003128
64 -0.003247
65 -0.002952
66 -0.002520
67 -0.002395
68 -0.002108
69 -0.002017
70 -0.002057
71 -0.002328
72 -0.002546
73 -0.002423
74 -0.002531
75 -0.002845
76 -0.003227
77 -0.003639
78 -0.003845
79 -0.003858
80 -0.003662
81 -0.003746
82 -0.004071
83 -0.004541
84 -0.004736
85 -0.004291
86 -0.003780
87 -0.003320
88 -0.002909
89 -0.002700
90 -0.002757
91 -0.002740
92 -0.002455
93 -0.002503
94 -0.002348
95 -0.002036
96 -0.001872
97 -0.001496
98 -0.001129
99 -0.000662
100 -0.000268
101 -0.000315
102 0.000090
103 0.000529
104 0.001223
105 0.001790
106 0.002297
107 0.002603
108 0.002354
109 0.002219
110 0.001978
111 0.001759
112 0.001762
113 0.001606
114 0.001453
115 0.001045
116 0.001026
117 0.001007
118 0.000920
119 0.000839
120 0.000667
121 0.000537
122 0.000400
123 0.000288
124 0.000550
125 0.000720
126 0.001020
127 0.001255
128 0.001451
129 0.001564
130 0.001602
131 0.001724
132 0.001997
133 0.002325
134 0.002601
135 0.002456
136 0.002209
137 0.001897
138 0.002018
139 0.002254
140 0.002678
141 0.002859
142 0.003120
143 0.003311
144 0.002940
145 0.002530
146 0.002240
147 0.001737
148 0.001496
149 0.000996
150 0.000626
151 0.000729
152 0.000708
153 0.000613
154 0.000558
155 0.000545
156 0.000112
157 -0.000281
158 -0.000433
159 -0.000607
160 -0.000533
161 -0.000365
162 -0.000435
163 -0.000560
164 -0.001027
165 -0.001467
166 -0.001956
167 -0.002069
168 -0.002070
169 -0.001999
170 -0.001609
171 -0.001165
172 -0.000901
173 -0.000841
174 -0.000928
175 -0.000768
176 -0.000719
177 -0.000739
178 -0.000912
179 -0.001217
180 -0.001623
181 -0.002243
182 -0.003066
183 -0.003585
184 -0.003473
185 -0.003337
186 -0.003129
187 -0.002990
188 -0.003006
189 -0.003132
190 -0.003107
191 -0.002879
192 -0.002682
193 -0.002783
194 -0.003000
195 -0.003149
196 -0.003233
197 -0.003138
198 -0.003038
199 -0.003139
200 -0.003303
201 -0.003422
202 -0.003444
203 -0.003026
204 -0.002398
205 -0.001830
206 -0.001526
207 -0.001461
208 -0.001440
209 -0.001345
210 -0.001316
211 -0.001032
212 -0.000856
213 -0.000539
214 -0.000410
215 -0.000515
216 -0.000432
217 -0.000750
218 -0.000924
219 -0.000833
220 -0.000492
221 0.000173
222 0.000689
223 0.001060
224 0.001391
225 0.001299
226 0.001248
227 0.001070
228 0.001261
229 0.001554
230 0.001781
231 0.001979
232 0.002199
233 0.002645
234 0.002898
235 0.002908
236 0.002952
237 0.003055
238 0.003091
239 0.003064
240 0.003268
241 0.003204
242 0.003013
243 0.003037
244 0.003110
245 0.003224
246 0.003369
247 0.003351
248 0.003058
249 0.002988
250 0.002863
251 0.002729
252 0.002886
253 0.002814
254 0.002424
255 0.002139
256 0.001951
257 0.002160
258 0.002402
259 0.002581
260 0.002638
261 0.002551
262 0.002429
263 0.002202
264 0.002396
265 0.002620
266 0.002877
267 0.002996
268 0.002968
269 0.002766
270 0.002697
271 0.002659
272 0.002541
273 0.002387
274 0.002300
275 0.002233
276 0.002237
277 0.002350
278 0.002501
279 0.002581
280 0.002423
281 0.002211
282 0.002022
283 0.001716
284 0.001669
285 0.001603
286 0.001521
287 0.001316
288 0.000987
289 0.000782
290 0.000310
291 0.000182
292 0.000007
293 -0.000175
294 -0.000275
295 -0.000437
296 -0.000530
297 -0.000253
298 -0.000300
299 -0.000584
300 -0.000690
301 -0.000579
302 -0.000531
303 -0.000343
304 -0.000238
305 -0.000031
306 -0.000215
307 -0.000632
308 -0.001031
309 -0.001154
310 -0.001279
311 -0.001395
312 -0.001664
313 -0.001792
314 -0.001955
315 -0.002180
316 -0.002262
317 -0.002366
318 -0.002045
319 -0.001696
320 -0.001400
321 -0.001422
322 -0.001478
323 -0.001349
324 -0.001275
325 -0.001051
326 -0.001076
327 -0.001283
328 -0.001554
329 -0.001783
330 -0.001837
331 -0.001588
332 -0.000978
333 -0.000493
334 -0.000326
335 -0.000365
336 -0.000609
337 -0.000683
338 -0.000428
339 0.000076
340 0.000602
341 0.000705
342 0.000628
343 0.000439
344 0.000253
345 0.000065
346 -0.000117
347 -0.000105
348 -0.000031
349 -0.000151
350 -0.000242
351 -0.000344
352 -0.000445
353 -0.000783
354 -0.000922
355 -0.001079
356 -0.001031
357 -0.000912
358 -0.000827
359 -0.000845
360 -0.000988
361 -0.001006
362 -0.000999
363 -0.000804
364 -0.000477
365 0.000053
366 0.000608
367 0.001042
368 0.001302
369 0.001388
370 0.001526
371 0.001758
372 0.001932
373 0.002222
374 0.002584
375 0.002911
376 0.003214
377 0.003584
378 0.003730
379 0.003793
380 0.003650
381 0.003427
382 0.003116
383 0.002862
384 0.002839
385 0.002898
386 0.003188
387 0.003220
388 0.003145
389 0.002873
390 0.002417
391 0.002109
392 0.001954
393 0.001882
394 0.001827
395 0.001842
396 0.001703
397 0.001556
398 0.001405
399 0.001237
400 0.001249
401 0.001241
402 0.000974
403 0.000595
404 0.000565
405 0.000624
406 0.000593
407 0.000705
408 0.001024
409 0.001439
410 0.001905
411 0.002042
412 0.002025
413 0.002061
414 0.002033
415 0.001845
416 0.001465
417 0.001314
418 0.001161
419 0.000955
420 0.000553
421 0.000269
422 0.000157
423 -0.000009
424 -0.000219
425 -0.000222
426 -0.000183
427 -0.000226
428 -0.000372
429 -0.000431
430 -0.000524
431 -0.000535
432 -0.000491
433 -0.000464
434 -0.000618
435 -0.000736
436 -0.000840
437 -0.000716
438 -0.000950
439 -0.001053
440 -0.000911
441 -0.000955
442 -0.001067
443 -0.001086
444 -0.000936
445 -0.000747
446 -0.000459
447 -0.000169
448 0.000055
449 -0.000005
450 -0.000183
451 -0.000450
452 -0.000518
453 -0.000690
454 -0.000797
455 -0.000915
456 -0.000935
457 -0.000925
458 -0.001118
459 -0.001271
460 -0.001527
461 -0.001878
462 -0.002130
463 -0.002273
464 -0.002416
465 -0.002338
466 -0.002079
467 -0.001762
468 -0.001508
469 -0.001514
470 -0.001585
471 -0.001948
472 -0.002106
473 -0.002098
474 -0.001910
475 -0.001584
476 -0.001397
477 -0.001170
478 -0.000934
479 -0.000756
480 -0.000638
481 -0.000418
482 -0.000204
483 -0.000111
484 -0.000203
485 -0.000307
486 -0.000240
487 -0.000183
488 -0.000234
489 -0.000136
490 -0.000084
491 -0.000376
492 -0.000566
493 -0.000632
494 -0.000585
495 -0.000383
496 -0.000478
497 -0.000644
498 -0.000815
499 -0.000780
500 -0.000560
501 -0.000201
502 0.000101
503 0.000189
504 -0.000017
505 -0.000129
506 -0.000314
507 -0.000453
508 -0.000524
509 -0.000369
510 -0.000202
511 0.000135
512 0.000380
513 0.000707
514 0.000772
515 0.000617
516 0.000459
517 0.000473
518 0.000508
519 0.000520
520 0.000404
521 0.000475
522 0.000425
523 0.000353
524 0.000264
525 0.000207
526 0.000027
527 -0.000348
528 -0.000522
529 -0.000403
530 -0.000318
531 -0.000289
532 -0.000407
533 -0.000592
534 -0.001003
535 -0.001099
536 -0.000964
537 -0.000849
538 -0.000653
539 -0.000588
540 -0.000647
541 -0.000689
542 -0.000863
543 -0.000704
544 -0.000445
545 -0.000452
546 -0.000383
547 -0.000255
548 -0.000247
549 -0.000154
550 -0.000201
551 -0.000218
552 -0.000163
553 -0.000105
554 -0.000046
555 0.000424
556 0.000826
557 0.001070
558 0.000949
559 0.000764
560 0.000427
561 0.000348
562 0.000305
563 0.000350
564 0.000337
565 0.000350
566 0.000173
567 -0.000119
568 -0.000293
569 -0.000374
570 -0.000333
571 -0.000371
572 -0.000335
573 -0.000390
574 -0.000501
575 -0.000673
576 -0.000900
577 -0.001067
578 -0.001175
579 -0.001246
580 -0.001280
581 -0.001192
582 -0.000994
583 -0.001084
584 -0.001065
585 -0.001031
586 -0.000948
587 -0.000913
588 -0.001044
589 -0.001013
590 -0.000927
591 -0.000868
592 -0.000764
593 -0.000846
594 -0.000827
595 -0.000802
596 -0.000947
597 -0.000848
598 -0.000774
599 -0.000603
600 -0.000488
601 -0.000327
602 -0.000222
603 -0.000126
604 -0.000090
605 -0.000063
606 0.000040
607 0.000155
608 0.000423
609 0.000680
610 0.000967
611 0.001080
612 0.000995
613 0.000722
614 0.000405
615 0.000200
616 0.000252
617 0.000276
618 0.000557
619 0.000790
620 0.000858
621 0.001073
622 0.001077
623 0.001040
624 0.001032
625 0.001045
626 0.001072
627 0.001044
628 0.001019
629 0.001012
630 0.001062
631 0.001068
632 0.001014
633 0.001060
634 0.000834
635 0.000737
636 0.000588
637 0.000556
638 0.000671
639 0.000769
640 0.000734
641 0.000685
642 0.000489
643 0.000706
644 0.000878
645 0.001163
646 0.001157
647 0.001086
648 0.000916
649 0.000629
650 0.000461
651 0.000348
652 0.000307
653 0.000446
654 0.000466
655 0.000433
656 0.000263
657 0.000162
658 -0.000053
659 -0.000130
660 -0.000130
661 -0.000087
662 0.000021
663 0.000169
664 0.000262
665 0.000295
666 0.000275
667 0.000139
668 0.000052
669 -0.000133
670 -0.000232
671 -0.000195
672 -0.000018
673 0.000256
674 0.000508
675 0.000662
676 0.000651
677 0.000621
678 0.000443
679 0.000301
680 0.000144
681 0.000165
682 0.000209
683 0.000131
684 0.000179
685 0.000141
686 0.000131
687 0.000110
688 0.000044
689 0.000108
690 0.000152
691 0.000179
692 0.000261
693 0.000249
694 0.000060
695 -0.000124
696 -0.000294
697 -0.000450
698 -0.000576
699 -0.000539
700 -0.000546
701 -0.000570
702 -0.000816
703 -0.000982
704 -0.001207
705 -0.001481
706 -0.001493
707 -0.001391
708 -0.001217
709 -0.001166
710 -0.001156
711 -0.001124
712 -0.001140
713 -0.001136
714 -0.001000
715 -0.000841
716 -0.000613
717 -0.000483
718 -0.000388
719 -0.000338
720 -0.000333
721 -0.000429
722 -0.000562
723 -0.000835
724 -0.001059
725 -0.001231
726 -0.001273
727 -0.001173
728 -0.001081
729 -0.001083
730 -0.000980
731 -0.000925
732 -0.000882
733 -0.000668
734 -0.000484
735 -0.000251
736 -0.000162
737 -0.000178
738 -0.000266
739 -0.000392
740 -0.000438
741 -0.000442
742 -0.000333
743 -0.000269
744 -0.000331
745 -0.000353
746 -0.000515
747 -0.000562
748 -0.000664
749 -0.000592
750 -0.000590
751 -0.000506
752 -0.000313
753 -0.000115
754 -0.000032
755 -0.000065
756 -0.000238
757 -0.000316
758 -0.000339
759 -0.000309
760 -0.000176
761 -0.000109
762 0.000033
763 -0.000003
764 -0.000026
765 0.000029
766 0.000258
767 0.000289
768 0.000243
769 0.000236
770 0.000294
771 0.000280
772 0.000212
773 0.000275
774 0.000251
775 0.000283
776 0.000359
777 0.000508
778 0.000552
779 0.000618
780 0.000667
781 0.000722
782 0.000734
783 0.000796
784 0.000859
785 0.000883
786 0.000819
787 0.000847
788 0.000889
789 0.000818
790 0.000667
791 0.000519
792 0.000373
793 0.000281
794 0.000255
795 0.000395
796 0.000578
797 0.000636
798 0.000620
799 0.000549
800 0.000413
801 0.000273
802 0.000171
803 0.000134
804 0.000166
805 0.000255
806 0.000478
807 0.000590
808 0.000608
809 0.000543
