# i correlation
1 0.016943
2 0.014276
3 0.011966
4 0.010142
5 0.008581
6 0.007309
7 0.006125
8 0.005062
9 0.004039
10 0.003246
11 0.002911
12 0.002680
13 0.002208
14 0.001752
15 0.001145
16 0.000685
17 0.000364
18 -0.000083
19 -0.000300
20 -0.000455
21 -0.000609
22 -0.000689
23 -0.000718
24 -0.000657
25 -0.000404
26 -0.000158
27 0.000057
28 0.000157
29 0.000231
30 0.000311
31 0.000375
32 0.000741
33 0.001322
34 0.001668
35 0.001906
36 0.002066
37 0.002203
38 0.002254
39 0.002228
40 0.002414
41 0.003014
42 0.003255
43 0.003451
44 0.003491
45 0.003358
46 0.002891
47 0.002820
48 0.002799
49 0.002886
50 0.002640
51 0.002363
52 0.002426
53 0.002706
54 0.002899
55 0.003027
56 0.002611
57 0.002085
58 0.001391
59 0.000458
60 -0.000252
61 -0.000599
62 -0.001259
63 -0.001781
64 -0.002097
65 -0.002093
66 -0.002102
67 -0.002052
68 -0.001770
69 -0.001445
70 -0.001061
71 -0.000853
72 -0.001034
73 -0.001194
74 -0.001000
75 -0.000769
76 -0.000549
77 -0.000408
78 -0.000257
79 -0.000244
80 -0.000029
81 0.000145
82 0.000639
83 0.000924
84 0.000971
85 0.001097
86 0.001225
87 0.001445
88 0.001701
89 0.001798
90 0.002246
91 0.002634
92 0.002947
93 0.002870
94 0.003033
95 0.003151
96 0.003198
97 0.003077
98 0.003074
99 0.003057
100 0.002831
101 0.002355
102 0.002084
103 0.001855
104 0.001761
105 0.001375
106 0.001175
107 0.001229
108 0.001316
109 0.001399
110 0.001418
111 0.001537
112 0.001921
113 0.001984
114 0.001935
115 0.001873
116 0.001825
117 0.001466
118 0.001266
119 0.001361
120 0.001359
121 0.001113
122 0.000555
123 0.000152
124 0.000200
125 0.000165
126 0.000174
127 0.000064
128 -0.000329
129 -0.000526
130 -0.000801
131 -0.000956
132 -0.000840
133 -0.000848
134 -0.001044
135 -0.001170
136 -0.000885
137 -0.000495
138 -0.000045
139 0.000511
140 0.000704
141 0.000899
142 0.000788
143 0.000919
144 0.001078
145 0.001318
146 0.001585
147 0.002126
148 0.002613
149 0.002736
150 0.002722
151 0.002631
152 0.002545
153 0.002502
154 0.002530
155 0.002419
156 0.002329
157 0.002329
158 0.002023
159 0.001678
160 0.001443
161 0.001234
162 0.001048
163 0.000778
164 0.000607
165 0.000192
166 -0.000115
167 -0.000271
168 -0.000337
169 -0.000120
170 0.000177
171 0.000185
172 -0.000214
173 -0.000256
174 -0.000066
175 -0.000000
176 -0.000120
177 -0.000144
178 0.000024
179 0.000055
180 0.000261
181 0.000483
182 0.001043
183 0.001421
184 0.001715
185 0.001785
186 0.001713
187 0.001409
188 0.001045
189 0.000938
190 0.000969
191 0.000923
192 0.000973
193 0.000834
194 0.001011
195 0.001074
196 0.001411
197 0.001683
198 0.002005
199 0.002060
200 0.002167
201 0.002160
202 0.002120
203 0.002128
204 0.002014
205 0.001754
206 0.001665
207 0.001651
208 0.001648
209 0.001473
210 0.001147
211 0.000975
212 0.001009
213 0.000800
214 0.000314
215 -0.000140
216 -0.000495
217 -0.000725
218 -0.000627
219 -0.000271
220 -0.000308
221 -0.000306
222 -0.000463
223 -0.000484
224 -0.000577
225 -0.000742
226 -0.001127
227 -0.001228
228 -0.000972
229 -0.000965
230 -0.000753
231 -0.000395
232 -0.000061
233 0.000089
234 0.000236
235 0.000570
236 0.000794
237 0.000529
238 0.000308
239 0.000547
240 0.000497
241 0.000329
242 -0.000150
243 -0.000604
244 -0.001021
245 -0.001246
246 -0.001437
247 -0.001368
248 -0.001116
249 -0.001033
250 -0.000669
251 -0.000273
252 0.000342
253 0.000859
254 0.001263
255 0.001522
256 0.001640
257 0.001634
258 0.001456
259 0.001124
260 0.000848
261 0.000740
262 0.000619
263 0.000466
264 0.000141
265 0.000085
266 0.000331
267 0.000346
268 0.000396
269 0.000412
270 0.000151
271 0.000009
272 -0.000071
273 0.000053
274 0.000241
275 0.000541
276 0.000671
277 0.000942
278 0.001081
279 0.000874
280 0.000837
281 0.000438
282 0.000268
283 0.000254
284 0.000238
285 0.000098
286 0.000060
287 -0.000061
288 0.000175
289 0.000143
290 0.000367
291 0.000480
292 0.000505
293 0.000453
294 0.000686
295 0.000819
296 0.001012
297 0.001118
298 0.001057
299 0.001066
300 0.001115
301 0.001078
302 0.001082
303 0.001100
304 0.001287
305 0.001213
306 0.000959
307 0.000816
308 0.000843
309 0.000944
310 0.001093
311 0.001011
312 0.000754
313 0.000395
314 -0.000037
315 -0.000405
316 -0.000676
317 -0.000908
318 -0.001028
319 -0.001287
320 -0.001496
321 -0.001585
322 -0.001641
323 -0.001561
324 -0.001671
325 -0.002046
326 -0.002221
327 -0.002077
328 -0.001828
329 -0.001690
330 -0.001452
331 -0.000910
332 -0.000257
333 0.000430
334 0.000751
335 0.000808
336 0.000427
337 0.000158
338 -0.000113
339 -0.000244
340 -0.000235
341 -0.000446
342 -0.000751
343 -0.000899
344 -0.000762
345 -0.000584
346 -0.000377
347 -0.000417
348 -0.000311
349 -0.000188
350 -0.000228
351 -0.000041
352 0.000101
353 0.000096
354 -0.000028
355 -0.000298
356 -0.000496
357 -0.000535
358 -0.000643
359 -0.000889
360 -0.000878
361 -0.000735
362 -0.000777
363 -0.001070
364 -0.001382
365 -0.001567
366 -0.001673
367 -0.001740
368 -0.001544
369 -0.001443
370 -0.001310
371 -0.001362
372 -0.001277
373 -0.001177
374 -0.000909
375 -0.000624
376 -0.000506
377 -0.000641
378 -0.000599
379 -0.000665
380 -0.000667
381 -0.000653
382 -0.000531
383 -0.000577
384 -0.000858
385 -0.000973
386 -0.000996
387 -0.000522
388 -0.000087
389 0.000191
390 0.000341
391 0.000325
392 0.000376
393 0.000281
394 0.000315
395 0.000267
396 -0.000050
397 -0.000629
398 -0.000905
399 -0.000920
400 -0.000985
401 -0.001153
402 -0.000979
403 -0.000740
404 -0.000545
405 -0.000415
406 -0.000120
407 0.000046
408 -0.000026
409 0.000036
410 0.000030
411 -0.000019
412 -0.000168
413 -0.000212
414 -0.000199
415 -0.000167
416 -0.000096
417 -0.000112
418 -0.000113
419 0.000039
420 0.000001
421 0.000105
422 0.000047
423 0.000046
424 0.000053
425 0.000143
426 0.000076
427 -0.000142
428 -0.000251
429 -0.000256
430 -0.000274
431 -0.000124
432 0.000079
433 -0.000042
434 -0.000288
435 -0.000381
436 -0.000317
437 -0.000232
438 -0.000335
439 -0.000206
440 -0.000035
441 0.000102
442 0.000224
443 0.000386
444 0.000697
445 0.000699
446 0.000696
447 0.000720
448 0.000992
449 0.001151
450 0.001054
451 0.001093
452 0.000999
453 0.000881
454 0.000615
455 0.000342
456 0.000353
457 0.000497
458 0.000647
459 0.000588
460 0.000720
461 0.000718
462 0.000408
463 0.000070
464 -0.000261
465 -0.000568
466 -0.000912
467 -0.001226
468 -0.001552
469 -0.001633
470 -0.001618
471 -0.001568
472 -0.001420
473 -0.001250
474 -0.000943
475 -0.000797
476 -0.000869
477 -0.000919
478 -0.000903
479 -0.000995
480 -0.000919
481 -0.000792
482 -0.000624
483 -0.000582
484 -0.000419
485 -0.000336
486 -0.000041
487 0.000168
488 0.000208
489 0.000350
490 0.000570
491 0.000718
492 0.000920
493 0.000964
494 0.001118
495 0.000975
496 0.000778
497 0.000732
498 0.000638
499 0.000454
500 0.000270
501 0.000265
502 0.000284
503 0.000165
504 -0.000047
505 -0.000218
506 -0.000204
507 -0.000097
508 -0.000045
509 -0.000193
510 -0.000490
511 -0.000706
512 -0.001038
513 -0.001396
514 -0.001659
515 -0.001878
516 -0.001992
517 -0.002116
518 -0.002073
519 -0.001822
520 -0.001860
521 -0.001948
522 -0.002018
523 -0.002218
524 -0.002276
525 -0.002199
526 -0.001938
527 -0.001640
528 -0.001393
529 -0.001291
530 -0.000964
531 -0.000537
532 0.000014
533 0.000568
534 0.000864
535 0.001118
536 0.001250
537 0.001133
538 0.001043
539 0.001096
540 0.001199
541 0.001085
542 0.000997
543 0.000900
544 0.000781
545 0.000796
546 0.000672
547 0.000516
548 0.000271
549 -0.000127
550 -0.000468
551 -0.000669
552 -0.000623
553 -0.000727
554 -0.001007
555 -0.001362
556 -0.001578
557 -0.001673
558 -0.001752
559 -0.001805
560 -0.001723
561 -0.001595
562 -0.001401
563 -0.001022
564 -0.000668
565 -0.000279
566 -0.000157
567 -0.000120
568 -0.000094
569 -0.000062
570 0.000089
571 0.000166
572 0.000175
573 0.000377
574 0.000668
575 0.000828
576 0.000986
577 0.001067
578 0.000911
579 0.000883
580 0.001019
581 0.001052
582 0.001132
583 0.001065
584 0.000967
585 0.001045
586 0.000951
587 0.000863
588 0.000853
589 0.000874
590 0.000710
591 0.000372
592 0.000026
593 -0.000226
594 -0.000353
595 -0.000541
596 -0.000515
597 -0.000701
598 -0.000798
599 -0.001033
600 -0.001060
601 -0.000851
602 -0.000798
603 -0.000872
604 -0.001028
605 -0.001180
606 -0.001108
607 -0.001083
608 -0.000840
609 -0.000710
610 -0.000615
611 -0.000626
612 -0.000748
613 -0.000753
614 -0.000708
615 -0.000551
616 -0.000557
617 -0.000656
618 -0.000513
619 -0.000425
620 -0.000504
621 -0.000655
622 -0.000634
623 -0.000570
624 -0.000659
625 -0.000858
626 -0.000944
627 -0.000774
628 -0.000413
629 -0.000181
630 -0.000057
631 0.000035
632 -0.000024
633 -0.000237
634 -0.000339
635 -0.000390
636 -0.000678
637 -0.000979
638 -0.001197
639 -0.001429
640 -0.001568
641 -0.001598
642 -0.001449
643 -0.001299
644 -0.001241
645 -0.001159
646 -0.001068
647 -0.001130
648 -0.001241
649 -0.001251
650 -0.001192
651 -0.001112
652 -0.001154
653 -0.001151
654 -0.001108
655 -0.000964
656 -0.000635
657 -0.000404
658 -0.000287
659 -0.000212
660 -0.000144
661 -0.000151
662 -0.000249
663 -0.000400
664 -0.000345
665 -0.000325
666 -0.000353
667 -0.000320
668 -0.000304
669 -0.000225
670 -0.000227
671 -0.000079
672 0.000266
673 0.000374
674 0.000269
675 0.000132
676 0.000133
677 0.000020
678 -0.000086
679 -0.000081
680 0.000017
681 0.000035
682 0.000034
683 0.000150
684 0.000275
685 0.000182
686 0.000193
687 0.000052
688 -0.000067
689 -0.000146
690 -0.000158
691 -0.000155
692 -0.000052
693 -0.000041
694 -0.000099
695 -0.000066
696 -0.000055
697 0.000034
698 -0.000028
699 -0.000127
700 -0.000209
701 -0.000258
702 -0.000266
703 -0.000183
704 -0.000142
705 -0.000002
706 0.000103
707 0.000070
708 0.000097
709 0.000264
710 0.000383
711 0.000395
712 0.000415
713 0.000497
714 0.000572
715 0.000598
716 0.000581
717 0.000607
718 0.000506
719 0.000476
720 0.000479
721 0.000448
722 0.000488
723 0.000447
724 0.000313
725 0.000334
726 0.000439
727 0.000617
728 0.000666
729 0.000686
730 0.000607
731 0.000468
732 0.000261
733 0.000142
734 0.000144
735 0.000162
736 0.000146
737 0.000031
738 -0.000160
739 -0.000242
740 -0.000321
741 -0.000324
742 -0.000296
743 -0.000256
744 -0.000128
745 -0.000043
746 -0.000014
747 0.000027
748 0.000114
749 0.000161
750 0.000256
751 0.000207
752 0.000178
753 0.000171
754 0.000132
755 0.000177
756 0.000112
757 0.000035
758 0.000041
759 0.000029
760 0.000073
761 0.000177
762 0.000331
763 0.000527
764 0.000656
765 0.000658
766 0.000602
767 0.000599
768 0.000511
769 0.000430
770 0.000290
771 0.000141
772 0.000010
773 -0.000171
774 -0.000185
775 -0.000064
776 0.000043
777 0.000135
778 0.000192
779 0.000199
780 0.000185
781 0.000107
782 0.000059
783 0.000096
784 0.000071
785 0.000000
786 -0.000077
787 -0.000183
788 -0.000117
789 -0.000054
790 -0.000001
791 0.000034
792 0.000015
793 0.000024
794 0.000038
795 -0.000109
796 -0.000207
797 -0.000217
798 -0.000212
799 -0.000271
800 -0.000340
801 -0.000325
802 -0.000210
803 -0.000167
804 -0.000105
805 -0.000028
806 -0.000050
807 -0.000089
808 -0.000164
809 -0.000287
