# i correlation
1 0.019819
2 0.017196
3 0.014950
4 0.012978
5 0.011034
6 0.009477
7 0.008407
8 0.007530
9 0.007041
10 0.006517
11 0.005872
12 0.005388
13 0.004730
14 0.004202
15 0.003379
16 0.002620
17 0.002098
18 0.001733
19 0.001272
20 0.000946
21 0.001097
22 0.000966
23 0.000838
24 0.000802
25 0.001165
26 0.001152
27 0.000973
28 0.000689
29 0.000115
30 -0.000713
31 -0.001026
32 -0.001165
33 -0.001375
34 -0.001662
35 -0.001695
36 -0.001562
37 -0.001636
38 -0.001548
39 -0.001467
40 -0.001177
41 -0.001167
42 -0.001280
43 -0.001618
44 -0.001787
45 -0.002075
46 -0.001717
47 -0.001364
48 -0.001170
49 -0.000714
50 -0.000205
51 0.000124
52 0.000270
53 0.000458
54 0.000666
55 0.000682
56 0.000825
57 0.001130
58 0.001389
59 0.001307
60 0.001391
61 0.001311
62 0.001166
63 0.001150
64 0.001180
65 0.001173
66 0.001075
67 0.001246
68 0.001395
69 0.001429
70 0.001273
71 0.001095
72 0.000936
73 0.000709
74 0.000745
75 0.001009
76 0.001023
77 0.001248
78 0.001544
79 0.001390
80 0.001474
81 0.001492
82 0.001675
83 0.001664
84 0.001599
85 0.001249
86 0.001121
87 0.001275
88 0.001125
89 0.000960
90 0.000659
91 0.000603
92 0.000572
93 0.000478
94 0.000219
95 0.000040
96 0.000424
97 0.000472
98 0.000649
99 0.001101
100 0.001541
101 0.001846
102 0.001884
103 0.002059
104 0.002091
105 0.001926
106 0.001687
107 0.001514
108 0.001262
109 0.001341
110 0.001433
111 0.001474
112 0.001367
113 0.001567
114 0.001948
115 0.002434
116 0.002342
117 0.002141
118 0.001843
119 0.001780
120 0.001784
121 0.001819
122 0.001926
123 0.001991
124 0.002240
125 0.002463
126 0.002498
127 0.002570
128 0.002703
129 0.002831
130 0.002884
131 0.002961
132 0.002939
133 0.002706
134 0.002339
135 0.002343
136 0.002617
137 0.002760
138 0.002855
139 0.002810
140 0.002759
141 0.002531
142 0.002452
143 0.002148
144 0.001504
145 0.000948
146 0.000692
147 0.000426
148 0.000027
149 0.000082
150 0.000391
151 0.000684
152 0.000694
153 0.000711
154 0.000471
155 0.000134
156 -0.000129
157 -0.000547
158 -0.000990
159 -0.001546
160 -0.001894
161 -0.001842
162 -0.001596
163 -0.001203
164 -0.000753
165 -0.000478
166 -0.000234
167 -0.000197
168 -0.000385
169 -0.000646
170 -0.000833
171 -0.000613
172 -0.000659
173 -0.000574
174 -0.000473
175 -0.000300
176 -0.000202
177 -0.000048
178 0.000211
179 0.000478
180 0.000568
181 0.000258
182 0.000042
183 0.000060
184 0.000185
185 0.000356
186 0.000258
187 0.000447
188 0.000574
189 0.000973
190 0.001162
191 0.001607
192 0.002211
193 0.002872
194 0.003212
195 0.003136
196 0.002861
197 0.002568
198 0.001974
199 0.001598
200 0.001364
201 0.001077
202 0.000790
203 0.000730
204 0.000857
205 0.001128
206 0.001631
207 0.002012
208 0.001935
209 0.001774
210 0.001576
211 0.001616
212 0.001502
213 0.001549
214 0.001657
215 0.001727
216 0.002006
217 0.002018
218 0.002236
219 0.002221
220 0.002441
221 0.002453
222 0.002252
223 0.001954
224 0.001669
225 0.001525
226 0.001232
227 0.001047
228 0.000885
229 0.000651
230 0.000557
231 0.000427
232 0.000234
233 0.000365
234 0.000611
235 0.000973
236 0.001254
237 0.001281
238 0.001437
239 0.001613
240 0.001606
241 0.001460
242 0.001503
243 0.001657
244 0.001589
245 0.001554
246 0.001421
247 0.001558
248 0.001416
249 0.001333
250 0.001333
251 0.001413
252 0.001457
253 0.001401
254 0.001132
255 0.000955
256 0.000614
257 0.000494
258 0.000349
259 0.000250
260 0.000115
261 0.000191
262 0.000233
263 -0.000003
264 -0.000151
265 -0.000236
266 -0.000519
267 -0.000593
268 -0.000585
269 -0.000788
270 -0.000835
271 -0.000936
272 -0.001056
273 -0.001162
274 -0.001135
275 -0.000999
276 -0.000829
277 -0.000811
278 -0.001115
279 -0.001310
280 -0.001482
281 -0.001859
282 -0.001906
283 -0.001971
284 -0.001979
285 -0.001973
286 -0.001679
287 -0.001601
288 -0.001467
289 -0.001241
290 -0.001324
291 -0.001571
292 -0.001875
293 -0.001714
294 -0.001402
295 -0.001086
296 -0.000938
297 -0.000850
298 -0.000593
299 -0.000517
300 -0.000509
301 -0.000545
302 -0.000658
303 -0.000496
304 -0.000402
305 -0.000211
306 -0.000286
307 0.000021
308 0.000557
309 0.000912
310 0.001265
311 0.001508
312 0.001736
313 0.001625
314 0.001915
315 0.002364
316 0.002691
317 0.002964
318 0.003178
319 0.003296
320 0.003412
321 0.003394
322 0.003537
323 0.003422
324 0.003278
325 0.003027
326 0.003067
327 0.003108
328 0.002962
329 0.002940
330 0.003184
331 0.003346
332 0.002916
333 0.002685
334 0.002475
335 0.002151
336 0.001948
337 0.001912
338 0.001448
339 0.001231
340 0.001028
341 0.000753
342 0.000704
343 0.000888
344 0.000946
345 0.000981
346 0.000909
347 0.000988
348 0.001239
349 0.001490
350 0.001639
351 0.001887
352 0.001983
353 0.001641
354 0.001312
355 0.000954
356 0.000685
357 0.000503
358 0.000515
359 0.000436
360 0.000142
361 -0.000102
362 -0.000082
363 -0.000419
364 -0.000888
365 -0.001387
366 -0.001418
367 -0.001367
368 -0.001444
369 -0.001685
370 -0.001855
371 -0.001971
372 -0.001920
373 -0.001891
374 -0.001901
375 -0.001730
376 -0.001392
377 -0.001026
378 -0.000816
379 -0.000609
380 -0.000343
381 -0.000226
382 -0.000223
383 -0.000207
384 -0.000145
385 0.000069
386 0.000278
387 0.000809
388 0.001180
389 0.001653
390 0.001918
391 0.002360
392 0.002508
393 0.002322
394 0.002154
395 0.001975
396 0.001593
397 0.001213
398 0.001034
399 0.001046
400 0.001312
401 0.001785
402 0.001946
403 0.001975
404 0.001748
405 0.001591
406 0.001252
407 0.000855
408 0.000672
409 0.000473
410 0.000238
411 0.000084
412 0.000125
413 0.000336
414 0.000693
415 0.000891
416 0.000953
417 0.000889
418 0.000885
419 0.000890
420 0.000817
421 0.000630
422 0.000458
423 0.000191
424 -0.000028
425 -0.000152
426 -0.000190
427 -0.000037
428 -0.000081
429 0.000045
430 0.000235
431 0.000354
432 0.000138
433 -0.000115
434 -0.000441
435 -0.000931
436 -0.001094
437 -0.001246
438 -0.001381
439 -0.001355
440 -0.001091
441 -0.000757
442 -0.000735
443 -0.000724
444 -0.000614
445 -0.000523
446 -0.000368
447 -0.000194
448 -0.000027
449 0.000200
450 0.000543
451 0.000793
452 0.001004
453 0.001241
454 0.001652
455 0.001889
456 0.002053
457 0.002055
458 0.002325
459 0.002681
460 0.002715
461 0.002877
462 0.003032
463 0.002970
464 0.002783
465 0.002782
466 0.002998
467 0.002988
468 0.003041
469 0.003003
470 0.002881
471 0.002733
472 0.002603
473 0.002406
474 0.002170
475 0.001752
476 0.001487
477 0.001135
478 0.000850
479 0.000682
480 0.000691
481 0.000713
482 0.000796
483 0.000975
484 0.000723
485 0.000204
486 -0.000293
487 -0.000638
488 -0.000929
489 -0.001279
490 -0.001369
491 -0.001525
492 -0.001671
493 -0.001906
494 -0.002092
495 -0.002303
496 -0.002639
497 -0.002689
498 -0.002728
499 -0.002840
500 -0.002754
501 -0.002657
502 -0.002314
503 -0.002235
504 -0.002073
505 -0.001929
506 -0.001771
507 -0.001722
508 -0.001546
509 -0.001350
510 -0.001345
511 -0.001417
512 -0.001412
513 -0.001499
514 -0.001321
515 -0.001129
516 -0.000849
517 -0.000756
518 -0.000484
519 -0.000406
520 -0.000346
521 -0.000328
522 -0.000360
523 -0.000204
524 -0.000038
525 0.000169
526 0.000279
527 0.000377
528 0.000576
529 0.000769
530 0.001028
531 0.001067
532 0.000985
533 0.000846
534 0.000713
535 0.000461
536 0.000254
537 0.000275
538 0.000319
539 0.000310
540 0.000410
541 0.000510
542 0.000563
543 0.000595
544 0.000764
545 0.000769
546 0.000642
547 0.000518
548 0.000358
549 0.000155
550 0.000157
551 0.000295
552 0.000500
553 0.000583
554 0.000749
555 0.000978
556 0.001080
557 0.001183
558 0.001249
559 0.001259
560 0.001108
561 0.000974
562 0.001055
563 0.001000
564 0.000853
565 0.000860
566 0.000973
567 0.001147
568 0.001284
569 0.001472
570 0.001636
571 0.001727
572 0.001771
573 0.001597
574 0.001247
575 0.000858
576 0.000560
577 0.000049
578 -0.000458
579 -0.000799
580 -0.000827
581 -0.000815
582 -0.000878
583 -0.000801
584 -0.000657
585 -0.000528
586 -0.000474
587 -0.000574
588 -0.000674
589 -0.000882
590 -0.000957
591 -0.001052
592 -0.001153
593 -0.001144
594 -0.000971
595 -0.000855
596 -0.000615
597 -0.000554
598 -0.000395
599 -0.000535
600 -0.000792
601 -0.000759
602 -0.000804
603 -0.000960
604 -0.001159
605 -0.001303
606 -0.001442
607 -0.001361
608 -0.001214
609 -0.001140
610 -0.001071
611 -0.000938
612 -0.000831
613 -0.000856
614 -0.000988
615 -0.001275
616 -0.001395
617 -0.001448
618 -0.001528
619 -0.001418
620 -0.001357
621 -0.001283
622 -0.001320
623 -0.001299
624 -0.001387
625 -0.001389
626 -0.001460
627 -0.001489
628 -0.001519
629 -0.001454
630 -0.001372
631 -0.001431
632 -0.001404
633 -0.001445
634 -0.001213
635 -0.001262
636 -0.001162
637 -0.000886
638 -0.000625
639 -0.000471
640 -0.000442
641 -0.000436
642 -0.000536
643 -0.000518
644 -0.000403
645 -0.000184
646 -0.000005
647 0.000282
648 0.000512
649 0.000664
650 0.000738
651 0.000862
652 0.001041
653 0.001200
654 0.001233
655 0.001336
656 0.001351
657 0.001417
658 0.001412
659 0.001418
660 0.001228
661 0.001113
662 0.000836
663 0.000548
664 0.000247
665 0.000133
666 0.000008
667 0.000025
668 0.000049
669 -0.000013
670 0.000040
671 0.000100
672 0.000112
673 0.000022
674 -0.000135
675 -0.000368
676 -0.000477
677 -0.000445
678 -0.000418
679 -0.000398
680 -0.000562
681 -0.000778
682 -0.000894
683 -0.001053
684 -0.001131
685 -0.001259
686 -0.001361
687 -0.001494
688 -0.001686
689 -0.001769
690 -0.001939
691 -0.002014
692 -0.002128
693 -0.002226
694 -0.002156
695 -0.002002
696 -0.001884
697 -0.001821
698 -0.001717
699 -0.001667
700 -0.001742
701 -0.001584
702 -0.001576
703 -0.001491
704 -0.001448
705 -0.001395
706 -0.001375
707 -0.001381
708 -0.001405
709 -0.001385
710 -0.001286
711 -0.001071
712 -0.000966
713 -0.000898
714 -0.000918
715 -0.000987
716 -0.001067
717 -0.001028
718 -0.000906
719 -0.000822
720 -0.000867
721 -0.000882
722 -0.000995
723 -0.000981
724 -0.001059
725 -0.001135
726 -0.001259
727 -0.001356
728 -0.001413
729 -0.001404
730 -0.001441
731 -0.001524
732 -0.001595
733 -0.001509
734 -0.001355
735 -0.001126
736 -0.000770
737 -0.000430
738 -0.000129
739 0.000148
740 0.000184
741 0.000249
742 0.000267
743 0.000291
744 0.000319
745 0.000413
746 0.000428
747 0.000409
748 0.000465
749 0.000490
750 0.000392
751 0.000458
752 0.000472
753 0.000435
754 0.000432
755 0.000305
756 0.000149
757 0.000043
758 -0.000025
759 -0.000084
760 -0.000051
761 0.000027
762 0.000070
763 0.000061
764 0.000163
765 0.000222
766 0.000182
767 0.000228
768 0.000288
769 0.000400
770 0.000582
771 0.000710
772 0.000825
773 0.000948
774 0.000998
775 0.000955
776 0.001006
777 0.001192
778 0.001385
779 0.001544
780 0.001664
781 0.001793
782 0.001802
783 0.001850
784 0.001781
785 0.001735
786 0.001655
787 0.001628
788 0.001626
789 0.001601
790 0.001516
791 0.001403
792 0.001359
793 0.001342
794 0.001283
795 0.001227
796 0.001119
797 0.001014
798 0.001043
799 0.001022
800 0.000887
801 0.000804
802 0.000749
803 0.000743
804 0.000712
805 0.000741
806 0.000702
807 0.000604
808 0.000501
809 0.000358
