# i correlation
1 0.014051
2 0.011672
3 0.009635
4 0.008003
5 0.006526
6 0.005146
7 0.004259
8 0.003544
9 0.002949
10 0.002352
11 0.001948
12 0.001699
13 0.001511
14 0.001202
15 0.000647
16 0.000506
17 0.000321
18 0.000173
19 0.000163
20 0.000020
21 -0.000216
22 -0.000500
23 -0.000945
24 -0.000871
25 -0.000898
26 -0.000835
27 -0.000801
28 -0.000502
29 -0.000752
30 -0.000589
31 -0.000463
32 -0.000214
33 -0.000112
34 -0.000229
35 0.000060
36 -0.000041
37 -0.000072
38 -0.000390
39 -0.000753
40 -0.001040
41 -0.001281
42 -0.001383
43 -0.001476
44 -0.001107
45 -0.001025
46 -0.000710
47 -0.000696
48 -0.000736
49 -0.000662
50 -0.000529
51 -0.000807
52 -0.001151
53 -0.001529
54 -0.001457
55 -0.001441
56 -0.001172
57 -0.000949
58 -0.000895
59 -0.001118
60 -0.000927
61 -0.000710
62 -0.000189
63 0.000269
64 0.000267
65 0.000463
66 0.000371
67 0.000468
68 0.000732
69 0.000998
70 0.001276
71 0.001318
72 0.001146
73 0.001100
74 0.000969
75 0.000773
76 0.000796
77 0.000755
78 0.000523
79 0.000363
80 0.000253
81 0.000313
82 0.000618
83 0.000686
84 0.000719
85 0.001161
86 0.001163
87 0.001025
88 0.000764
89 0.000322
90 -0.000065
91 -0.000578
92 -0.000987
93 -0.000907
94 -0.000904
95 -0.000736
96 -0.000578
97 -0.000225
98 -0.000065
99 0.000005
100 0.000089
101 -0.000137
102 -0.000432
103 -0.000805
104 -0.000808
105 -0.000777
106 -0.000680
107 -0.000911
108 -0.001473
109 -0.001905
110 -0.001942
111 -0.002038
112 -0.002215
113 -0.002067
114 -0.001765
115 -0.001414
116 -0.001138
117 -0.000556
118 -0.000023
119 0.000489
120 0.000768
121 0.000819
122 0.000755
123 0.000673
124 0.000579
125 0.000298
126 0.000136
127 0.000061
128 -0.000117
129 -0.000329
130 -0.000408
131 -0.000301
132 -0.000073
133 0.000241
134 0.000189
135 0.000497
136 0.000499
137 0.000506
138 0.000513
139 0.000596
140 0.000635
141 0.000767
142 0.000875
143 0.001160
144 0.000977
145 0.001034
146 0.000943
147 0.000892
148 0.000652
149 0.000340
150 0.000374
151 0.000308
152 0.000124
153 -0.000125
154 -0.000183
155 0.000052
156 0.000045
157 0.000080
158 -0.000041
159 -0.000113
160 -0.000152
161 -0.000192
162 -0.000389
163 -0.000304
164 -0.000442
165 -0.000693
166 -0.000858
167 -0.000707
168 -0.000391
169 -0.000175
170 0.000156
171 0.000173
172 0.000041
173 0.000221
174 0.000021
175 -0.000091
176 0.000021
177 -0.000043
178 -0.000101
179 -0.000165
180 -0.000178
181 -0.000364
182 -0.000369
183 -0.000308
184 -0.000500
185 -0.000475
186 -0.000819
187 -0.000639
188 -0.000664
189 -0.000414
190 -0.000158
191 0.000072
192 0.000414
193 0.000722
194 0.000732
195 0.000716
196 0.000496
197 0.000407
198 0.000012
199 -0.000460
200 -0.000614
201 -0.000645
202 -0.000699
203 -0.000292
204 0.000226
205 0.000763
206 0.001182
207 0.001307
208 0.001386
209 0.001147
210 0.001043
211 0.001151
212 0.001218
213 0.001140
214 0.001053
215 0.001264
216 0.001280
217 0.001511
218 0.001561
219 0.001677
220 0.001677
221 0.001419
222 0.001302
223 0.001010
224 0.000848
225 0.000808
226 0.000775
227 0.000512
228 0.000471
229 0.000266
230 -0.000104
231 -0.000407
232 -0.000753
233 -0.001149
234 -0.001572
235 -0.001710
236 -0.001764
237 -0.001870
238 -0.001833
239 -0.001705
240 -0.001852
241 -0.001908
242 -0.001818
243 -0.001562
244 -0.001659
245 -0.001658
246 -0.001764
247 -0.001715
248 -0.001646
249 -0.001658
250 -0.001669
251 -0.001849
252 -0.001462
253 -0.001003
254 -0.000438
255 0.000114
256 0.000644
257 0.001226
258 0.001721
259 0.002088
260 0.002340
261 0.002694
262 0.003068
263 0.003086
264 0.002803
265 0.002491
266 0.002436
267 0.002216
268 0.001977
269 0.001588
270 0.001390
271 0.001018
272 0.000539
273 0.000558
274 0.000712
275 0.000798
276 0.000964
277 0.000896
278 0.000873
279 0.000806
280 0.000862
281 0.000562
282 0.000841
283 0.001204
284 0.001339
285 0.001122
286 0.000803
287 0.000820
288 0.000851
289 0.000837
290 0.001077
291 0.001186
292 0.001241
293 0.001308
294 0.001477
295 0.001191
296 0.001077
297 0.000869
298 0.000699
299 0.000465
300 0.000226
301 0.000178
302 0.000023
303 -0.000072
304 -0.000209
305 -0.000311
306 -0.000515
307 -0.000893
308 -0.001016
309 -0.001301
310 -0.001274
311 -0.001203
312 -0.001295
313 -0.001395
314 -0.001702
315 -0.002007
316 -0.002033
317 -0.002109
318 -0.002061
319 -0.002214
320 -0.002211
321 -0.002226
322 -0.001815
323 -0.001319
324 -0.001065
325 -0.000885
326 -0.000747
327 -0.000831
328 -0.000614
329 -0.000427
330 -0.000004
331 0.000141
332 0.000237
333 0.000281
334 0.000159
335 -0.000024
336 -0.000055
337 -0.000316
338 -0.000232
339 -0.000097
340 -0.000026
341 0.000115
342 0.000311
343 0.000548
344 0.000733
345 0.000690
346 0.000697
347 0.000842
348 0.000887
349 0.000792
350 0.000787
351 0.000736
352 0.000519
353 0.000170
354 -0.000088
355 -0.000125
356 -0.000361
357 -0.000664
358 -0.000808
359 -0.000960
360 -0.000867
361 -0.000587
362 -0.000349
363 0.000007
364 0.000036
365 0.000037
366 -0.000064
367 -0.000052
368 -0.000259
369 -0.000494
370 -0.000457
371 -0.000660
372 -0.000739
373 -0.000815
374 -0.000707
375 -0.000759
376 -0.000666
377 -0.000832
378 -0.000976
379 -0.000867
380 -0.000577
381 -0.000487
382 -0.000425
383 -0.000583
384 -0.000633
385 -0.000901
386 -0.001141
387 -0.001512
388 -0.001539
389 -0.001423
390 -0.001479
391 -0.001576
392 -0.001774
393 -0.001716
394 -0.001750
395 -0.001823
396 -0.001665
397 -0.001574
398 -0.001321
399 -0.001102
400 -0.000862
401 -0.000607
402 -0.000324
403 -0.000361
404 -0.000356
405 -0.000349
406 -0.000451
407 -0.000476
408 -0.000507
409 -0.000451
410 -0.000603
411 -0.000587
412 -0.000429
413 -0.000450
414 -0.000867
415 -0.001103
416 -0.001247
417 -0.001273
418 -0.001274
419 -0.001366
420 -0.001228
421 -0.001044
422 -0.000986
423 -0.000900
424 -0.000811
425 -0.000442
426 -0.000344
427 -0.000327
428 -0.000181
429 0.000088
430 0.000416
431 0.000385
432 0.000493
433 0.000399
434 0.000484
435 0.000553
436 0.000535
437 0.000631
438 0.000611
439 0.000476
440 0.000428
441 0.000396
442 0.000162
443 0.000291
444 0.000384
445 0.000264
446 0.000272
447 0.000453
448 0.000550
449 0.000608
450 0.000395
451 0.000252
452 0.000079
453 0.000049
454 -0.000382
455 -0.000672
456 -0.000935
457 -0.001083
458 -0.001226
459 -0.001385
460 -0.001517
461 -0.001454
462 -0.001288
463 -0.001193
464 -0.001141
465 -0.000823
466 -0.000524
467 -0.000106
468 0.000037
469 0.000316
470 0.000383
471 0.000670
472 0.000628
473 0.000766
474 0.001075
475 0.001240
476 0.001255
477 0.001211
478 0.001177
479 0.001238
480 0.001220
481 0.001415
482 0.001408
483 0.001359
484 0.001314
485 0.001224
486 0.001233
487 0.001236
488 0.001078
489 0.000676
490 0.000405
491 0.000311
492 0.000146
493 0.000013
494 -0.000140
495 -0.000030
496 -0.000214
497 -0.000356
498 -0.000302
499 -0.000042
500 -0.000059
501 -0.000056
502 0.000012
503 -0.000001
504 -0.000219
505 -0.000265
506 -0.000026
507 -0.000058
508 -0.000212
509 -0.000287
510 -0.000448
511 -0.000532
512 -0.000637
513 -0.000682
514 -0.000820
515 -0.000826
516 -0.000681
517 -0.000541
518 -0.000355
519 0.000001
520 0.000182
521 0.000244
522 0.000346
523 0.000579
524 0.000513
525 0.000580
526 0.000521
527 0.000283
528 0.000093
529 -0.000130
530 -0.000375
531 -0.000435
532 -0.000688
533 -0.000836
534 -0.000928
535 -0.000851
536 -0.000607
537 -0.000382
538 -0.000319
539 -0.000223
540 -0.000092
541 0.000035
542 0.000138
543 0.000190
544 0.000319
545 0.000505
546 0.000412
547 0.000349
548 0.000289
549 0.000510
550 0.000670
551 0.000749
552 0.000905
553 0.001082
554 0.001102
555 0.001164
556 0.001161
557 0.001121
558 0.001134
559 0.001010
560 0.000880
561 0.000767
562 0.000800
563 0.000805
564 0.000732
565 0.000723
566 0.000802
567 0.001188
568 0.001317
569 0.001360
570 0.001348
571 0.001260
572 0.001200
573 0.000999
574 0.000565
575 0.000280
576 0.000126
577 0.000094
578 -0.000159
579 -0.000348
580 -0.000237
581 0.000017
582 0.000086
583 0.000044
584 0.000078
585 0.000153
586 0.000341
587 0.000357
588 0.000391
589 0.000365
590 0.000246
591 0.000205
592 0.000190
593 0.000227
594 0.000270
595 0.000212
596 0.000189
597 0.000100
598 0.000073
599 0.000268
600 0.000319
601 0.000426
602 0.000501
603 0.000274
604 0.000228
605 0.000403
606 0.000541
607 0.000644
608 0.000774
609 0.000728
610 0.000779
611 0.000522
612 0.000463
613 0.000514
614 0.000452
615 0.000216
616 0.000079
617 0.000033
618 -0.000050
619 0.000048
620 0.000043
621 -0.000008
622 -0.000187
623 -0.000269
624 -0.000388
625 -0.000534
626 -0.000521
627 -0.000487
628 -0.000553
629 -0.000555
630 -0.000627
631 -0.000835
632 -0.000887
633 -0.000995
634 -0.000960
635 -0.000981
636 -0.001048
637 -0.000936
638 -0.000772
639 -0.000715
640 -0.000552
641 -0.000342
642 -0.000199
643 -0.000091
644 -0.000032
645 -0.000092
646 -0.000190
647 -0.000456
648 -0.000753
649 -0.000964
650 -0.001073
651 -0.001174
652 -0.001192
653 -0.001283
654 -0.001161
655 -0.001068
656 -0.000989
657 -0.000931
658 -0.000988
659 -0.001007
660 -0.001173
661 -0.001240
662 -0.001166
663 -0.000963
664 -0.000596
665 -0.000296
666 0.000012
667 0.000156
668 0.000304
669 0.000441
670 0.000596
671 0.000634
672 0.000564
673 0.000484
674 0.000331
675 0.000198
676 0.000130
677 -0.000044
678 -0.000256
679 -0.000362
680 -0.000562
681 -0.000695
682 -0.000795
683 -0.000788
684 -0.000731
685 -0.000708
686 -0.000560
687 -0.000243
688 -0.000057
689 0.000065
690 0.000259
691 0.000407
692 0.000626
693 0.000638
694 0.000480
695 0.000434
696 0.000540
697 0.000612
698 0.000678
699 0.000707
700 0.000752
701 0.000904
702 0.001028
703 0.001066
704 0.001021
705 0.001078
706 0.001198
707 0.001189
708 0.001084
709 0.000995
710 0.000868
711 0.000767
712 0.000725
713 0.000715
714 0.000838
715 0.000846
716 0.000767
717 0.000718
718 0.000619
719 0.000512
720 0.000409
721 0.000228
722 0.000035
723 0.000014
724 -0.000058
725 -0.000145
726 -0.000122
727 0.000010
728 0.000193
729 0.000408
730 0.000608
731 0.000917
732 0.001083
733 0.001231
734 0.001370
735 0.001414
736 0.001344
737 0.001429
738 0.001443
739 0.001330
740 0.001199
741 0.001129
742 0.001035
743 0.000905
744 0.000748
745 0.000595
746 0.000386
747 0.000275
748 0.000156
749 0.000015
750 -0.000146
751 -0.000248
752 -0.000263
753 -0.000269
754 -0.000279
755 -0.000263
756 -0.000230
757 -0.000223
758 -0.000173
759 -0.000011
760 0.000196
761 0.000416
762 0.000500
763 0.000609
764 0.000802
765 0.001006
766 0.001120
767 0.001127
768 0.001132
769 0.001153
770 0.001148
771 0.001054
772 0.000969
773 0.000928
774 0.000946
775 0.001063
776 0.001043
777 0.001012
778 0.000943
779 0.000779
780 0.000582
781 0.000441
782 0.000382
783 0.000227
784 0.000102
785 -0.000004
786 -0.000067
787 -0.000065
788 -0.000105
789 -0.000081
790 -0.000178
791 -0.000126
792 -0.000093
793 -0.000035
794 -0.000087
795 -0.000144
796 -0.000177
797 -0.000136
798 -0.000152
799 -0.000158
800 -0.000220
801 -0.000270
802 -0.000244
803 -0.000233
804 -0.000148
805 -0.000113
806 -0.000020
807 0.000032
808 0.000145
809 0.000243
