# i correlation
1 0.015157
2 0.012589
3 0.010648
4 0.008709
5 0.007187
6 0.006007
7 0.005364
8 0.004890
9 0.004451
10 0.003970
11 0.003583
12 0.003179
13 0.002871
14 0.002758
15 0.002304
16 0.002034
17 0.001867
18 0.001660
19 0.001396
20 0.001031
21 0.000870
22 0.000763
23 0.000770
24 0.000891
25 0.000621
26 0.000506
27 0.000679
28 0.001004
29 0.001060
30 0.001194
31 0.001630
32 0.001691
33 0.001305
34 0.000970
35 0.000593
36 0.000194
37 -0.000236
38 -0.000743
39 -0.000922
40 -0.000986
41 -0.000942
42 -0.000997
43 -0.001034
44 -0.000993
45 -0.000600
46 -0.000417
47 -0.000130
48 -0.000131
49 -0.000222
50 -0.000218
51 -0.000355
52 -0.000228
53 0.000097
54 0.000278
55 0.000457
56 0.000583
57 0.000318
58 0.000297
59 0.000579
60 0.000909
61 0.001155
62 0.001557
63 0.001725
64 0.001557
65 0.001551
66 0.001396
67 0.001153
68 0.000658
69 0.000343
70 -0.000124
71 -0.000306
72 -0.000243
73 -0.000231
74 -0.000338
75 -0.000533
76 -0.000585
77 -0.000449
78 -0.000717
79 -0.000936
80 -0.001047
81 -0.001188
82 -0.001180
83 -0.000869
84 -0.000470
85 -0.000280
86 -0.000294
87 -0.000336
88 -0.000701
89 -0.001034
90 -0.000907
91 -0.000705
92 -0.000669
93 -0.000555
94 -0.000596
95 -0.000520
96 -0.000538
97 -0.000713
98 -0.000666
99 -0.000438
100 -0.000215
101 -0.000146
102 -0.000001
103 0.000086
104 0.000065
105 -0.000121
106 -0.000278
107 -0.000444
108 -0.000586
109 -0.000590
110 -0.000443
111 -0.000538
112 -0.000400
113 -0.000068
114 0.000412
115 0.000614
116 0.000755
117 0.000886
118 0.001209
119 0.001379
120 0.001498
121 0.001381
122 0.001202
123 0.001126
124 0.000809
125 0.000194
126 -0.000252
127 -0.000348
128 -0.000446
129 -0.000486
130 -0.000475
131 -0.000284
132 0.000021
133 0.000161
134 0.000103
135 -0.000219
136 -0.000711
137 -0.001010
138 -0.001268
139 -0.001635
140 -0.001814
141 -0.001980
142 -0.002158
143 -0.002054
144 -0.002012
145 -0.001521
146 -0.001151
147 -0.000801
148 -0.000392
149 -0.000353
150 -0.000341
151 -0.000127
152 -0.000155
153 -0.000189
154 -0.000053
155 -0.000097
156 -0.000152
157 -0.000267
158 -0.000448
159 -0.000191
160 -0.000160
161 -0.000014
162 0.000099
163 0.000211
164 0.000517
165 0.000842
166 0.001048
167 0.001039
168 0.001164
169 0.001027
170 0.000894
171 0.000606
172 0.000066
173 -0.000384
174 -0.000663
175 -0.000667
176 -0.000242
177 0.000286
178 0.000861
179 0.001466
180 0.001731
181 0.001667
182 0.001940
183 0.002055
184 0.001916
185 0.002092
186 0.002333
187 0.002433
188 0.002504
189 0.002310
190 0.002293
191 0.002191
192 0.002073
193 0.002247
194 0.002289
195 0.002219
196 0.002354
197 0.002318
198 0.002093
199 0.001705
200 0.001082
201 0.000506
202 -0.000033
203 -0.000784
204 -0.001266
205 -0.001655
206 -0.001889
207 -0.002071
208 -0.002334
209 -0.002571
210 -0.002444
211 -0.002219
212 -0.002283
213 -0.002226
214 -0.001993
215 -0.001794
216 -0.001663
217 -0.001417
218 -0.001213
219 -0.001189
220 -0.001151
221 -0.001069
222 -0.000933
223 -0.001003
224 -0.001042
225 -0.000749
226 -0.000853
227 -0.000987
228 -0.000858
229 -0.001137
230 -0.001217
231 -0.001338
232 -0.001403
233 -0.001279
234 -0.001409
235 -0.001447
236 -0.001607
237 -0.001647
238 -0.001604
239 -0.001557
240 -0.001710
241 -0.001827
242 -0.001650
243 -0.001525
244 -0.001473
245 -0.001444
246 -0.001119
247 -0.000877
248 -0.000698
249 -0.000318
250 -0.000284
251 -0.000007
252 0.000218
253 0.000408
254 0.000487
255 0.000394
256 -0.000074
257 -0.000475
258 -0.000647
259 -0.000796
260 -0.000974
261 -0.000766
262 -0.000429
263 -0.000408
264 -0.000510
265 -0.000511
266 -0.000460
267 -0.000359
268 -0.000565
269 -0.000719
270 -0.000580
271 -0.000646
272 -0.000632
273 -0.000639
274 -0.000567
275 -0.000289
276 -0.000134
277 -0.000001
278 0.000233
279 0.000433
280 0.000540
281 0.000665
282 0.000702
283 0.000823
284 0.000830
285 0.000630
286 0.000391
287 0.000099
288 -0.000183
289 -0.000223
290 -0.000284
291 -0.000576
292 -0.001074
293 -0.001321
294 -0.001309
295 -0.001361
296 -0.001299
297 -0.001029
298 -0.000544
299 -0.000253
300 -0.000217
301 -0.000214
302 -0.000025
303 -0.000052
304 -0.000120
305 -0.000086
306 -0.000047
307 0.000019
308 0.000110
309 0.000327
310 0.000317
311 0.000647
312 0.000933
313 0.000946
314 0.001008
315 0.000798
316 0.000627
317 0.000476
318 0.000148
319 -0.000111
320 -0.000056
321 -0.000011
322 -0.000180
323 -0.000396
324 -0.000620
325 -0.000598
326 -0.000689
327 -0.000661
328 -0.000497
329 -0.000142
330 0.000329
331 0.000722
332 0.000795
333 0.000901
334 0.001064
335 0.001232
336 0.001264
337 0.001353
338 0.001559
339 0.001807
340 0.001620
341 0.001490
342 0.001569
343 0.001459
344 0.001314
345 0.001336
346 0.001341
347 0.001365
348 0.001143
349 0.000916
350 0.000707
351 0.000412
352 0.000164
353 0.000252
354 0.000143
355 -0.000114
356 -0.000276
357 -0.000398
358 -0.000467
359 -0.000644
360 -0.000722
361 -0.000529
362 -0.000254
363 -0.000186
364 -0.000078
365 0.000017
366 -0.000132
367 -0.000297
368 -0.000537
369 -0.000700
370 -0.000584
371 -0.000544
372 -0.000551
373 -0.000401
374 -0.000055
375 0.000140
376 0.000245
377 0.000098
378 -0.000133
379 -0.000349
380 -0.000561
381 -0.000509
382 -0.000505
383 -0.000478
384 -0.000430
385 -0.000464
386 -0.000444
387 -0.000513
388 -0.000724
389 -0.000900
390 -0.001121
391 -0.001413
392 -0.001548
393 -0.001487
394 -0.001116
395 -0.001081
396 -0.001112
397 -0.001018
398 -0.001117
399 -0.001192
400 -0.001249
401 -0.001464
402 -0.001739
403 -0.001983
404 -0.002036
405 -0.002031
406 -0.002154
407 -0.001886
408 -0.001486
409 -0.001363
410 -0.001182
411 -0.000972
412 -0.000823
413 -0.000620
414 -0.000437
415 -0.000230
416 -0.000150
417 -0.000182
418 -0.000134
419 -0.000156
420 -0.000253
421 -0.000286
422 -0.000256
423 -0.000352
424 -0.000250
425 -0.000156
426 -0.000059
427 0.000041
428 0.000050
429 0.000169
430 0.000344
431 0.000464
432 0.000551
433 0.000439
434 0.000288
435 0.000058
436 -0.000020
437 0.000100
438 0.000155
439 0.000299
440 0.000389
441 0.000523
442 0.000698
443 0.000808
444 0.001078
445 0.001364
446 0.001445
447 0.001331
448 0.001268
449 0.001308
450 0.001097
451 0.000682
452 0.000384
453 0.000438
454 0.000468
455 0.000553
456 0.000603
457 0.000754
458 0.000865
459 0.000973
460 0.001281
461 0.001656
462 0.001952
463 0.001962
464 0.001760
465 0.001565
466 0.001596
467 0.001742
468 0.001736
469 0.001785
470 0.001900
471 0.001853
472 0.001695
473 0.001567
474 0.001497
475 0.001155
476 0.001067
477 0.001202
478 0.001238
479 0.001231
480 0.001240
481 0.001171
482 0.000921
483 0.000642
484 0.000677
485 0.000727
486 0.000821
487 0.000764
488 0.000603
489 0.000371
490 0.000222
491 0.000189
492 0.000206
493 0.000192
494 0.000240
495 0.000416
496 0.000418
497 0.000255
498 0.000321
499 0.000177
500 -0.000030
501 -0.000172
502 -0.000306
503 -0.000574
504 -0.000721
505 -0.000853
506 -0.001130
507 -0.001082
508 -0.000978
509 -0.000706
510 -0.000554
511 -0.000442
512 -0.000367
513 -0.000330
514 -0.000314
515 -0.000231
516 -0.000255
517 -0.000195
518 -0.000141
519 -0.000263
520 -0.000589
521 -0.000520
522 -0.000488
523 -0.000377
524 -0.000071
525 0.000007
526 0.000174
527 0.000483
528 0.000620
529 0.000710
530 0.000756
531 0.000918
532 0.001189
533 0.001504
534 0.001513
535 0.001422
536 0.001211
537 0.000876
538 0.000462
539 0.000134
540 -0.000020
541 -0.000319
542 -0.000431
543 -0.000664
544 -0.000814
545 -0.000780
546 -0.000884
547 -0.000869
548 -0.000749
549 -0.001087
550 -0.001455
551 -0.001581
552 -0.001571
553 -0.001466
554 -0.001533
555 -0.001549
556 -0.001573
557 -0.001652
558 -0.001559
559 -0.001486
560 -0.001212
561 -0.000821
562 -0.000666
563 -0.000412
564 -0.000139
565 -0.000011
566 0.000035
567 0.000064
568 -0.000137
569 -0.000355
570 -0.000623
571 -0.000830
572 -0.000896
573 -0.001017
574 -0.001027
575 -0.001097
576 -0.000989
577 -0.001041
578 -0.001023
579 -0.000892
580 -0.000647
581 -0.000612
582 -0.000655
583 -0.000744
584 -0.000751
585 -0.000857
586 -0.000857
587 -0.000824
588 -0.000706
589 -0.000613
590 -0.000519
591 -0.000560
592 -0.000636
593 -0.000454
594 -0.000482
595 -0.000432
596 -0.000441
597 -0.000601
598 -0.000541
599 -0.000707
600 -0.000746
601 -0.000743
602 -0.000806
603 -0.001094
604 -0.001245
605 -0.001486
606 -0.001742
607 -0.001658
608 -0.001355
609 -0.001188
610 -0.001013
611 -0.000857
612 -0.000729
613 -0.000721
614 -0.000713
615 -0.000770
616 -0.001039
617 -0.001086
618 -0.001135
619 -0.001148
620 -0.001246
621 -0.001323
622 -0.001288
623 -0.001281
624 -0.001269
625 -0.000989
626 -0.000798
627 -0.000582
628 -0.000375
629 -0.000177
630 -0.000209
631 -0.000326
632 -0.000126
633 0.000023
634 -0.000046
635 -0.000053
636 -0.000028
637 -0.000103
638 -0.000143
639 -0.000190
640 -0.000122
641 0.000099
642 0.000302
643 0.000670
644 0.000758
645 0.000811
646 0.000770
647 0.000686
648 0.000573
649 0.000513
650 0.000453
651 0.000415
652 0.000399
653 0.000423
654 0.000441
655 0.000474
656 0.000550
657 0.000508
658 0.000325
659 0.000149
660 0.000199
661 0.000063
662 0.000019
663 -0.000003
664 0.000052
665 0.000073
666 0.000142
667 0.000209
668 0.000144
669 -0.000039
670 -0.000243
671 -0.000389
672 -0.000536
673 -0.000705
674 -0.000680
675 -0.000557
676 -0.000558
677 -0.000472
678 -0.000307
679 -0.000314
680 -0.000261
681 -0.000147
682 -0.000074
683 -0.000064
684 0.000029
685 0.000091
686 0.000109
687 0.000063
688 0.000065
689 -0.000027
690 -0.000281
691 -0.000349
692 -0.000184
693 -0.000243
694 -0.000109
695 0.000141
696 0.000172
697 0.000112
698 0.000125
699 0.000154
700 0.000015
701 -0.000155
702 -0.000336
703 -0.000324
704 -0.000405
705 -0.000602
706 -0.000601
707 -0.000538
708 -0.000447
709 -0.000229
710 -0.000081
711 -0.000078
712 0.000059
713 0.000252
714 0.000247
715 0.000222
716 0.000233
717 0.000141
718 -0.000025
719 -0.000271
720 -0.000375
721 -0.000520
722 -0.000622
723 -0.000584
724 -0.000577
725 -0.000546
726 -0.000591
727 -0.000462
728 -0.000394
729 -0.000319
730 -0.000320
731 -0.000271
732 -0.000213
733 -0.000112
734 -0.000005
735 0.000020
736 -0.000054
737 -0.000131
738 -0.000278
739 -0.000457
740 -0.000629
741 -0.000698
742 -0.000775
743 -0.000830
744 -0.000690
745 -0.000488
746 -0.000257
747 0.000010
748 0.000252
749 0.000470
750 0.000482
751 0.000507
752 0.000427
753 0.000335
754 0.000203
755 0.000170
756 0.000254
757 0.000381
758 0.000529
759 0.000754
760 0.000882
761 0.001026
762 0.001107
763 0.001121
764 0.001096
765 0.001042
766 0.001064
767 0.000909
768 0.000826
769 0.000723
770 0.000657
771 0.000601
772 0.000570
773 0.000518
774 0.000436
775 0.000363
776 0.000364
777 0.000259
778 0.000271
779 0.000225
780 0.000264
781 0.000229
782 0.000122
783 0.000075
784 -0.000038
785 -0.000138
786 -0.000110
787 -0.000134
788 -0.000123
789 -0.000127
790 -0.000062
791 -0.000018
792 -0.000116
793 -0.000206
794 -0.000114
795 0.000004
796 0.000091
797 0.000229
798 0.000410
799 0.000549
800 0.000725
801 0.000788
802 0.000783
803 0.000747
804 0.000635
805 0.000555
806 0.000535
807 0.000569
808 0.000620
809 0.000738
