# i correlation
1 0.018893
2 0.016500
3 0.014160
4 0.012463
5 0.011038
6 0.009774
7 0.009081
8 0.008365
9 0.007528
10 0.006577
11 0.005865
12 0.005181
13 0.004251
14 0.003523
15 0.002314
16 0.001595
17 0.001103
18 0.000607
19 0.000553
20 0.000407
21 0.000546
22 0.000629
23 0.000329
24 0.000181
25 0.000210
26 0.000322
27 0.000088
28 -0.000277
29 -0.000510
30 -0.000882
31 -0.001186
32 -0.001087
33 -0.000841
34 -0.000601
35 -0.000589
36 -0.000610
37 -0.000940
38 -0.001090
39 -0.001318
40 -0.001490
41 -0.001367
42 -0.001201
43 -0.001135
44 -0.001222
45 -0.001061
46 -0.000842
47 -0.000688
48 -0.000124
49 0.000172
50 0.000459
51 0.000345
52 0.000745
53 0.000997
54 0.001263
55 0.001520
56 0.001738
57 0.002094
58 0.002025
59 0.002199
60 0.002219
61 0.002371
62 0.002446
63 0.002388
64 0.002176
65 0.001988
66 0.001952
67 0.001676
68 0.001528
69 0.001233
70 0.001136
71 0.001232
72 0.001169
73 0.001158
74 0.001504
75 0.001766
76 0.001786
77 0.001860
78 0.002252
79 0.002750
80 0.002948
81 0.003311
82 0.003887
83 0.004453
84 0.005065
85 0.005277
86 0.005376
87 0.005284
88 0.005176
89 0.004766
90 0.004344
91 0.004152
92 0.003954
93 0.003757
94 0.003325
95 0.003079
96 0.002886
97 0.002720
98 0.002652
99 0.002378
100 0.002268
101 0.002395
102 0.002612
103 0.002997
104 0.003425
105 0.004057
106 0.004279
107 0.004347
108 0.003922
109 0.003878
110 0.003991
111 0.003942
112 0.004052
113 0.003966
114 0.003939
115 0.003893
116 0.004070
117 0.004174
118 0.004204
119 0.004140
120 0.003972
121 0.003611
122 0.002930
123 0.002473
124 0.001660
125 0.000935
126 0.000284
127 0.000293
128 0.000020
129 -0.000412
130 -0.001188
131 -0.001533
132 -0.001934
133 -0.002229
134 -0.002478
135 -0.002737
136 -0.002888
137 -0.003063
138 -0.002516
139 -0.001849
140 -0.001339
141 -0.000824
142 -0.000493
143 -0.000198
144 0.000104
145 0.000451
146 0.000696
147 0.000916
148 0.001279
149 0.001699
150 0.002116
151 0.001993
152 0.002261
153 0.002488
154 0.002702
155 0.003064
156 0.003046
157 0.003039
158 0.003010
159 0.003147
160 0.003078
161 0.002980
162 0.003290
163 0.003659
164 0.003847
165 0.003806
166 0.003936
167 0.004045
168 0.004053
169 0.004029
170 0.004131
171 0.004277
172 0.004172
173 0.004244
174 0.004153
175 0.004016
176 0.003970
177 0.004089
178 0.003946
179 0.003784
180 0.003676
181 0.003367
182 0.002897
183 0.002280
184 0.002273
185 0.002262
186 0.002147
187 0.002216
188 0.002250
189 0.002118
190 0.001922
191 0.002183
192 0.002355
193 0.002493
194 0.002560
195 0.002612
196 0.002740
197 0.002685
198 0.002570
199 0.002614
200 0.002547
201 0.002438
202 0.002189
203 0.002111
204 0.001933
205 0.002048
206 0.002163
207 0.002346
208 0.002027
209 0.001738
210 0.001520
211 0.001089
212 0.000702
213 0.000415
214 0.000137
215 0.000075
216 -0.000178
217 -0.000264
218 -0.000364
219 -0.000438
220 -0.000621
221 -0.000524
222 -0.000490
223 -0.000394
224 -0.000303
225 -0.000178
226 0.000360
227 0.000552
228 0.000601
229 0.000822
230 0.000983
231 0.001016
232 0.001082
233 0.001275
234 0.001455
235 0.001326
236 0.001122
237 0.001135
238 0.000962
239 0.000854
240 0.000602
241 0.000530
242 0.000321
243 0.000245
244 0.000123
245 0.000012
246 -0.000149
247 -0.000165
248 0.000026
249 0.000222
250 0.000315
251 0.000343
252 0.000390
253 0.000330
254 0.000100
255 0.000163
256 0.000289
257 0.000269
258 0.000313
259 0.000667
260 0.001161
261 0.001445
262 0.001795
263 0.001778
264 0.001731
265 0.001678
266 0.001776
267 0.002151
268 0.002397
269 0.002748
270 0.002746
271 0.002767
272 0.002856
273 0.002960
274 0.002953
275 0.002949
276 0.003048
277 0.003142
278 0.003274
279 0.003128
280 0.002868
281 0.002767
282 0.002644
283 0.002604
284 0.002399
285 0.002358
286 0.002355
287 0.002245
288 0.001933
289 0.001779
290 0.001486
291 0.001535
292 0.001330
293 0.001232
294 0.001185
295 0.001088
296 0.000771
297 0.000671
298 0.000890
299 0.000823
300 0.000819
301 0.000705
302 0.000650
303 0.000675
304 0.000624
305 0.000874
306 0.000926
307 0.000986
308 0.001285
309 0.001433
310 0.001654
311 0.001984
312 0.002456
313 0.002563
314 0.002687
315 0.002746
316 0.002695
317 0.002619
318 0.002363
319 0.002327
320 0.002164
321 0.001677
322 0.001465
323 0.001055
324 0.000819
325 0.000716
326 0.000811
327 0.000780
328 0.000793
329 0.000550
330 0.000573
331 0.000360
332 0.000306
333 0.000300
334 0.000559
335 0.000736
336 0.001110
337 0.001491
338 0.001575
339 0.001390
340 0.001039
341 0.000861
342 0.000676
343 0.000584
344 0.000657
345 0.000528
346 0.000420
347 0.000562
348 0.000582
349 0.000545
350 0.000691
351 0.000851
352 0.000770
353 0.000823
354 0.001026
355 0.001261
356 0.001394
357 0.001369
358 0.001309
359 0.001613
360 0.002033
361 0.002373
362 0.002721
363 0.002633
364 0.002618
365 0.002405
366 0.002113
367 0.001725
368 0.001276
369 0.001276
370 0.001385
371 0.001742
372 0.001942
373 0.002257
374 0.002359
375 0.002144
376 0.002119
377 0.001888
378 0.001883
379 0.001827
380 0.001858
381 0.001765
382 0.001730
383 0.001907
384 0.002053
385 0.002111
386 0.001953
387 0.001876
388 0.001815
389 0.001901
390 0.001928
391 0.001932
392 0.001945
393 0.001989
394 0.002148
395 0.002283
396 0.002685
397 0.002884
398 0.002896
399 0.002810
400 0.002611
401 0.002255
402 0.002048
403 0.001868
404 0.001663
405 0.001333
406 0.001083
407 0.000770
408 0.000603
409 0.000369
410 0.000484
411 0.000350
412 0.000317
413 0.000161
414 0.000188
415 0.000140
416 0.000221
417 0.000417
418 0.000686
419 0.000748
420 0.000784
421 0.001005
422 0.001463
423 0.001668
424 0.001617
425 0.001622
426 0.001707
427 0.001682
428 0.001486
429 0.001523
430 0.001497
431 0.001450
432 0.001326
433 0.001107
434 0.000883
435 0.000661
436 0.000424
437 0.000215
438 0.000122
439 0.000190
440 0.000180
441 0.000135
442 0.000019
443 -0.000072
444 -0.000074
445 -0.000234
446 -0.000376
447 -0.000590
448 -0.000597
449 -0.000734
450 -0.000939
451 -0.001114
452 -0.001155
453 -0.000825
454 -0.000513
455 -0.000125
456 0.000218
457 0.000709
458 0.001135
459 0.001387
460 0.001628
461 0.001660
462 0.001539
463 0.001667
464 0.001551
465 0.001883
466 0.002005
467 0.002217
468 0.002444
469 0.002451
470 0.002511
471 0.002620
472 0.002579
473 0.002124
474 0.001887
475 0.001783
476 0.001717
477 0.001736
478 0.001855
479 0.002180
480 0.002449
481 0.002371
482 0.002587
483 0.002632
484 0.002528
485 0.002405
486 0.002365
487 0.002189
488 0.002063
489 0.001827
490 0.001588
491 0.001400
492 0.001252
493 0.001053
494 0.000799
495 0.000577
496 0.000423
497 0.000243
498 -0.000137
499 -0.000278
500 -0.000371
501 -0.000162
502 -0.000201
503 -0.000227
504 -0.000157
505 0.000042
506 0.000149
507 0.000156
508 0.000188
509 0.000278
510 0.000362
511 0.000568
512 0.000715
513 0.001032
514 0.001185
515 0.001242
516 0.001221
517 0.001189
518 0.001299
519 0.001296
520 0.001146
521 0.000961
522 0.000829
523 0.000709
524 0.000535
525 0.000280
526 0.000034
527 -0.000124
528 -0.000171
529 -0.000253
530 -0.000268
531 -0.000363
532 -0.000382
533 -0.000495
534 -0.000384
535 -0.000292
536 -0.000240
537 -0.000022
538 0.000191
539 0.000406
540 0.000622
541 0.000792
542 0.000945
543 0.001195
544 0.001373
545 0.001577
546 0.001812
547 0.001888
548 0.001806
549 0.001808
550 0.001677
551 0.001593
552 0.001289
553 0.001001
554 0.000875
555 0.000655
556 0.000478
557 0.000212
558 0.000120
559 -0.000012
560 -0.000058
561 -0.000198
562 -0.000353
563 -0.000313
564 -0.000451
565 -0.000420
566 -0.000358
567 -0.000103
568 0.000139
569 0.000294
570 0.000636
571 0.000846
572 0.001045
573 0.001171
574 0.001290
575 0.001459
576 0.001701
577 0.001953
578 0.001942
579 0.001922
580 0.001858
581 0.001905
582 0.001861
583 0.001592
584 0.001541
585 0.001374
586 0.001395
587 0.001321
588 0.001399
589 0.001433
590 0.001365
591 0.001172
592 0.000962
593 0.000785
594 0.000634
595 0.000461
596 0.000300
597 0.000301
598 0.000382
599 0.000464
600 0.000461
601 0.000332
602 0.000263
603 0.000212
604 -0.000068
605 -0.000437
606 -0.000706
607 -0.001030
608 -0.001324
609 -0.001456
610 -0.001611
611 -0.001799
612 -0.002159
613 -0.002399
614 -0.002636
615 -0.002658
616 -0.002789
617 -0.002832
618 -0.002820
619 -0.002867
620 -0.002862
621 -0.002769
622 -0.002519
623 -0.002287
624 -0.001903
625 -0.001577
626 -0.001256
627 -0.001107
628 -0.000938
629 -0.000627
630 -0.000384
631 -0.000079
632 0.000220
633 0.000610
634 0.000978
635 0.001332
636 0.001755
637 0.001860
638 0.001993
639 0.001979
640 0.001909
641 0.001772
642 0.001658
643 0.001490
644 0.001484
645 0.001548
646 0.001350
647 0.001194
648 0.001012
649 0.000859
650 0.000695
651 0.000665
652 0.000731
653 0.000716
654 0.000570
655 0.000457
656 0.000445
657 0.000425
658 0.000413
659 0.000373
660 0.000309
661 0.000213
662 0.000140
663 0.000157
664 0.000205
665 0.000269
666 0.000228
667 0.000188
668 0.000043
669 -0.000161
670 -0.000280
671 -0.000455
672 -0.000428
673 -0.000493
674 -0.000487
675 -0.000527
676 -0.000576
677 -0.000703
678 -0.000689
679 -0.000676
680 -0.000825
681 -0.000787
682 -0.000689
683 -0.000565
684 -0.000476
685 -0.000474
686 -0.000294
687 0.000002
688 0.000303
689 0.000633
690 0.000881
691 0.001054
692 0.001213
693 0.001341
694 0.001392
695 0.001460
696 0.001441
697 0.001597
698 0.001728
699 0.001839
700 0.001773
701 0.001724
702 0.001476
703 0.001140
704 0.000864
705 0.000704
706 0.000550
707 0.000518
708 0.000625
709 0.000691
710 0.000727
711 0.000402
712 0.000044
713 -0.000276
714 -0.000622
715 -0.000643
716 -0.000543
717 -0.000360
718 -0.000233
719 -0.000315
720 -0.000349
721 -0.000349
722 -0.000309
723 -0.000354
724 -0.000353
725 -0.000393
726 -0.000421
727 -0.000481
728 -0.000578
729 -0.000690
730 -0.000798
731 -0.000763
732 -0.000795
733 -0.000900
734 -0.000831
735 -0.000794
736 -0.000658
737 -0.000407
738 -0.000225
739 -0.000067
740 0.000136
741 0.000307
742 0.000388
743 0.000401
744 0.000438
745 0.000565
746 0.000618
747 0.000770
748 0.000924
749 0.001212
750 0.001367
751 0.001468
752 0.001458
753 0.001459
754 0.001404
755 0.001302
756 0.001226
757 0.001183
758 0.001143
759 0.000961
760 0.000764
761 0.000636
762 0.000436
763 0.000332
764 0.000153
765 -0.000057
766 -0.000284
767 -0.000551
768 -0.000759
769 -0.000935
770 -0.001054
771 -0.001067
772 -0.001092
773 -0.001032
774 -0.000961
775 -0.000869
776 -0.000832
777 -0.000788
778 -0.000837
779 -0.000793
780 -0.000696
781 -0.000677
782 -0.000668
783 -0.000603
784 -0.000633
785 -0.000626
786 -0.000691
787 -0.000633
788 -0.000551
789 -0.000544
790 -0.000592
791 -0.000555
792 -0.000619
793 -0.000542
794 -0.000418
795 -0.000367
796 -0.000284
797 -0.000186
798 -0.000230
799 -0.000192
800 -0.000158
801 -0.000019
802 0.000150
803 0.000286
804 0.000422
805 0.000494
806 0.000587
807 0.000562
808 0.000494
809 0.000405
