# i correlation
1 0.020457
2 0.017437
3 0.014696
4 0.012447
5 0.010684
6 0.008972
7 0.007177
8 0.005804
9 0.004375
10 0.003583
11 0.002885
12 0.002787
13 0.002411
14 0.002484
15 0.002402
16 0.002225
17 0.002258
18 0.002303
19 0.002208
20 0.002053
21 0.001646
22 0.001262
23 0.000572
24 -0.000090
25 -0.000329
26 -0.000259
27 0.000190
28 0.000257
29 0.000269
30 0.000350
31 0.000600
32 0.000856
33 0.000965
34 0.000860
35 0.001134
36 0.001294
37 0.001602
38 0.001704
39 0.001628
40 0.001612
41 0.001809
42 0.001723
43 0.001782
44 0.001586
45 0.001743
46 0.001823
47 0.002247
48 0.002340
49 0.002419
50 0.002180
51 0.001602
52 0.001288
53 0.000806
54 0.000272
55 -0.000101
56 -0.000623
57 -0.000908
58 -0.000916
59 -0.000814
60 -0.000781
61 -0.000604
62 -0.000291
63 -0.000181
64 0.000063
65 0.000069
66 0.000038
67 -0.000054
68 -0.000183
69 -0.000354
70 -0.000479
71 -0.000764
72 -0.000689
73 -0.000646
74 -0.000380
75 -0.000547
76 -0.000565
77 -0.000652
78 -0.000453
79 -0.000381
80 -0.000179
81 -0.000269
82 -0.000173
83 -0.000090
84 -0.000149
85 -0.000310
86 -0.000551
87 -0.001059
88 -0.001387
89 -0.001592
90 -0.001541
91 -0.001555
92 -0.001410
93 -0.001463
94 -0.001595
95 -0.001779
96 -0.001870
97 -0.001785
98 -0.001785
99 -0.001791
100 -0.001806
101 -0.001852
102 -0.002077
103 -0.002416
104 -0.002647
105 -0.002675
106 -0.002747
107 -0.002648
108 -0.002247
109 -0.001853
110 -0.001540
111 -0.001242
112 -0.001052
113 -0.000924
114 -0.000771
115 -0.000636
116 -0.000731
117 -0.000672
118 -0.000733
119 -0.000223
120 0.000339
121 0.000947
122 0.001260
123 0.001588
124 0.001920
125 0.002142
126 0.002465
127 0.002979
128 0.003416
129 0.003639
130 0.003583
131 0.003456
132 0.002957
133 0.002721
134 0.002378
135 0.001881
136 0.001432
137 0.000826
138 0.000441
139 0.000218
140 0.000221
141 0.000134
142 0.000227
143 -0.000200
144 -0.000733
145 -0.001037
146 -0.001152
147 -0.001170
148 -0.000980
149 -0.000943
150 -0.000784
151 -0.000457
152 -0.000125
153 -0.000193
154 -0.000244
155 -0.000408
156 -0.000570
157 -0.000498
158 -0.000398
159 -0.000619
160 -0.000637
161 -0.000750
162 -0.000824
163 -0.000616
164 -0.000672
165 -0.000702
166 -0.000573
167 -0.000650
168 -0.000400
169 -0.000124
170 0.000121
171 0.000623
172 0.001182
173 0.001498
174 0.001695
175 0.001923
176 0.002111
177 0.002227
178 0.002185
179 0.002199
180 0.002183
181 0.002006
182 0.001538
183 0.001249
184 0.000892
185 0.000797
186 0.000572
187 0.000088
188 -0.000348
189 -0.000581
190 -0.000663
191 -0.000542
192 -0.000418
193 0.000101
194 0.000421
195 0.000402
196 0.000070
197 -0.000025
198 0.000230
199 0.000375
200 0.000615
201 0.000670
202 0.000905
203 0.001526
204 0.001848
205 0.002350
206 0.002610
207 0.002945
208 0.002992
209 0.002984
210 0.003134
211 0.003379
212 0.003573
213 0.003784
214 0.003488
215 0.003209
216 0.002829
217 0.002622
218 0.002181
219 0.001752
220 0.001418
221 0.000861
222 0.000597
223 0.000497
224 0.000575
225 0.000829
226 0.000852
227 0.000702
228 0.000383
229 0.000087
230 0.000118
231 0.000055
232 -0.000047
233 -0.000057
234 0.000142
235 -0.000061
236 -0.000349
237 -0.000931
238 -0.001399
239 -0.001771
240 -0.002003
241 -0.002115
242 -0.002036
243 -0.001873
244 -0.001601
245 -0.001355
246 -0.000936
247 -0.000600
248 0.000121
249 0.000698
250 0.001376
251 0.001835
252 0.002310
253 0.002626
254 0.002662
255 0.002678
256 0.002426
257 0.002201
258 0.001962
259 0.001478
260 0.001144
261 0.001044
262 0.001241
263 0.001488
264 0.001618
265 0.001822
266 0.001860
267 0.001892
268 0.001606
269 0.001588
270 0.001677
271 0.002033
272 0.002591
273 0.002738
274 0.002467
275 0.001993
276 0.001636
277 0.001578
278 0.001586
279 0.001690
280 0.001661
281 0.001413
282 0.001053
283 0.000719
284 0.000441
285 0.000149
286 0.000026
287 -0.000054
288 -0.000344
289 -0.000464
290 -0.000708
291 -0.000867
292 -0.000883
293 -0.000898
294 -0.000876
295 -0.001201
296 -0.001594
297 -0.002073
298 -0.002380
299 -0.002214
300 -0.001885
301 -0.002006
302 -0.001896
303 -0.001835
304 -0.001837
305 -0.001861
306 -0.001970
307 -0.002376
308 -0.002551
309 -0.002601
310 -0.002369
311 -0.002339
312 -0.002490
313 -0.002670
314 -0.002422
315 -0.002410
316 -0.002576
317 -0.002834
318 -0.003174
319 -0.003323
320 -0.003363
321 -0.003161
322 -0.002810
323 -0.002578
324 -0.002357
325 -0.002297
326 -0.001812
327 -0.001305
328 -0.000847
329 -0.000576
330 -0.000608
331 -0.000593
332 -0.000688
333 -0.000588
334 -0.000348
335 -0.000470
336 -0.000507
337 -0.000530
338 -0.000671
339 -0.000994
340 -0.001250
341 -0.001267
342 -0.001164
343 -0.001256
344 -0.001643
345 -0.001591
346 -0.001493
347 -0.001294
348 -0.001332
349 -0.001710
350 -0.002259
351 -0.002562
352 -0.002824
353 -0.002681
354 -0.002668
355 -0.002381
356 -0.002090
357 -0.001694
358 -0.001401
359 -0.001119
360 -0.000927
361 -0.000712
362 -0.000406
363 -0.000138
364 0.000032
365 0.000036
366 -0.000269
367 -0.000676
368 -0.000995
369 -0.000900
370 -0.000741
371 -0.000876
372 -0.000658
373 -0.000297
374 0.000327
375 0.000900
376 0.001409
377 0.001823
378 0.002199
379 0.002608
380 0.002781
381 0.002747
382 0.002675
383 0.002572
384 0.002655
385 0.002660
386 0.002743
387 0.002551
388 0.002558
389 0.002208
390 0.001897
391 0.001924
392 0.002063
393 0.002067
394 0.002309
395 0.002389
396 0.002486
397 0.002463
398 0.002382
399 0.002166
400 0.002208
401 0.002171
402 0.002075
403 0.002068
404 0.002048
405 0.002057
406 0.002183
407 0.002186
408 0.002200
409 0.002277
410 0.002345
411 0.002572
412 0.002808
413 0.003015
414 0.003004
415 0.002835
416 0.002610
417 0.002375
418 0.001972
419 0.001798
420 0.001740
421 0.001694
422 0.001748
423 0.001897
424 0.002035
425 0.002059
426 0.001746
427 0.001657
428 0.001658
429 0.001704
430 0.001690
431 0.001647
432 0.001314
433 0.001079
434 0.000822
435 0.000631
436 0.000557
437 0.000381
438 0.000243
439 0.000206
440 0.000016
441 0.000051
442 0.000177
443 0.000438
444 0.000655
445 0.000821
446 0.000818
447 0.000733
448 0.000560
449 0.000512
450 0.000547
451 0.000671
452 0.000610
453 0.000462
454 0.000066
455 -0.000079
456 -0.000326
457 -0.000178
458 -0.000051
459 -0.000195
460 -0.000251
461 -0.000166
462 -0.000055
463 0.000260
464 0.000230
465 0.000342
466 0.000399
467 0.000367
468 0.000322
469 0.000246
470 0.000121
471 0.000005
472 -0.000077
473 -0.000170
474 -0.000156
475 -0.000191
476 -0.000223
477 -0.000102
478 0.000021
479 0.000023
480 0.000047
481 0.000048
482 0.000230
483 0.000563
484 0.000826
485 0.001071
486 0.001071
487 0.000912
488 0.000639
489 0.000537
490 0.000263
491 -0.000195
492 -0.000649
493 -0.001008
494 -0.001287
495 -0.001441
496 -0.001308
497 -0.001106
498 -0.000947
499 -0.000585
500 -0.000266
501 -0.000073
502 0.000075
503 0.000418
504 0.000816
505 0.001094
506 0.001136
507 0.001045
508 0.000977
509 0.000685
510 0.000490
511 0.000259
512 -0.000010
513 -0.000266
514 -0.000476
515 -0.000504
516 -0.000624
517 -0.000742
518 -0.001040
519 -0.001210
520 -0.001541
521 -0.001736
522 -0.001703
523 -0.001953
524 -0.002258
525 -0.002357
526 -0.002391
527 -0.002341
528 -0.002099
529 -0.002028
530 -0.002040
531 -0.002110
532 -0.002097
533 -0.001833
534 -0.001551
535 -0.001376
536 -0.001133
537 -0.000711
538 -0.000434
539 -0.000281
540 -0.000004
541 0.000245
542 0.000460
543 0.000553
544 0.000544
545 0.000666
546 0.000829
547 0.000904
548 0.000909
549 0.000869
550 0.000855
551 0.000982
552 0.000909
553 0.000881
554 0.000633
555 0.000469
556 0.000010
557 -0.000163
558 -0.000224
559 -0.000492
560 -0.000542
561 -0.000904
562 -0.001232
563 -0.001183
564 -0.001307
565 -0.001334
566 -0.001433
567 -0.001463
568 -0.001548
569 -0.001701
570 -0.001852
571 -0.001935
572 -0.001786
573 -0.001608
574 -0.001751
575 -0.001723
576 -0.001636
577 -0.001237
578 -0.000860
579 -0.000723
580 -0.000585
581 -0.000417
582 -0.000233
583 -0.000194
584 -0.000312
585 -0.000420
586 -0.000342
587 -0.000280
588 -0.000313
589 -0.000166
590 -0.000003
591 0.000226
592 0.000378
593 0.000564
594 0.000659
595 0.000772
596 0.000901
597 0.000903
598 0.000836
599 0.000741
600 0.000712
601 0.000512
602 0.000125
603 -0.000154
604 -0.000284
605 -0.000178
606 -0.000060
607 -0.000030
608 0.000025
609 0.000180
610 0.000358
611 0.000447
612 0.000532
613 0.000630
614 0.000641
615 0.000614
616 0.000478
617 0.000297
618 0.000322
619 0.000350
620 0.000405
621 0.000405
622 0.000347
623 0.000336
624 0.000383
625 0.000492
626 0.000493
627 0.000873
628 0.001039
629 0.001078
630 0.000923
631 0.000713
632 0.000493
633 0.000299
634 0.000126
635 0.000082
636 0.000242
637 0.000539
638 0.000835
639 0.001094
640 0.001146
641 0.001309
642 0.001537
643 0.001724
644 0.001648
645 0.001509
646 0.001319
647 0.001164
648 0.000999
649 0.000839
650 0.000670
651 0.000515
652 0.000324
653 0.000179
654 0.000026
655 0.000116
656 0.000332
657 0.000599
658 0.000893
659 0.001184
660 0.001354
661 0.001591
662 0.001839
663 0.001871
664 0.001914
665 0.001960
666 0.001828
667 0.001650
668 0.001704
669 0.001678
670 0.001740
671 0.001657
672 0.001576
673 0.001487
674 0.001537
675 0.001690
676 0.001856
677 0.001903
678 0.001824
679 0.001783
680 0.001801
681 0.001589
682 0.001405
683 0.001122
684 0.000855
685 0.000717
686 0.000603
687 0.000606
688 0.000769
689 0.000776
690 0.000838
691 0.000973
692 0.000963
693 0.000913
694 0.000803
695 0.000609
696 0.000359
697 0.000098
698 -0.000161
699 -0.000352
700 -0.000643
701 -0.000846
702 -0.000838
703 -0.000715
704 -0.000820
705 -0.000727
706 -0.000545
707 -0.000411
708 -0.000208
709 -0.000022
710 0.000214
711 0.000448
712 0.000427
713 0.000324
714 0.000232
715 0.000275
716 0.000196
717 0.000217
718 0.000178
719 0.000010
720 0.000055
721 0.000052
722 0.000103
723 0.000315
724 0.000433
725 0.000500
726 0.000484
727 0.000476
728 0.000394
729 0.000168
730 -0.000125
731 -0.000467
732 -0.000748
733 -0.000961
734 -0.001168
735 -0.001255
736 -0.001338
737 -0.001429
738 -0.001287
739 -0.001032
740 -0.000867
741 -0.000781
742 -0.000737
743 -0.000706
744 -0.000721
745 -0.000831
746 -0.000873
747 -0.000961
748 -0.001048
749 -0.000980
750 -0.000846
751 -0.000660
752 -0.000451
753 -0.000116
754 0.000291
755 0.000702
756 0.000986
757 0.001192
758 0.001435
759 0.001369
760 0.001252
761 0.001225
762 0.001070
763 0.000929
764 0.000719
765 0.000500
766 0.000358
767 0.000263
768 0.000145
769 0.000050
770 0.000103
771 0.000159
772 0.000226
773 0.000391
774 0.000382
775 0.000335
776 0.000499
777 0.000580
778 0.000564
779 0.000507
780 0.000425
781 0.000262
782 0.000035
783 -0.000105
784 -0.000084
785 -0.000023
786 -0.000005
787 0.000057
788 0.000274
789 0.000556
790 0.000869
791 0.001225
792 0.001550
793 0.001802
794 0.001896
795 0.001871
796 0.001775
797 0.001486
798 0.001206
799 0.001090
800 0.001039
801 0.000990
802 0.000851
803 0.000842
804 0.000998
805 0.001179
806 0.001360
807 0.001520
808 0.001641
809 0.001597
