# i correlation
1 0.019813
2 0.017286
3 0.014821
4 0.012797
5 0.011250
6 0.009865
7 0.008763
8 0.007737
9 0.006678
10 0.005643
11 0.004962
12 0.004380
13 0.003657
14 0.003557
15 0.003239
16 0.003041
17 0.003083
18 0.002846
19 0.003052
20 0.002986
21 0.003111
22 0.003410
23 0.003824
24 0.003959
25 0.003762
26 0.003685
27 0.003468
28 0.003194
29 0.002764
30 0.002280
31 0.001795
32 0.001559
33 0.001495
34 0.001332
35 0.000885
36 0.000339
37 0.000164
38 0.000187
39 0.000307
40 0.000513
41 0.000872
42 0.001291
43 0.001321
44 0.001224
45 0.001381
46 0.001889
47 0.002157
48 0.002692
49 0.003140
50 0.003677
51 0.004049
52 0.004341
53 0.004324
54 0.003881
55 0.003624
56 0.003153
57 0.002833
58 0.002595
59 0.002436
60 0.002664
61 0.002838
62 0.003330
63 0.003553
64 0.003675
65 0.004048
66 0.004186
67 0.004323
68 0.004310
69 0.004592
70 0.004447
71 0.004136
72 0.003687
73 0.003192
74 0.003054
75 0.003021
76 0.003002
77 0.002865
78 0.002627
79 0.002154
80 0.001762
81 0.001116
82 0.000347
83 -0.000330
84 -0.001064
85 -0.001468
86 -0.001801
87 -0.001977
88 -0.001981
89 -0.001897
90 -0.001722
91 -0.001365
92 -0.000838
93 -0.000590
94 -0.000440
95 -0.000100
96 -0.000279
97 -0.000134
98 -0.000298
99 -0.000292
100 -0.000307
101 0.000190
102 0.000788
103 0.001334
104 0.001908
105 0.001845
106 0.001696
107 0.001449
108 0.001187
109 0.000894
110 0.000600
111 0.000448
112 0.000596
113 0.000621
114 0.000695
115 0.001005
116 0.001477
117 0.002125
118 0.002476
119 0.002453
120 0.002425
121 0.002220
122 0.002301
123 0.002460
124 0.002631
125 0.002651
126 0.002748
127 0.002702
128 0.002805
129 0.002877
130 0.002901
131 0.002970
132 0.002712
133 0.002046
134 0.001807
135 0.001652
136 0.001745
137 0.001679
138 0.001641
139 0.001685
140 0.001677
141 0.001797
142 0.001860
143 0.002206
144 0.002312
145 0.002697
146 0.002756
147 0.002867
148 0.002785
149 0.002426
150 0.002294
151 0.001731
152 0.001275
153 0.000966
154 0.000737
155 0.000599
156 0.000272
157 0.000044
158 -0.000077
159 -0.000116
160 -0.000244
161 -0.000419
162 -0.000310
163 -0.000245
164 0.000032
165 0.000394
166 0.000870
167 0.001566
168 0.002186
169 0.002902
170 0.003413
171 0.003867
172 0.004117
173 0.004453
174 0.004449
175 0.004146
176 0.004081
177 0.004050
178 0.004318
179 0.004406
180 0.004580
181 0.004410
182 0.004274
183 0.004069
184 0.003799
185 0.003657
186 0.003668
187 0.003681
188 0.003514
189 0.003395
190 0.003174
191 0.003029
192 0.003273
193 0.003513
194 0.003968
195 0.004592
196 0.005246
197 0.005782
198 0.005661
199 0.005605
200 0.005559
201 0.005517
202 0.004976
203 0.004191
204 0.003388
205 0.002734
206 0.002164
207 0.001741
208 0.001537
209 0.001437
210 0.001377
211 0.001152
212 0.000981
213 0.000897
214 0.000514
215 0.000334
216 0.000247
217 0.000273
218 0.000068
219 0.000223
220 0.000339
221 0.000638
222 0.000488
223 0.000685
224 0.000924
225 0.001115
226 0.001043
227 0.001055
228 0.001164
229 0.001322
230 0.001281
231 0.001474
232 0.001475
233 0.001817
234 0.001966
235 0.002425
236 0.002758
237 0.002865
238 0.003019
239 0.002920
240 0.002713
241 0.002117
242 0.001961
243 0.001571
244 0.001289
245 0.001191
246 0.000776
247 0.000687
248 0.000676
249 0.000743
250 0.000535
251 0.000336
252 0.000242
253 0.000130
254 0.000274
255 0.000076
256 -0.000079
257 0.000025
258 0.000040
259 0.000261
260 0.000392
261 0.000608
262 0.000905
263 0.001110
264 0.001204
265 0.001339
266 0.001421
267 0.001327
268 0.001108
269 0.000793
270 0.000597
271 0.000687
272 0.000669
273 0.000617
274 0.000246
275 0.000050
276 -0.000445
277 -0.000590
278 -0.000729
279 -0.000838
280 -0.001150
281 -0.001243
282 -0.001263
283 -0.001293
284 -0.001353
285 -0.001328
286 -0.000934
287 -0.000644
288 -0.000194
289 -0.000076
290 0.000353
291 0.000615
292 0.000714
293 0.000629
294 0.000411
295 0.000127
296 -0.000183
297 -0.000349
298 -0.000317
299 -0.000254
300 -0.000184
301 -0.000169
302 0.000003
303 -0.000022
304 0.000041
305 0.000240
306 0.000130
307 -0.000081
308 -0.000647
309 -0.001086
310 -0.001426
311 -0.001511
312 -0.001385
313 -0.001076
314 -0.000657
315 -0.000602
316 -0.000349
317 -0.000229
318 -0.000453
319 -0.000573
320 -0.000659
321 -0.000656
322 -0.000723
323 -0.000792
324 -0.000814
325 -0.000714
326 -0.000964
327 -0.001090
328 -0.000881
329 -0.000990
330 -0.001108
331 -0.001071
332 -0.001033
333 -0.000808
334 -0.000896
335 -0.001096
336 -0.001046
337 -0.000833
338 -0.000748
339 -0.000416
340 0.000089
341 0.000722
342 0.001163
343 0.001439
344 0.001732
345 0.001837
346 0.001828
347 0.001720
348 0.001615
349 0.001202
350 0.000761
351 0.000646
352 0.000578
353 0.000468
354 0.000424
355 0.000611
356 0.000547
357 0.000385
358 0.000147
359 -0.000029
360 0.000046
361 0.000011
362 0.000329
363 0.000611
364 0.001023
365 0.001444
366 0.002011
367 0.002489
368 0.002851
369 0.003009
370 0.003145
371 0.003272
372 0.003162
373 0.003008
374 0.003002
375 0.002862
376 0.002779
377 0.002556
378 0.002238
379 0.002064
380 0.001774
381 0.001620
382 0.001507
383 0.001663
384 0.001412
385 0.001158
386 0.000873
387 0.000476
388 0.000150
389 0.000133
390 0.000359
391 0.000498
392 0.000607
393 0.000844
394 0.001323
395 0.001563
396 0.001799
397 0.001850
398 0.001742
399 0.001369
400 0.001058
401 0.000532
402 0.000224
403 0.000050
404 -0.000071
405 -0.000238
406 -0.000272
407 -0.000185
408 0.000085
409 0.000549
410 0.000840
411 0.001094
412 0.001200
413 0.001138
414 0.001159
415 0.001340
416 0.001424
417 0.001528
418 0.001802
419 0.001649
420 0.001736
421 0.001543
422 0.001428
423 0.001455
424 0.001376
425 0.001391
426 0.001509
427 0.001260
428 0.001202
429 0.001344
430 0.001371
431 0.001330
432 0.001396
433 0.001355
434 0.001593
435 0.001911
436 0.002191
437 0.002474
438 0.002655
439 0.002639
440 0.002905
441 0.002923
442 0.003032
443 0.002989
444 0.002813
445 0.002701
446 0.002809
447 0.002523
448 0.002295
449 0.002153
450 0.001852
451 0.001601
452 0.001300
453 0.000902
454 0.000330
455 -0.000088
456 -0.000459
457 -0.000651
458 -0.000656
459 -0.000256
460 -0.000071
461 0.000173
462 0.000378
463 0.000508
464 0.000600
465 0.000774
466 0.001036
467 0.001032
468 0.001140
469 0.001281
470 0.001559
471 0.001642
472 0.001637
473 0.001645
474 0.001653
475 0.001740
476 0.001505
477 0.001180
478 0.000812
479 0.000332
480 0.000048
481 -0.000236
482 -0.000406
483 -0.000311
484 -0.000142
485 -0.000002
486 0.000089
487 0.000221
488 0.000451
489 0.000554
490 0.000659
491 0.000921
492 0.001254
493 0.001315
494 0.001447
495 0.001258
496 0.001204
497 0.000929
498 0.000892
499 0.000913
500 0.000788
501 0.000749
502 0.000592
503 0.000492
504 0.000331
505 0.000100
506 0.000035
507 0.000086
508 0.000295
509 0.000284
510 0.000240
511 0.000391
512 0.000345
513 0.000411
514 0.000329
515 0.000478
516 0.000479
517 0.000631
518 0.000696
519 0.000630
520 0.000614
521 0.000813
522 0.000995
523 0.000924
524 0.000696
525 0.000588
526 0.000618
527 0.000608
528 0.000685
529 0.000580
530 0.000483
531 0.000198
532 0.000105
533 0.000099
534 0.000132
535 0.000115
536 -0.000027
537 -0.000026
538 0.000230
539 0.000466
540 0.000795
541 0.001199
542 0.001419
543 0.001524
544 0.001650
545 0.001741
546 0.001874
547 0.001721
548 0.001479
549 0.001213
550 0.001000
551 0.000894
552 0.000975
553 0.000905
554 0.001088
555 0.001061
556 0.001164
557 0.001301
558 0.001253
559 0.001193
560 0.001290
561 0.001632
562 0.001950
563 0.002470
564 0.002776
565 0.003087
566 0.003032
567 0.002868
568 0.002968
569 0.003076
570 0.003122
571 0.003077
572 0.002866
573 0.002663
574 0.002399
575 0.002164
576 0.002160
577 0.002038
578 0.002155
579 0.002245
580 0.002187
581 0.002034
582 0.001792
583 0.001572
584 0.001317
585 0.001257
586 0.001187
587 0.001149
588 0.001289
589 0.001187
590 0.001197
591 0.001384
592 0.001448
593 0.001646
594 0.001796
595 0.001784
596 0.001648
597 0.001526
598 0.001414
599 0.001326
600 0.001289
601 0.001090
602 0.001013
603 0.000999
604 0.000936
605 0.000934
606 0.000908
607 0.000979
608 0.001116
609 0.001414
610 0.001841
611 0.002181
612 0.002501
613 0.002662
614 0.002833
615 0.003008
616 0.003270
617 0.003234
618 0.003195
619 0.003104
620 0.002935
621 0.002847
622 0.002712
623 0.002563
624 0.002345
625 0.002103
626 0.002009
627 0.002037
628 0.002066
629 0.002101
630 0.002104
631 0.002129
632 0.002106
633 0.002173
634 0.002142
635 0.002307
636 0.002330
637 0.002387
638 0.002485
639 0.002637
640 0.002513
641 0.002268
642 0.002077
643 0.002079
644 0.001929
645 0.001796
646 0.001625
647 0.001581
648 0.001440
649 0.001266
650 0.000987
651 0.000759
652 0.000364
653 -0.000004
654 -0.000283
655 -0.000434
656 -0.000365
657 -0.000162
658 0.000103
659 0.000161
660 0.000246
661 0.000395
662 0.000523
663 0.000657
664 0.000745
665 0.000907
666 0.000944
667 0.000890
668 0.000835
669 0.000854
670 0.000917
671 0.000968
672 0.001080
673 0.001163
674 0.001041
675 0.000903
676 0.000686
677 0.000689
678 0.000664
679 0.000610
680 0.000694
681 0.000612
682 0.000647
683 0.000717
684 0.000660
685 0.000640
686 0.000482
687 0.000349
688 0.000350
689 0.000286
690 0.000285
691 0.000345
692 0.000233
693 0.000277
694 0.000299
695 0.000343
696 0.000281
697 0.000229
698 0.000104
699 0.000024
700 0.000090
701 0.000058
702 0.000069
703 -0.000023
704 -0.000011
705 -0.000104
706 -0.000131
707 0.000045
708 0.000330
709 0.000465
710 0.000717
711 0.000923
712 0.001028
713 0.001082
714 0.000984
715 0.000911
716 0.000851
717 0.000951
718 0.001035
719 0.001042
720 0.000834
721 0.000611
722 0.000422
723 0.000292
724 0.000289
725 0.000364
726 0.000282
727 0.000274
728 0.000361
729 0.000433
730 0.000532
731 0.000530
732 0.000516
733 0.000537
734 0.000725
735 0.000887
736 0.000955
737 0.000938
738 0.000940
739 0.000886
740 0.001032
741 0.001268
742 0.001563
743 0.001748
744 0.001702
745 0.001583
746 0.001442
747 0.001310
748 0.001202
749 0.001111
750 0.001055
751 0.001019
752 0.000973
753 0.001025
754 0.000913
755 0.000801
756 0.000685
757 0.000659
758 0.000764
759 0.000930
760 0.001061
761 0.001107
762 0.001186
763 0.001170
764 0.001119
765 0.001135
766 0.001111
767 0.001028
768 0.000855
769 0.000680
770 0.000502
771 0.000371
772 0.000162
773 0.000035
774 0.000036
775 0.000056
776 0.000065
777 0.000147
778 0.000137
779 0.000126
780 0.000182
781 0.000194
782 0.000314
783 0.000374
784 0.000275
785 0.000154
786 0.000087
787 0.000062
788 0.000131
789 0.000238
790 0.000402
791 0.000400
792 0.000405
793 0.000359
794 0.000425
795 0.000501
796 0.000540
797 0.000517
798 0.000449
799 0.000419
800 0.000412
801 0.000397
802 0.000323
803 0.000262
804 0.000203
805 0.000272
806 0.000336
807 0.000501
808 0.000602
809 0.000702
