# i correlation
1 0.017984
2 0.015132
3 0.013257
4 0.011500
5 0.009867
6 0.008550
7 0.007255
8 0.006091
9 0.005397
10 0.005137
11 0.004859
12 0.004743
13 0.004822
14 0.004658
15 0.004828
16 0.004957
17 0.005078
18 0.004971
19 0.004778
20 0.004606
21 0.004488
22 0.004307
23 0.004352
24 0.004157
25 0.004098
26 0.003711
27 0.003421
28 0.002943
29 0.002584
30 0.002316
31 0.001595
32 0.001013
33 0.000520
34 0.000210
35 0.000209
36 0.000403
37 0.000629
38 0.000756
39 0.000809
40 0.000956
41 0.001322
42 0.001363
43 0.001026
44 0.000905
45 0.000766
46 0.000435
47 0.000056
48 -0.000457
49 -0.000867
50 -0.000820
51 -0.000633
52 -0.000436
53 -0.000357
54 -0.000259
55 0.000006
56 0.000128
57 0.000395
58 0.000438
59 0.000533
60 0.000364
61 0.000242
62 0.000440
63 0.000528
64 0.000556
65 0.000751
66 0.001002
67 0.001740
68 0.002299
69 0.002359
70 0.002367
71 0.002510
72 0.002400
73 0.002305
74 0.002440
75 0.002346
76 0.002041
77 0.001842
78 0.001673
79 0.001594
80 0.001315
81 0.000907
82 0.000575
83 0.000079
84 -0.000276
85 -0.000391
86 -0.000742
87 -0.000800
88 -0.000469
89 -0.000018
90 0.000438
91 0.000733
92 0.001358
93 0.001538
94 0.001355
95 0.001416
96 0.001562
97 0.001949
98 0.002162
99 0.002025
100 0.002013
101 0.001647
102 0.001105
103 0.000624
104 0.000111
105 0.000047
106 -0.000411
107 -0.001071
108 -0.001621
109 -0.001879
110 -0.002268
111 -0.002263
112 -0.002358
113 -0.002596
114 -0.002448
115 -0.001896
116 -0.001438
117 -0.001169
118 -0.000719
119 -0.000745
120 -0.000842
121 -0.001062
122 -0.001179
123 -0.001320
124 -0.001381
125 -0.001500
126 -0.001786
127 -0.002018
128 -0.002082
129 -0.002064
130 -0.002248
131 -0.002538
132 -0.002860
133 -0.002785
134 -0.002385
135 -0.001910
136 -0.001383
137 -0.001129
138 -0.000974
139 -0.000863
140 -0.001181
141 -0.001111
142 -0.000789
143 -0.000802
144 -0.000817
145 -0.000846
146 -0.001109
147 -0.001134
148 -0.001124
149 -0.001240
150 -0.001211
151 -0.001252
152 -0.001279
153 -0.000910
154 -0.000547
155 -0.000241
156 0.000265
157 0.001047
158 0.001328
159 0.001600
160 0.001925
161 0.001977
162 0.001884
163 0.001587
164 0.001353
165 0.001134
166 0.001212
167 0.001242
168 0.001318
169 0.001282
170 0.001345
171 0.001198
172 0.001420
173 0.001405
174 0.001069
175 0.000802
176 0.000526
177 0.000481
178 0.000498
179 0.000475
180 0.000117
181 -0.000048
182 0.000261
183 0.000516
184 0.000322
185 0.000167
186 0.000100
187 -0.000052
188 -0.000387
189 -0.000461
190 -0.000523
191 -0.000627
192 -0.000548
193 -0.000387
194 -0.000353
195 -0.000286
196 -0.000057
197 -0.000050
198 -0.000140
199 -0.000514
200 -0.001134
201 -0.001300
202 -0.001402
203 -0.001623
204 -0.001937
205 -0.002318
206 -0.002824
207 -0.002965
208 -0.003054
209 -0.002983
210 -0.002831
211 -0.002701
212 -0.002462
213 -0.002315
214 -0.002025
215 -0.001983
216 -0.001878
217 -0.001712
218 -0.001653
219 -0.001322
220 -0.000960
221 -0.000855
222 -0.000729
223 -0.000336
224 0.000183
225 0.000376
226 0.000505
227 0.000594
228 0.000652
229 0.000705
230 0.000586
231 0.000165
232 -0.000127
233 -0.000266
234 -0.000205
235 0.000064
236 0.000364
237 0.000512
238 0.000650
239 0.001031
240 0.001382
241 0.001711
242 0.001902
243 0.002122
244 0.002104
245 0.001969
246 0.001989
247 0.001997
248 0.001854
249 0.001800
250 0.001879
251 0.001989
252 0.002193
253 0.002368
254 0.002622
255 0.002574
256 0.002686
257 0.002645
258 0.002505
259 0.002374
260 0.002393
261 0.002379
262 0.002443
263 0.002292
264 0.002376
265 0.002281
266 0.002541
267 0.002835
268 0.002790
269 0.002573
270 0.002594
271 0.002748
272 0.002669
273 0.002537
274 0.002117
275 0.001945
276 0.001736
277 0.001615
278 0.001413
279 0.001306
280 0.000905
281 0.000681
282 0.000768
283 0.000885
284 0.001249
285 0.001605
286 0.002025
287 0.002124
288 0.002250
289 0.002290
290 0.002265
291 0.002345
292 0.002288
293 0.002279
294 0.002285
295 0.002299
296 0.002329
297 0.002324
298 0.002200
299 0.001897
300 0.001616
301 0.001529
302 0.001680
303 0.001776
304 0.001727
305 0.001194
306 0.000752
307 0.000710
308 0.000462
309 0.000399
310 0.000446
311 0.000524
312 0.000994
313 0.001515
314 0.002124
315 0.002412
316 0.002483
317 0.002528
318 0.002425
319 0.002496
320 0.002519
321 0.002509
322 0.002389
323 0.002255
324 0.001872
325 0.001805
326 0.001841
327 0.001859
328 0.001897
329 0.001893
330 0.001709
331 0.001648
332 0.001554
333 0.001280
334 0.000997
335 0.000886
336 0.000591
337 0.000392
338 0.000157
339 0.000093
340 0.000156
341 0.000590
342 0.000638
343 0.000459
344 0.000365
345 0.000178
346 -0.000124
347 -0.000326
348 -0.000428
349 -0.000644
350 -0.001042
351 -0.001550
352 -0.001824
353 -0.001906
354 -0.001976
355 -0.001982
356 -0.002097
357 -0.002347
358 -0.002272
359 -0.002111
360 -0.001938
361 -0.001670
362 -0.001393
363 -0.001251
364 -0.001139
365 -0.001008
366 -0.000844
367 -0.000695
368 -0.000452
369 -0.000288
370 -0.000581
371 -0.000788
372 -0.001070
373 -0.001414
374 -0.001725
375 -0.002198
376 -0.002643
377 -0.002727
378 -0.002554
379 -0.002438
380 -0.002256
381 -0.002079
382 -0.001649
383 -0.001265
384 -0.000828
385 -0.000431
386 -0.000180
387 -0.000028
388 -0.000123
389 -0.000215
390 -0.000290
391 -0.000238
392 -0.000308
393 -0.000441
394 -0.000594
395 -0.000729
396 -0.001008
397 -0.001342
398 -0.001761
399 -0.002078
400 -0.002158
401 -0.002513
402 -0.002736
403 -0.002991
404 -0.002738
405 -0.002399
406 -0.002097
407 -0.001783
408 -0.001602
409 -0.001403
410 -0.001156
411 -0.001113
412 -0.001115
413 -0.001086
414 -0.001190
415 -0.001195
416 -0.001296
417 -0.001549
418 -0.001641
419 -0.001622
420 -0.001361
421 -0.000909
422 -0.000582
423 -0.000560
424 -0.000483
425 -0.000425
426 -0.000563
427 -0.000708
428 -0.000817
429 -0.000996
430 -0.001027
431 -0.001150
432 -0.001141
433 -0.001201
434 -0.001298
435 -0.001483
436 -0.001521
437 -0.001323
438 -0.001065
439 -0.000700
440 -0.000320
441 -0.000259
442 -0.000267
443 -0.000405
444 -0.000732
445 -0.000669
446 -0.000576
447 -0.000725
448 -0.001002
449 -0.001140
450 -0.001104
451 -0.001094
452 -0.001046
453 -0.000923
454 -0.000945
455 -0.001100
456 -0.001130
457 -0.000818
458 -0.000519
459 -0.000364
460 -0.000137
461 0.000040
462 0.000131
463 0.000232
464 0.000225
465 0.000115
466 -0.000080
467 -0.000272
468 -0.000561
469 -0.000788
470 -0.000980
471 -0.001355
472 -0.001580
473 -0.001776
474 -0.001915
475 -0.001867
476 -0.001765
477 -0.001859
478 -0.002023
479 -0.001830
480 -0.001488
481 -0.001395
482 -0.001193
483 -0.000953
484 -0.000594
485 -0.000242
486 0.000056
487 0.000277
488 0.000112
489 0.000253
490 0.000057
491 -0.000254
492 -0.000337
493 -0.000840
494 -0.001452
495 -0.001529
496 -0.001459
497 -0.001287
498 -0.001171
499 -0.001033
500 -0.001039
501 -0.001242
502 -0.001261
503 -0.001410
504 -0.001673
505 -0.001722
506 -0.001823
507 -0.001821
508 -0.001854
509 -0.001844
510 -0.001725
511 -0.001662
512 -0.001671
513 -0.001585
514 -0.001421
515 -0.001510
516 -0.001531
517 -0.001621
518 -0.001779
519 -0.001950
520 -0.001912
521 -0.001923
522 -0.001847
523 -0.001896
524 -0.001691
525 -0.001432
526 -0.001235
527 -0.000889
528 -0.000767
529 -0.000600
530 -0.000322
531 -0.000115
532 -0.000343
533 -0.000682
534 -0.000924
535 -0.001210
536 -0.001587
537 -0.001597
538 -0.001556
539 -0.001422
540 -0.001311
541 -0.001186
542 -0.000862
543 -0.000395
544 -0.000194
545 -0.000237
546 -0.000203
547 -0.000232
548 -0.000325
549 -0.000478
550 -0.000435
551 -0.000348
552 -0.000206
553 -0.000257
554 0.000010
555 0.000532
556 0.000862
557 0.001257
558 0.001597
559 0.001762
560 0.001846
561 0.001812
562 0.001581
563 0.001403
564 0.001357
565 0.001353
566 0.001237
567 0.001158
568 0.001223
569 0.001246
570 0.001046
571 0.000714
572 0.000472
573 0.000170
574 -0.000124
575 -0.000328
576 -0.000391
577 -0.000443
578 -0.000505
579 -0.000396
580 -0.000275
581 -0.000013
582 0.000353
583 0.000599
584 0.000767
585 0.000764
586 0.000518
587 0.000540
588 0.000546
589 0.000585
590 0.000410
591 0.000182
592 0.000083
593 -0.000046
594 -0.000193
595 -0.000290
596 -0.000425
597 -0.000439
598 -0.000201
599 -0.000027
600 -0.000001
601 -0.000177
602 -0.000237
603 -0.000339
604 -0.000469
605 -0.000473
606 -0.000657
607 -0.000711
608 -0.000581
609 -0.000480
610 -0.000281
611 -0.000018
612 0.000157
613 0.000180
614 0.000411
615 0.000522
616 0.000387
617 0.000412
618 0.000393
619 0.000381
620 0.000330
621 0.000345
622 0.000317
623 0.000366
624 0.000424
625 0.000504
626 0.000631
627 0.000702
628 0.000802
629 0.000793
630 0.000885
631 0.000872
632 0.000900
633 0.000866
634 0.001084
635 0.001421
636 0.001610
637 0.001587
638 0.001414
639 0.001341
640 0.001247
641 0.000960
642 0.000594
643 0.000310
644 0.000186
645 -0.000072
646 -0.000261
647 -0.000375
648 -0.000443
649 -0.000338
650 -0.000399
651 -0.000389
652 -0.000243
653 -0.000308
654 -0.000454
655 -0.000265
656 -0.000146
657 -0.000130
658 -0.000058
659 0.000011
660 -0.000088
661 -0.000278
662 -0.000353
663 -0.000609
664 -0.000795
665 -0.000971
666 -0.001046
667 -0.001260
668 -0.001326
669 -0.001355
670 -0.001517
671 -0.001682
672 -0.001747
673 -0.001847
674 -0.001944
675 -0.001988
676 -0.001899
677 -0.001889
678 -0.001828
679 -0.001719
680 -0.001593
681 -0.001348
682 -0.001047
683 -0.000854
684 -0.000712
685 -0.000740
686 -0.000889
687 -0.001026
688 -0.001105
689 -0.001120
690 -0.001255
691 -0.001384
692 -0.001413
693 -0.001406
694 -0.001428
695 -0.001603
696 -0.001604
697 -0.001503
698 -0.001600
699 -0.001435
700 -0.001237
701 -0.001164
702 -0.001209
703 -0.001021
704 -0.000768
705 -0.000700
706 -0.000687
707 -0.000626
708 -0.000624
709 -0.000456
710 -0.000280
711 -0.000008
712 0.000175
713 0.000353
714 0.000472
715 0.000449
716 0.000493
717 0.000462
718 0.000398
719 0.000384
720 0.000397
721 0.000433
722 0.000401
723 0.000357
724 0.000283
725 0.000164
726 0.000222
727 0.000347
728 0.000439
729 0.000503
730 0.000358
731 0.000129
732 0.000026
733 -0.000028
734 0.000029
735 0.000025
736 0.000138
737 0.000333
738 0.000442
739 0.000430
740 0.000464
741 0.000578
742 0.000537
743 0.000429
744 0.000443
745 0.000245
746 0.000060
747 -0.000089
748 -0.000252
749 -0.000316
750 -0.000223
751 -0.000072
752 0.000096
753 0.000306
754 0.000503
755 0.000569
756 0.000536
757 0.000492
758 0.000324
759 0.000201
760 0.000041
761 -0.000089
762 -0.000213
763 -0.000452
764 -0.000750
765 -0.001032
766 -0.001224
767 -0.001275
768 -0.001363
769 -0.001593
770 -0.001754
771 -0.001726
772 -0.001674
773 -0.001550
774 -0.001361
775 -0.001234
776 -0.001148
777 -0.001021
778 -0.000968
779 -0.000936
780 -0.000938
781 -0.000905
782 -0.000827
783 -0.000740
784 -0.000579
785 -0.000523
786 -0.000599
787 -0.000685
788 -0.000742
789 -0.000722
790 -0.000810
791 -0.000787
792 -0.000822
793 -0.000817
794 -0.000814
795 -0.000752
796 -0.000723
797 -0.000680
798 -0.000739
799 -0.000752
800 -0.000737
801 -0.000586
802 -0.000459
803 -0.000445
804 -0.000401
805 -0.000399
806 -0.000398
807 -0.000470
808 -0.000468
809 -0.000391
