# i correlation
1 0.018184
2 0.015793
3 0.013748
4 0.012182
5 0.010991
6 0.009751
7 0.008921
8 0.007985
9 0.006988
10 0.006029
11 0.005134
12 0.004676
13 0.004757
14 0.004645
15 0.004264
16 0.003942
17 0.003513
18 0.002988
19 0.002340
20 0.002095
21 0.002140
22 0.002359
23 0.002387
24 0.002364
25 0.002081
26 0.001751
27 0.001545
28 0.001679
29 0.001970
30 0.002154
31 0.002083
32 0.002242
33 0.002376
34 0.002441
35 0.002256
36 0.002269
37 0.002629
38 0.002703
39 0.002512
40 0.002167
41 0.001444
42 0.001149
43 0.000685
44 0.000377
45 0.000054
46 -0.000021
47 0.000043
48 -0.000093
49 -0.000079
50 -0.000141
51 -0.000177
52 0.000003
53 0.000090
54 0.000475
55 0.000301
56 0.000166
57 -0.000076
58 -0.000317
59 -0.000589
60 -0.000933
61 -0.001048
62 -0.000775
63 -0.000690
64 -0.000627
65 -0.000839
66 -0.000692
67 -0.000519
68 -0.000684
69 -0.000906
70 -0.000719
71 -0.000426
72 -0.000445
73 -0.000779
74 -0.001107
75 -0.001325
76 -0.001761
77 -0.002082
78 -0.002390
79 -0.002580
80 -0.002525
81 -0.002544
82 -0.002605
83 -0.002419
84 -0.002436
85 -0.002381
86 -0.002429
87 -0.002427
88 -0.002500
89 -0.002596
90 -0.002525
91 -0.002177
92 -0.001833
93 -0.001491
94 -0.001162
95 -0.000981
96 -0.000576
97 -0.000290
98 0.000050
99 0.000556
100 0.000807
101 0.000722
102 0.000605
103 0.000823
104 0.001076
105 0.001243
106 0.001496
107 0.001309
108 0.001383
109 0.001591
110 0.001955
111 0.002100
112 0.002190
113 0.002140
114 0.001981
115 0.001868
116 0.001771
117 0.001549
118 0.001710
119 0.001619
120 0.001966
121 0.002116
122 0.002237
123 0.002203
124 0.002228
125 0.002371
126 0.002128
127 0.001704
128 0.001331
129 0.001239
130 0.000881
131 0.000488
132 0.000284
133 0.000251
134 0.000438
135 0.000352
136 0.000365
137 0.000735
138 0.000807
139 0.000618
140 0.000386
141 -0.000232
142 -0.000562
143 -0.000873
144 -0.000857
145 -0.000861
146 -0.000711
147 -0.000534
148 -0.000376
149 -0.000309
150 0.000114
151 0.000184
152 0.000323
153 0.000635
154 0.001027
155 0.000963
156 0.000727
157 0.000932
158 0.001424
159 0.001534
160 0.001589
161 0.001643
162 0.001907
163 0.001929
164 0.001556
165 0.001225
166 0.001053
167 0.001325
168 0.001287
169 0.001060
170 0.000992
171 0.000920
172 0.000938
173 0.000563
174 0.000290
175 0.000091
176 0.000167
177 0.000205
178 0.000111
179 -0.000047
180 -0.000003
181 -0.000239
182 -0.000412
183 -0.000526
184 -0.000538
185 -0.000744
186 -0.000926
187 -0.000941
188 -0.001197
189 -0.001416
190 -0.001499
191 -0.001522
192 -0.001435
193 -0.001509
194 -0.001843
195 -0.001797
196 -0.001525
197 -0.001509
198 -0.001648
199 -0.001731
200 -0.001480
201 -0.001250
202 -0.001082
203 -0.001097
204 -0.001005
205 -0.000687
206 -0.000311
207 -0.000333
208 -0.000261
209 0.000022
210 0.000003
211 -0.000139
212 -0.000277
213 -0.000583
214 -0.000931
215 -0.001278
216 -0.001520
217 -0.001540
218 -0.001532
219 -0.001392
220 -0.001224
221 -0.001277
222 -0.001271
223 -0.001339
224 -0.001026
225 -0.000724
226 -0.000549
227 -0.000793
228 -0.001088
229 -0.000998
230 -0.001064
231 -0.000816
232 -0.000735
233 -0.000232
234 0.000191
235 0.000368
236 0.000435
237 0.000320
238 0.000500
239 0.000540
240 0.000714
241 0.000464
242 0.000379
243 0.000328
244 0.000142
245 -0.000125
246 -0.000174
247 -0.000198
248 -0.000147
249 0.000014
250 0.000160
251 0.000326
252 0.000333
253 0.000327
254 0.000466
255 0.000495
256 0.000604
257 0.000741
258 0.000884
259 0.001057
260 0.001271
261 0.001527
262 0.001982
263 0.002273
264 0.002371
265 0.002092
266 0.001969
267 0.001956
268 0.001964
269 0.001963
270 0.001795
271 0.001697
272 0.001548
273 0.001530
274 0.001521
275 0.001595
276 0.001727
277 0.001618
278 0.001609
279 0.001320
280 0.001154
281 0.001077
282 0.000897
283 0.001114
284 0.001270
285 0.001265
286 0.001100
287 0.001038
288 0.000802
289 0.000298
290 -0.000116
291 -0.000314
292 -0.000192
293 -0.000458
294 -0.000660
295 -0.001142
296 -0.001433
297 -0.001752
298 -0.001878
299 -0.001838
300 -0.001582
301 -0.001358
302 -0.001170
303 -0.001310
304 -0.001424
305 -0.001300
306 -0.001242
307 -0.001089
308 -0.001008
309 -0.000947
310 -0.001051
311 -0.001231
312 -0.001538
313 -0.002012
314 -0.002381
315 -0.002580
316 -0.002690
317 -0.002559
318 -0.002303
319 -0.002575
320 -0.002726
321 -0.002672
322 -0.002648
323 -0.002595
324 -0.002264
325 -0.001812
326 -0.001843
327 -0.002109
328 -0.002494
329 -0.002819
330 -0.002775
331 -0.002503
332 -0.002249
333 -0.002294
334 -0.002082
335 -0.002122
336 -0.002537
337 -0.002808
338 -0.003019
339 -0.002876
340 -0.002864
341 -0.002815
342 -0.002705
343 -0.002727
344 -0.002792
345 -0.002844
346 -0.002570
347 -0.002520
348 -0.002621
349 -0.002486
350 -0.002370
351 -0.002421
352 -0.002638
353 -0.002702
354 -0.002445
355 -0.001862
356 -0.001155
357 -0.000866
358 -0.000261
359 0.000284
360 0.000816
361 0.001030
362 0.001406
363 0.001723
364 0.001933
365 0.001888
366 0.001824
367 0.001759
368 0.001706
369 0.001616
370 0.001439
371 0.001481
372 0.001760
373 0.002050
374 0.002170
375 0.002130
376 0.002111
377 0.002189
378 0.002271
379 0.002432
380 0.002625
381 0.002663
382 0.002577
383 0.002584
384 0.002472
385 0.002383
386 0.002450
387 0.002472
388 0.002767
389 0.002853
390 0.002870
391 0.002761
392 0.002672
393 0.002784
394 0.002845
395 0.003029
396 0.003259
397 0.003222
398 0.003333
399 0.003087
400 0.002827
401 0.002615
402 0.002401
403 0.002250
404 0.002124
405 0.002108
406 0.002168
407 0.002094
408 0.002051
409 0.002114
410 0.002444
411 0.002730
412 0.003098
413 0.003223
414 0.003208
415 0.003131
416 0.003028
417 0.003109
418 0.003194
419 0.003032
420 0.003103
421 0.003026
422 0.002857
423 0.002690
424 0.002504
425 0.002473
426 0.002632
427 0.002575
428 0.002586
429 0.002618
430 0.002676
431 0.002641
432 0.002341
433 0.002098
434 0.002017
435 0.001970
436 0.001851
437 0.001732
438 0.001617
439 0.001552
440 0.001634
441 0.001393
442 0.001415
443 0.001389
444 0.001340
445 0.001415
446 0.001516
447 0.001536
448 0.001399
449 0.001168
450 0.001200
451 0.001082
452 0.001004
453 0.000817
454 0.000766
455 0.000825
456 0.000552
457 0.000301
458 0.000143
459 0.000258
460 0.000409
461 0.000499
462 0.000628
463 0.000735
464 0.000912
465 0.000958
466 0.000927
467 0.000728
468 0.000907
469 0.001025
470 0.000872
471 0.000915
472 0.001042
473 0.000913
474 0.000760
475 0.000660
476 0.000594
477 0.000590
478 0.000536
479 0.000467
480 0.000402
481 0.000169
482 0.000215
483 0.000188
484 0.000341
485 0.000372
486 0.000250
487 0.000006
488 -0.000045
489 0.000114
490 0.000185
491 0.000198
492 0.000412
493 0.000669
494 0.000770
495 0.000736
496 0.000636
497 0.000516
498 0.000432
499 0.000085
500 -0.000092
501 -0.000223
502 -0.000319
503 -0.000463
504 -0.000458
505 -0.000542
506 -0.000699
507 -0.000711
508 -0.000681
509 -0.000548
510 -0.000394
511 -0.000245
512 -0.000217
513 -0.000242
514 -0.000157
515 -0.000449
516 -0.000606
517 -0.000480
518 -0.000180
519 -0.000203
520 -0.000218
521 -0.000173
522 -0.000125
523 -0.000060
524 -0.000213
525 -0.000027
526 0.000145
527 0.000573
528 0.000736
529 0.000610
530 0.000670
531 0.000789
532 0.000882
533 0.001085
534 0.001343
535 0.001653
536 0.001854
537 0.001804
538 0.002057
539 0.001978
540 0.002038
541 0.001947
542 0.001837
543 0.001791
544 0.001823
545 0.001766
546 0.001720
547 0.001526
548 0.001311
549 0.001113
550 0.000942
551 0.000966
552 0.000806
553 0.000482
554 0.000089
555 -0.000127
556 -0.000134
557 -0.000040
558 0.000139
559 0.000145
560 0.000307
561 0.000359
562 0.000351
563 0.000458
564 0.000670
565 0.000916
566 0.000902
567 0.000900
568 0.001134
569 0.001161
570 0.001014
571 0.000836
572 0.000751
573 0.000666
574 0.000464
575 0.000581
576 0.000384
577 0.000371
578 0.000292
579 0.000179
580 0.000112
581 0.000127
582 0.000145
583 0.000063
584 0.000099
585 0.000247
586 0.000311
587 0.000212
588 0.000108
589 0.000020
590 0.000066
591 0.000053
592 0.000151
593 0.000304
594 0.000467
595 0.000478
596 0.000467
597 0.000463
598 0.000713
599 0.000869
600 0.000990
601 0.000973
602 0.000967
603 0.000805
604 0.000671
605 0.000456
606 0.000143
607 -0.000055
608 -0.000079
609 -0.000047
610 0.000015
611 -0.000130
612 -0.000109
613 -0.000086
614 -0.000145
615 -0.000095
616 -0.000143
617 0.000055
618 0.000224
619 0.000218
620 0.000196
621 0.000251
622 0.000368
623 0.000406
624 0.000240
625 0.000029
626 -0.000049
627 -0.000107
628 -0.000107
629 -0.000093
630 0.000102
631 0.000258
632 0.000440
633 0.000529
634 0.000479
635 0.000629
636 0.000756
637 0.000801
638 0.000753
639 0.000754
640 0.000588
641 0.000375
642 0.000208
643 0.000302
644 0.000495
645 0.000492
646 0.000532
647 0.000477
648 0.000489
649 0.000520
650 0.000703
651 0.000916
652 0.001238
653 0.001134
654 0.001080
655 0.000977
656 0.001097
657 0.001230
658 0.001218
659 0.001117
660 0.000919
661 0.000790
662 0.000696
663 0.000482
664 0.000483
665 0.000484
666 0.000434
667 0.000518
668 0.000465
669 0.000392
670 0.000207
671 0.000173
672 0.000225
673 0.000182
674 0.000279
675 0.000372
676 0.000233
677 0.000101
678 -0.000093
679 -0.000266
680 -0.000238
681 -0.000175
682 -0.000167
683 -0.000237
684 -0.000329
685 -0.000270
686 -0.000341
687 -0.000498
688 -0.000428
689 -0.000377
690 -0.000266
691 -0.000362
692 -0.000447
693 -0.000429
694 -0.000461
695 -0.000420
696 -0.000517
697 -0.000419
698 -0.000310
699 -0.000395
700 -0.000472
701 -0.000568
702 -0.000512
703 -0.000433
704 -0.000375
705 -0.000421
706 -0.000401
707 -0.000562
708 -0.000747
709 -0.000919
710 -0.001032
711 -0.001052
712 -0.001228
713 -0.001403
714 -0.001405
715 -0.001373
716 -0.001347
717 -0.001403
718 -0.001293
719 -0.001144
720 -0.000892
721 -0.000756
722 -0.000687
723 -0.000546
724 -0.000511
725 -0.000555
726 -0.000663
727 -0.000634
728 -0.000625
729 -0.000541
730 -0.000602
731 -0.000580
732 -0.000510
733 -0.000514
734 -0.000461
735 -0.000358
736 -0.000279
737 -0.000298
738 -0.000344
739 -0.000416
740 -0.000439
741 -0.000513
742 -0.000503
743 -0.000552
744 -0.000427
745 -0.000353
746 -0.000355
747 -0.000280
748 -0.000320
749 -0.000293
750 -0.000361
751 -0.000577
752 -0.000659
753 -0.000701
754 -0.000683
755 -0.000662
756 -0.000605
757 -0.000541
758 -0.000499
759 -0.000653
760 -0.000737
761 -0.000881
762 -0.000963
763 -0.001120
764 -0.001430
765 -0.001621
766 -0.001900
767 -0.002056
768 -0.002109
769 -0.002129
770 -0.001962
771 -0.001721
772 -0.001538
773 -0.001278
774 -0.001014
775 -0.000751
776 -0.000437
777 -0.000202
778 0.000022
779 0.000127
780 0.000206
781 0.000313
782 0.000320
783 0.000375
784 0.000329
785 0.000250
786 0.000224
787 0.000156
788 0.000022
789 0.000084
790 0.000059
791 0.000073
792 0.000040
793 -0.000073
794 -0.000170
795 -0.000234
796 -0.000280
797 -0.000344
798 -0.000438
799 -0.000569
800 -0.000634
801 -0.000752
802 -0.000788
803 -0.000818
804 -0.000751
805 -0.000703
806 -0.000622
807 -0.000473
808 -0.000334
809 -0.000178
