# i correlation
1 0.015792
2 0.013393
3 0.011519
4 0.009650
5 0.008202
6 0.006669
7 0.005331
8 0.004082
9 0.003116
10 0.002389
11 0.001788
12 0.001413
13 0.001043
14 0.000981
15 0.000831
16 0.000563
17 0.000563
18 0.000631
19 0.000926
20 0.000889
21 0.000988
22 0.000841
23 0.000531
24 0.000271
25 0.000111
26 0.000162
27 0.000042
28 0.000247
29 0.000327
30 0.000237
31 0.000373
32 -0.000041
33 -0.000202
34 -0.000309
35 -0.000510
36 -0.000556
37 -0.000831
38 -0.000899
39 -0.000709
40 -0.000243
41 0.000203
42 0.000512
43 0.000869
44 0.000973
45 0.000926
46 0.000614
47 0.000575
48 0.000644
49 0.000456
50 0.000160
51 -0.000120
52 -0.000341
53 -0.000438
54 -0.000322
55 -0.000123
56 -0.000092
57 0.000175
58 0.000470
59 0.000769
60 0.001117
61 0.001511
62 0.002160
63 0.002378
64 0.002653
65 0.002869
66 0.003007
67 0.002871
68 0.002553
69 0.002297
70 0.002015
71 0.001784
72 0.001636
73 0.001560
74 0.001270
75 0.000931
76 0.000859
77 0.000708
78 0.000332
79 0.000035
80 -0.000092
81 -0.000260
82 -0.000189
83 0.000074
84 0.000260
85 0.000557
86 0.000629
87 0.000688
88 0.000873
89 0.000865
90 0.000831
91 0.000773
92 0.000623
93 0.000537
94 0.000426
95 0.000292
96 0.000222
97 0.000416
98 0.000582
99 0.000831
100 0.000919
101 0.000984
102 0.001234
103 0.001441
104 0.001681
105 0.001775
106 0.001908
107 0.001833
108 0.001609
109 0.001429
110 0.001037
111 0.000546
112 0.000347
113 0.000356
114 0.000118
115 -0.000171
116 -0.000029
117 0.000151
118 0.000156
119 0.000281
120 0.000445
121 0.000896
122 0.000746
123 0.000770
124 0.001060
125 0.001032
126 0.000913
127 0.000875
128 0.000998
129 0.000829
130 0.000855
131 0.000776
132 0.000602
133 0.000587
134 0.000496
135 0.000735
136 0.000708
137 0.000569
138 0.000640
139 0.000489
140 0.000547
141 0.000385
142 0.000779
143 0.000711
144 0.000617
145 0.000586
146 0.000360
147 0.000549
148 0.000520
149 0.000582
150 0.000579
151 0.000670
152 0.000698
153 0.000584
154 0.000825
155 0.000614
156 0.000364
157 0.000145
158 -0.000256
159 -0.000595
160 -0.000799
161 -0.000743
162 -0.000933
163 -0.001167
164 -0.000951
165 -0.000819
166 -0.000805
167 -0.000736
168 -0.000511
169 -0.000106
170 0.000152
171 0.000804
172 0.000914
173 0.001188
174 0.001088
175 0.001184
176 0.001622
177 0.001532
178 0.001567
179 0.001346
180 0.000911
181 0.000552
182 0.000268
183 0.000383
184 0.000473
185 0.000400
186 0.000557
187 0.000656
188 0.000467
189 0.000879
190 0.001534
191 0.001681
192 0.001955
193 0.002017
194 0.002087
195 0.002327
196 0.002192
197 0.002075
198 0.001848
199 0.001746
200 0.001719
201 0.001632
202 0.001758
203 0.001755
204 0.001749
205 0.001743
206 0.001677
207 0.001569
208 0.001231
209 0.001107
210 0.000634
211 0.000144
212 0.000267
213 0.000303
214 0.000239
215 0.000304
216 0.000231
217 0.000099
218 0.000496
219 0.000673
220 0.000715
221 0.000648
222 0.000645
223 0.000788
224 0.000720
225 0.000508
226 0.000535
227 0.000616
228 0.000687
229 0.000309
230 0.000047
231 -0.000194
232 -0.000457
233 -0.000383
234 -0.000545
235 -0.000708
236 -0.000847
237 -0.000549
238 -0.000193
239 -0.000165
240 -0.000044
241 -0.000100
242 -0.000061
243 0.000143
244 0.000378
245 0.000491
246 0.000506
247 0.000464
248 0.000499
249 0.000648
250 0.000842
251 0.000883
252 0.000889
253 0.000761
254 0.000655
255 0.000716
256 0.000770
257 0.000851
258 0.001111
259 0.001292
260 0.001197
261 0.001323
262 0.001331
263 0.001303
264 0.001237
265 0.000771
266 0.000731
267 0.000701
268 0.000561
269 0.000428
270 0.000297
271 0.000282
272 0.000240
273 0.000161
274 -0.000029
275 -0.000217
276 -0.000565
277 -0.000730
278 -0.000801
279 -0.001082
280 -0.001186
281 -0.001375
282 -0.001524
283 -0.001643
284 -0.001603
285 -0.001573
286 -0.001443
287 -0.001597
288 -0.001533
289 -0.001233
290 -0.001083
291 -0.000918
292 -0.000184
293 0.000410
294 0.001009
295 0.001653
296 0.001937
297 0.002294
298 0.002131
299 0.002177
300 0.002240
301 0.002261
302 0.002511
303 0.002783
304 0.002812
305 0.002866
306 0.002898
307 0.002865
308 0.002728
309 0.002623
310 0.002335
311 0.002427
312 0.002574
313 0.002616
314 0.002754
315 0.002527
316 0.002369
317 0.001936
318 0.001483
319 0.001126
320 0.000844
321 0.000654
322 0.000441
323 0.000447
324 0.000481
325 0.000740
326 0.000883
327 0.000917
328 0.000930
329 0.000574
330 0.000359
331 0.000150
332 0.000047
333 0.000165
334 0.000026
335 -0.000127
336 -0.000276
337 -0.000155
338 -0.000195
339 -0.000417
340 -0.000387
341 -0.000562
342 -0.000937
343 -0.001097
344 -0.001162
345 -0.001355
346 -0.001418
347 -0.001281
348 -0.001373
349 -0.001440
350 -0.001543
351 -0.001470
352 -0.001479
353 -0.001666
354 -0.001601
355 -0.001534
356 -0.001370
357 -0.001363
358 -0.001401
359 -0.001453
360 -0.001476
361 -0.001248
362 -0.001022
363 -0.000714
364 -0.000642
365 -0.000561
366 -0.000372
367 -0.000196
368 0.000098
369 0.000262
370 0.000553
371 0.000558
372 0.000410
373 0.000262
374 -0.000007
375 -0.000061
376 -0.000193
377 -0.000219
378 -0.000277
379 -0.000138
380 0.000097
381 0.000189
382 0.000344
383 0.000513
384 0.000425
385 0.000535
386 0.000429
387 0.000221
388 -0.000051
389 -0.000125
390 -0.000372
391 -0.000445
392 -0.000388
393 -0.000608
394 -0.000590
395 -0.000621
396 -0.000496
397 -0.000444
398 -0.000289
399 -0.000082
400 -0.000066
401 -0.000014
402 0.000038
403 -0.000214
404 -0.000424
405 -0.000798
406 -0.001136
407 -0.001549
408 -0.001823
409 -0.001699
410 -0.001585
411 -0.001532
412 -0.001594
413 -0.001442
414 -0.001356
415 -0.001172
416 -0.000928
417 -0.000658
418 -0.000604
419 -0.000905
420 -0.001207
421 -0.001538
422 -0.001601
423 -0.001631
424 -0.001896
425 -0.002128
426 -0.002373
427 -0.002313
428 -0.001966
429 -0.001717
430 -0.001406
431 -0.001165
432 -0.000775
433 -0.000419
434 -0.000299
435 -0.000007
436 0.000096
437 0.000420
438 0.000743
439 0.000921
440 0.001048
441 0.001097
442 0.001370
443 0.001600
444 0.001740
445 0.001768
446 0.001834
447 0.001805
448 0.001723
449 0.001544
450 0.001423
451 0.001454
452 0.001185
453 0.001071
454 0.000860
455 0.000471
456 0.000313
457 0.000207
458 0.000228
459 0.000215
460 -0.000003
461 0.000014
462 -0.000063
463 -0.000125
464 -0.000113
465 -0.000100
466 -0.000105
467 -0.000284
468 -0.000292
469 -0.000547
470 -0.000562
471 -0.000510
472 -0.000431
473 -0.000248
474 -0.000295
475 -0.000218
476 -0.000201
477 -0.000215
478 -0.000134
479 0.000050
480 0.000121
481 -0.000018
482 -0.000016
483 0.000037
484 0.000123
485 0.000265
486 0.000314
487 0.000339
488 0.000199
489 0.000027
490 -0.000074
491 -0.000243
492 -0.000218
493 -0.000300
494 -0.000416
495 -0.000561
496 -0.000657
497 -0.000849
498 -0.000861
499 -0.000903
500 -0.001066
501 -0.000953
502 -0.000794
503 -0.000810
504 -0.000673
505 -0.000537
506 -0.000240
507 -0.000097
508 0.000164
509 0.000221
510 0.000311
511 0.000259
512 0.000088
513 0.000080
514 0.000021
515 0.000113
516 0.000116
517 0.000333
518 0.000423
519 0.000392
520 0.000324
521 0.000204
522 0.000253
523 0.000363
524 0.000435
525 0.000351
526 0.000334
527 0.000459
528 0.000437
529 0.000329
530 0.000287
531 0.000112
532 0.000126
533 0.000078
534 0.000181
535 0.000115
536 0.000093
537 0.000118
538 -0.000010
539 -0.000091
540 -0.000160
541 -0.000105
542 -0.000071
543 -0.000164
544 -0.000322
545 -0.000459
546 -0.000324
547 -0.000182
548 -0.000277
549 -0.000328
550 -0.000406
551 -0.000458
552 -0.000209
553 0.000072
554 0.000146
555 0.000272
556 0.000495
557 0.000541
558 0.000639
559 0.000613
560 0.000502
561 0.000378
562 0.000119
563 -0.000042
564 -0.000041
565 -0.000081
566 -0.000268
567 -0.000289
568 -0.000367
569 -0.000317
570 -0.000113
571 -0.000044
572 0.000089
573 0.000206
574 0.000238
575 0.000456
576 0.000449
577 0.000637
578 0.000663
579 0.000576
580 0.000352
581 0.000070
582 -0.000122
583 -0.000298
584 -0.000486
585 -0.000686
586 -0.000746
587 -0.000907
588 -0.000915
589 -0.000840
590 -0.000795
591 -0.000781
592 -0.000822
593 -0.000822
594 -0.000634
595 -0.000512
596 -0.000420
597 -0.000491
598 -0.000538
599 -0.000688
600 -0.000650
601 -0.000721
602 -0.000860
603 -0.001027
604 -0.001036
605 -0.001099
606 -0.001061
607 -0.001008
608 -0.000999
609 -0.000812
610 -0.000581
611 -0.000502
612 -0.000403
613 -0.000291
614 -0.000105
615 0.000095
616 0.000205
617 0.000258
618 0.000308
619 0.000520
620 0.000576
621 0.000439
622 0.000430
623 0.000335
624 0.000148
625 -0.000077
626 -0.000263
627 -0.000379
628 -0.000558
629 -0.000642
630 -0.000555
631 -0.000601
632 -0.000675
633 -0.000823
634 -0.000797
635 -0.000506
636 -0.000316
637 -0.000060
638 0.000208
639 0.000439
640 0.000769
641 0.001087
642 0.001142
643 0.001077
644 0.000972
645 0.000772
646 0.000593
647 0.000139
648 -0.000291
649 -0.000581
650 -0.000778
651 -0.000896
652 -0.001161
653 -0.001290
654 -0.001436
655 -0.001420
656 -0.001330
657 -0.001254
658 -0.001171
659 -0.001077
660 -0.000848
661 -0.000431
662 -0.000054
663 0.000137
664 0.000040
665 -0.000113
666 -0.000173
667 -0.000207
668 -0.000227
669 -0.000385
670 -0.000614
671 -0.000755
672 -0.000893
673 -0.000938
674 -0.000903
675 -0.000910
676 -0.000837
677 -0.000596
678 -0.000463
679 -0.000432
680 -0.000257
681 -0.000198
682 -0.000029
683 0.000049
684 0.000161
685 0.000126
686 0.000265
687 0.000150
688 0.000254
689 0.000392
690 0.000342
691 0.000392
692 0.000373
693 0.000274
694 0.000280
695 0.000236
696 0.000203
697 0.000133
698 0.000068
699 0.000107
700 0.000101
701 0.000145
702 0.000117
703 0.000279
704 0.000338
705 0.000300
706 0.000249
707 0.000097
708 0.000035
709 -0.000110
710 -0.000234
711 -0.000262
712 -0.000336
713 -0.000547
714 -0.000700
715 -0.000810
716 -0.000965
717 -0.001001
718 -0.001089
719 -0.001252
720 -0.001428
721 -0.001449
722 -0.001439
723 -0.001381
724 -0.001280
725 -0.001167
726 -0.000939
727 -0.000829
728 -0.000775
729 -0.000615
730 -0.000419
731 -0.000368
732 -0.000274
733 -0.000077
734 -0.000008
735 0.000039
736 0.000191
737 0.000146
738 0.000016
739 -0.000087
740 -0.000183
741 -0.000349
742 -0.000303
743 -0.000231
744 -0.000141
745 -0.000031
746 0.000164
747 0.000410
748 0.000688
749 0.000804
750 0.000945
751 0.000983
752 0.000918
753 0.000869
754 0.000897
755 0.000838
756 0.000805
757 0.000675
758 0.000558
759 0.000491
760 0.000425
761 0.000494
762 0.000413
763 0.000300
764 0.000313
765 0.000404
766 0.000408
767 0.000527
768 0.000513
769 0.000530
770 0.000596
771 0.000629
772 0.000482
773 0.000349
774 0.000144
775 0.000046
776 -0.000033
777 -0.000137
778 -0.000231
779 -0.000258
780 -0.000240
781 -0.000180
782 -0.000101
783 -0.000171
784 -0.000216
785 -0.000193
786 -0.000189
787 -0.000162
788 -0.000142
789 -0.000176
790 -0.000148
791 -0.000122
792 -0.000113
793 -0.000090
794 -0.000152
795 -0.000179
796 -0.000152
797 -0.000151
798 -0.000127
799 -0.000111
800 -0.000180
801 -0.000212
802 -0.000324
803 -0.000430
804 -0.000565
805 -0.000722
806 -0.000807
807 -0.000908
808 -0.001031
809 -0.001066
