# i correlation
1 0.019898
2 0.017275
3 0.015154
4 0.013164
5 0.011271
6 0.009885
7 0.008598
8 0.007416
9 0.006793
10 0.006571
11 0.006530
12 0.006369
13 0.006175
14 0.005685
15 0.005076
16 0.004322
17 0.003358
18 0.002620
19 0.001740
20 0.000870
21 0.000195
22 -0.000006
23 0.000084
24 0.000457
25 0.000789
26 0.000947
27 0.001056
28 0.001073
29 0.001046
30 0.001249
31 0.001623
32 0.002053
33 0.002221
34 0.002309
35 0.002779
36 0.003215
37 0.003700
38 0.003931
39 0.003909
40 0.004031
41 0.004022
42 0.003869
43 0.003693
44 0.003676
45 0.003582
46 0.003496
47 0.003667
48 0.003713
49 0.003862
50 0.004056
51 0.004208
52 0.004194
53 0.004260
54 0.004330
55 0.004071
56 0.004010
57 0.003926
58 0.003639
59 0.003446
60 0.003612
61 0.003600
62 0.003776
63 0.004069
64 0.004235
65 0.004654
66 0.005199
67 0.005176
68 0.005096
69 0.004796
70 0.004466
71 0.004387
72 0.004495
73 0.004728
74 0.004742
75 0.004848
76 0.004920
77 0.005129
78 0.005538
79 0.005424
80 0.005071
81 0.005208
82 0.004723
83 0.004277
84 0.004134
85 0.004052
86 0.003974
87 0.003969
88 0.003955
89 0.003877
90 0.003687
91 0.003627
92 0.003582
93 0.003227
94 0.002817
95 0.002128
96 0.001742
97 0.001464
98 0.001434
99 0.001266
100 0.001079
101 0.001154
102 0.001138
103 0.001500
104 0.001844
105 0.002200
106 0.002491
107 0.002470
108 0.002527
109 0.002492
110 0.002452
111 0.002416
112 0.002255
113 0.002481
114 0.002636
115 0.002505
116 0.002531
117 0.002570
118 0.002537
119 0.002665
120 0.002889
121 0.002940
122 0.002735
123 0.002669
124 0.002654
125 0.002581
126 0.002385
127 0.002208
128 0.001946
129 0.001953
130 0.002145
131 0.002594
132 0.002476
133 0.002476
134 0.002527
135 0.002653
136 0.002558
137 0.002622
138 0.002552
139 0.002578
140 0.002171
141 0.002158
142 0.001975
143 0.002038
144 0.001890
145 0.001590
146 0.001693
147 0.001697
148 0.001483
149 0.001226
150 0.001127
151 0.001142
152 0.001704
153 0.002306
154 0.002747
155 0.003163
156 0.003466
157 0.003450
158 0.003375
159 0.003268
160 0.002845
161 0.002439
162 0.002232
163 0.002113
164 0.002099
165 0.002139
166 0.002315
167 0.002223
168 0.002096
169 0.002045
170 0.002119
171 0.002224
172 0.002210
173 0.001980
174 0.001604
175 0.001154
176 0.000454
177 0.000028
178 -0.000274
179 -0.000321
180 -0.000541
181 -0.000660
182 -0.000819
183 -0.000913
184 -0.000998
185 -0.000880
186 -0.000824
187 -0.000353
188 -0.000228
189 -0.000198
190 0.000004
191 0.000299
192 0.000279
193 0.000555
194 0.000713
195 0.000622
196 0.000502
197 0.000939
198 0.001075
199 0.001017
200 0.001056
201 0.001085
202 0.001412
203 0.001754
204 0.001983
205 0.002242
206 0.002417
207 0.002188
208 0.001794
209 0.002018
210 0.001963
211 0.001477
212 0.001467
213 0.000966
214 0.000472
215 0.000343
216 0.000207
217 -0.000037
218 -0.000213
219 -0.000294
220 -0.000454
221 -0.000773
222 -0.000869
223 -0.001133
224 -0.001160
225 -0.001264
226 -0.001392
227 -0.001370
228 -0.001251
229 -0.000882
230 -0.000603
231 -0.000342
232 -0.000380
233 -0.000385
234 -0.000361
235 -0.000428
236 -0.000812
237 -0.000935
238 -0.000845
239 -0.000422
240 0.000142
241 0.000633
242 0.001088
243 0.001411
244 0.002225
245 0.002867
246 0.003307
247 0.003663
248 0.003622
249 0.003266
250 0.002947
251 0.002813
252 0.002338
253 0.002149
254 0.001875
255 0.001578
256 0.001535
257 0.001477
258 0.001520
259 0.001592
260 0.001573
261 0.001202
262 0.001121
263 0.001162
264 0.001197
265 0.000902
266 0.000802
267 0.000564
268 0.000329
269 0.000340
270 0.000161
271 -0.000132
272 -0.000105
273 -0.000354
274 -0.000718
275 -0.001014
276 -0.000823
277 -0.000883
278 -0.000488
279 -0.000380
280 -0.000404
281 -0.000325
282 -0.000220
283 0.000211
284 0.000345
285 0.000302
286 -0.000091
287 -0.000244
288 -0.000496
289 -0.000936
290 -0.000928
291 -0.000842
292 -0.000946
293 -0.000718
294 -0.000280
295 0.000200
296 0.000806
297 0.001359
298 0.001663
299 0.001828
300 0.001940
301 0.002003
302 0.001780
303 0.001317
304 0.000930
305 0.000596
306 0.000421
307 0.000579
308 0.000986
309 0.001093
310 0.001512
311 0.001875
312 0.002171
313 0.002479
314 0.002571
315 0.002355
316 0.002106
317 0.001588
318 0.001294
319 0.001092
320 0.000901
321 0.000649
322 0.000074
323 -0.000188
324 -0.000393
325 -0.000288
326 -0.000121
327 -0.000198
328 -0.000330
329 -0.000271
330 -0.000180
331 -0.000446
332 -0.000718
333 -0.001032
334 -0.001352
335 -0.001645
336 -0.001547
337 -0.001218
338 -0.001050
339 -0.001021
340 -0.000763
341 -0.000512
342 -0.000433
343 -0.000216
344 -0.000034
345 0.000290
346 0.000204
347 0.000241
348 0.000147
349 0.000088
350 0.000113
351 0.000489
352 0.000734
353 0.001138
354 0.001535
355 0.001795
356 0.002005
357 0.002309
358 0.002273
359 0.002176
360 0.001990
361 0.002058
362 0.002062
363 0.001832
364 0.001665
365 0.001575
366 0.001299
367 0.001021
368 0.001224
369 0.001239
370 0.001314
371 0.001169
372 0.001476
373 0.001810
374 0.002126
375 0.002527
376 0.002716
377 0.003028
378 0.003245
379 0.003305
380 0.003375
381 0.003450
382 0.003465
383 0.003304
384 0.003264
385 0.003253
386 0.003065
387 0.003002
388 0.002872
389 0.002592
390 0.001999
391 0.001645
392 0.001411
393 0.001196
394 0.001120
395 0.000937
396 0.000814
397 0.000659
398 0.000541
399 0.000613
400 0.000670
401 0.000435
402 0.000301
403 0.000285
404 0.000117
405 0.000167
406 0.000160
407 0.000110
408 0.000059
409 0.000104
410 0.000219
411 0.000288
412 0.000602
413 0.000814
414 0.001038
415 0.001361
416 0.001400
417 0.001555
418 0.001763
419 0.002206
420 0.002474
421 0.002663
422 0.002991
423 0.002827
424 0.002767
425 0.002377
426 0.002095
427 0.001661
428 0.001456
429 0.001278
430 0.001132
431 0.001217
432 0.001392
433 0.001532
434 0.001730
435 0.001947
436 0.001914
437 0.001694
438 0.001635
439 0.001548
440 0.001392
441 0.001203
442 0.000902
443 0.000800
444 0.000698
445 0.000635
446 0.000699
447 0.000913
448 0.000806
449 0.000866
450 0.001245
451 0.001810
452 0.001691
453 0.001743
454 0.001820
455 0.001776
456 0.001925
457 0.002204
458 0.002050
459 0.002092
460 0.002443
461 0.002788
462 0.002921
463 0.003030
464 0.002945
465 0.002843
466 0.002974
467 0.002936
468 0.002750
469 0.002801
470 0.002721
471 0.002500
472 0.002268
473 0.002188
474 0.001986
475 0.001910
476 0.001666
477 0.001239
478 0.000939
479 0.000542
480 0.000087
481 -0.000265
482 -0.000608
483 -0.000804
484 -0.000852
485 -0.000854
486 -0.000625
487 -0.000347
488 -0.000024
489 -0.000092
490 -0.000266
491 -0.000374
492 -0.000404
493 -0.000109
494 0.000086
495 0.000269
496 0.000216
497 0.000246
498 0.000492
499 0.000825
500 0.001180
501 0.001399
502 0.001554
503 0.001710
504 0.001853
505 0.001695
506 0.001661
507 0.001853
508 0.001911
509 0.002030
510 0.002175
511 0.002485
512 0.002743
513 0.003076
514 0.003109
515 0.002911
516 0.002832
517 0.002906
518 0.002995
519 0.003065
520 0.002896
521 0.002452
522 0.002141
523 0.002054
524 0.001811
525 0.001919
526 0.002075
527 0.002287
528 0.002418
529 0.002389
530 0.002257
531 0.002160
532 0.002104
533 0.001838
534 0.001731
535 0.001524
536 0.001434
537 0.001192
538 0.001238
539 0.001378
540 0.001375
541 0.001437
542 0.001538
543 0.001589
544 0.001703
545 0.001698
546 0.001317
547 0.001108
548 0.000986
549 0.000893
550 0.000662
551 0.000519
552 0.000431
553 0.000317
554 0.000243
555 0.000146
556 0.000099
557 -0.000046
558 -0.000286
559 -0.000360
560 -0.000501
561 -0.000489
562 -0.000602
563 -0.000609
564 -0.000581
565 -0.000608
566 -0.000594
567 -0.000363
568 -0.000407
569 -0.000486
570 -0.000495
571 -0.000489
572 -0.000446
573 -0.000487
574 -0.000185
575 0.000104
576 0.000332
577 0.000738
578 0.001036
579 0.001240
580 0.001430
581 0.001436
582 0.001393
583 0.001182
584 0.001070
585 0.001091
586 0.001090
587 0.001067
588 0.001168
589 0.001267
590 0.001445
591 0.001504
592 0.001648
593 0.001636
594 0.001436
595 0.001167
596 0.000812
597 0.000596
598 0.000396
599 0.000346
600 0.000215
601 0.000236
602 0.000187
603 0.000406
604 0.000655
605 0.000827
606 0.000901
607 0.001019
608 0.001100
609 0.001171
610 0.001133
611 0.000892
612 0.000824
613 0.000752
614 0.000809
615 0.000886
616 0.001028
617 0.001263
618 0.001259
619 0.001245
620 0.001161
621 0.001213
622 0.001189
623 0.001111
624 0.001190
625 0.001283
626 0.001359
627 0.001411
628 0.001477
629 0.001477
630 0.001579
631 0.001435
632 0.001440
633 0.001248
634 0.001028
635 0.000644
636 0.000147
637 -0.000258
638 -0.000594
639 -0.000818
640 -0.000838
641 -0.000770
642 -0.000698
643 -0.000826
644 -0.000808
645 -0.000701
646 -0.000827
647 -0.001120
648 -0.001217
649 -0.001474
650 -0.001498
651 -0.001504
652 -0.001345
653 -0.001107
654 -0.000850
655 -0.000713
656 -0.000427
657 -0.000088
658 0.000185
659 0.000409
660 0.000544
661 0.000578
662 0.000538
663 0.000732
664 0.000793
665 0.000968
666 0.001294
667 0.001479
668 0.001529
669 0.001608
670 0.001674
671 0.001625
672 0.001642
673 0.001692
674 0.001698
675 0.001703
676 0.001511
677 0.001270
678 0.001189
679 0.001032
680 0.000844
681 0.000793
682 0.000751
683 0.000702
684 0.000552
685 0.000488
686 0.000438
687 0.000239
688 0.000069
689 -0.000176
690 -0.000269
691 -0.000238
692 -0.000193
693 -0.000191
694 -0.000207
695 -0.000164
696 -0.000128
697 -0.000154
698 0.000126
699 0.000299
700 0.000435
701 0.000361
702 0.000448
703 0.000274
704 0.000067
705 -0.000017
706 0.000011
707 0.000067
708 0.000166
709 0.000188
710 0.000341
711 0.000323
712 0.000276
713 0.000233
714 0.000204
715 0.000087
716 0.000023
717 -0.000034
718 -0.000062
719 -0.000021
720 -0.000103
721 -0.000174
722 -0.000104
723 -0.000001
724 -0.000018
725 -0.000039
726 -0.000108
727 -0.000339
728 -0.000496
729 -0.000607
730 -0.000636
731 -0.000729
732 -0.000589
733 -0.000504
734 -0.000372
735 -0.000238
736 -0.000155
737 -0.000166
738 -0.000019
739 0.000054
740 0.000039
741 0.000072
742 0.000162
743 0.000265
744 0.000181
745 0.000224
746 0.000335
747 0.000433
748 0.000546
749 0.000595
750 0.000648
751 0.000826
752 0.000833
753 0.000694
754 0.000571
755 0.000397
756 0.000244
757 0.000269
758 0.000285
759 0.000405
760 0.000343
761 0.000376
762 0.000484
763 0.000485
764 0.000464
765 0.000560
766 0.000517
767 0.000494
768 0.000420
769 0.000389
770 0.000305
771 0.000408
772 0.000503
773 0.000615
774 0.000682
775 0.000728
776 0.000899
777 0.001086
778 0.001200
779 0.001285
780 0.001344
781 0.001298
782 0.001127
783 0.001100
784 0.001078
785 0.001024
786 0.001050
787 0.001201
788 0.001328
789 0.001457
790 0.001467
791 0.001378
792 0.001342
793 0.001017
794 0.000824
795 0.000653
796 0.000582
797 0.000481
798 0.000526
799 0.000475
800 0.000492
801 0.000559
802 0.000636
803 0.000642
804 0.000645
805 0.000545
806 0.000434
807 0.000291
808 0.000236
809 0.000163
