# i correlation
1 0.017780
2 0.015099
3 0.012917
4 0.011106
5 0.009442
6 0.008286
7 0.007145
8 0.006050
9 0.005365
10 0.004915
11 0.003952
12 0.003303
13 0.002734
14 0.002646
15 0.002674
16 0.002745
17 0.002557
18 0.002361
19 0.002566
20 0.002844
21 0.003008
22 0.003142
23 0.003093
24 0.003116
25 0.003479
26 0.003527
27 0.003023
28 0.002586
29 0.002662
30 0.002766
31 0.002713
32 0.002696
33 0.002748
34 0.003099
35 0.003624
36 0.003965
37 0.004030
38 0.004042
39 0.004027
40 0.003718
41 0.003629
42 0.003452
43 0.003097
44 0.002767
45 0.002548
46 0.002509
47 0.002547
48 0.002764
49 0.002562
50 0.002299
51 0.002075
52 0.001876
53 0.001383
54 0.001152
55 0.001073
56 0.001091
57 0.001204
58 0.001280
59 0.001418
60 0.001646
61 0.001983
62 0.002120
63 0.001822
64 0.001344
65 0.000888
66 0.000299
67 0.000124
68 0.000034
69 0.000284
70 0.000301
71 0.000704
72 0.001295
73 0.001880
74 0.002204
75 0.002193
76 0.002066
77 0.002402
78 0.002732
79 0.002704
80 0.002604
81 0.002470
82 0.002191
83 0.002028
84 0.002128
85 0.001911
86 0.001329
87 0.001056
88 0.000786
89 0.000719
90 0.000564
91 0.000567
92 0.000613
93 0.000454
94 0.000298
95 0.000151
96 0.000031
97 0.000140
98 0.000514
99 0.001206
100 0.001524
101 0.001705
102 0.001572
103 0.001658
104 0.001962
105 0.002215
106 0.002118
107 0.002212
108 0.002185
109 0.001889
110 0.001665
111 0.001490
112 0.000865
113 0.000804
114 0.000714
115 0.000667
116 0.000399
117 0.000297
118 -0.000042
119 -0.000110
120 -0.000090
121 -0.000056
122 0.000249
123 0.000715
124 0.001040
125 0.001447
126 0.001875
127 0.001817
128 0.001490
129 0.001368
130 0.001242
131 0.000958
132 0.000530
133 0.000184
134 -0.000042
135 -0.000057
136 0.000206
137 0.000345
138 0.000535
139 0.000914
140 0.001203
141 0.001302
142 0.001028
143 0.000744
144 0.000271
145 0.000215
146 0.000228
147 -0.000037
148 -0.000481
149 -0.000672
150 -0.000939
151 -0.001199
152 -0.001266
153 -0.001280
154 -0.001841
155 -0.002355
156 -0.002260
157 -0.002346
158 -0.002498
159 -0.002607
160 -0.002320
161 -0.001991
162 -0.001584
163 -0.001308
164 -0.001350
165 -0.001164
166 -0.001281
167 -0.001245
168 -0.001266
169 -0.001326
170 -0.001355
171 -0.001291
172 -0.001155
173 -0.001082
174 -0.001282
175 -0.001494
176 -0.001587
177 -0.001174
178 -0.001070
179 -0.000665
180 -0.000713
181 -0.000435
182 -0.000118
183 -0.000053
184 0.000101
185 0.000273
186 0.000434
187 0.000624
188 0.000934
189 0.001171
190 0.001038
191 0.001057
192 0.001152
193 0.000795
194 0.000376
195 0.000158
196 0.000265
197 0.000476
198 0.000501
199 0.000656
200 0.000938
201 0.000938
202 0.000832
203 0.000677
204 0.000593
205 0.000192
206 -0.000116
207 -0.000211
208 -0.000204
209 -0.000197
210 0.000122
211 0.000258
212 0.000475
213 0.000486
214 0.000693
215 0.000731
216 0.000791
217 0.001067
218 0.001639
219 0.001820
220 0.001831
221 0.002166
222 0.002322
223 0.002168
224 0.002059
225 0.001994
226 0.001838
227 0.001452
228 0.001064
229 0.000775
230 0.000635
231 0.000581
232 0.000207
233 0.000049
234 0.000043
235 -0.000116
236 -0.000228
237 -0.000044
238 0.000128
239 0.000314
240 0.000452
241 0.000707
242 0.000812
243 0.000962
244 0.001305
245 0.001571
246 0.001943
247 0.001997
248 0.002023
249 0.001820
250 0.001723
251 0.001719
252 0.001614
253 0.001559
254 0.001280
255 0.001086
256 0.000533
257 -0.000155
258 -0.000661
259 -0.000907
260 -0.000987
261 -0.000698
262 -0.000495
263 -0.000314
264 -0.000193
265 -0.000213
266 -0.000330
267 -0.000583
268 -0.000843
269 -0.000811
270 -0.000657
271 -0.000482
272 -0.000519
273 -0.000588
274 -0.000864
275 -0.001097
276 -0.001031
277 -0.000949
278 -0.000881
279 -0.000670
280 -0.000396
281 -0.000187
282 -0.000170
283 -0.000225
284 -0.000150
285 0.000020
286 0.000227
287 0.000453
288 0.000613
289 0.000547
290 0.000698
291 0.000468
292 0.000389
293 0.000258
294 0.000069
295 -0.000132
296 -0.000002
297 -0.000359
298 -0.000783
299 -0.000609
300 -0.000752
301 -0.000888
302 -0.000598
303 -0.000344
304 -0.000192
305 -0.000185
306 -0.000124
307 -0.000358
308 -0.000796
309 -0.001100
310 -0.001099
311 -0.001102
312 -0.001183
313 -0.000866
314 -0.000845
315 -0.000661
316 -0.000450
317 -0.000299
318 -0.000037
319 -0.000005
320 0.000167
321 0.000531
322 0.001028
323 0.001342
324 0.001550
325 0.001800
326 0.001949
327 0.002098
328 0.002270
329 0.002433
330 0.002460
331 0.002507
332 0.002300
333 0.001797
334 0.001006
335 0.000477
336 0.000094
337 -0.000331
338 -0.000487
339 -0.000790
340 -0.001338
341 -0.001658
342 -0.001734
343 -0.002055
344 -0.002201
345 -0.002310
346 -0.002436
347 -0.002509
348 -0.002610
349 -0.002620
350 -0.002534
351 -0.002409
352 -0.002222
353 -0.002142
354 -0.001911
355 -0.001965
356 -0.002198
357 -0.002143
358 -0.002126
359 -0.002208
360 -0.002075
361 -0.001697
362 -0.001457
363 -0.001124
364 -0.000746
365 -0.000543
366 -0.000521
367 -0.000402
368 -0.000231
369 -0.000226
370 -0.000273
371 -0.000395
372 -0.000731
373 -0.001206
374 -0.001427
375 -0.001640
376 -0.002003
377 -0.001882
378 -0.001865
379 -0.001808
380 -0.001900
381 -0.002042
382 -0.002555
383 -0.002916
384 -0.002888
385 -0.002960
386 -0.002991
387 -0.002842
388 -0.002823
389 -0.002764
390 -0.002671
391 -0.002302
392 -0.002061
393 -0.001844
394 -0.001637
395 -0.001679
396 -0.001785
397 -0.002018
398 -0.002351
399 -0.002596
400 -0.002517
401 -0.002447
402 -0.002396
403 -0.002323
404 -0.002305
405 -0.002576
406 -0.002391
407 -0.002201
408 -0.002165
409 -0.002025
410 -0.001514
411 -0.000885
412 -0.000377
413 -0.000013
414 0.000399
415 0.000589
416 0.000774
417 0.000645
418 0.000583
419 0.000215
420 -0.000186
421 -0.000376
422 -0.000425
423 -0.000542
424 -0.000793
425 -0.001060
426 -0.001086
427 -0.001091
428 -0.001028
429 -0.000962
430 -0.000720
431 -0.000269
432 0.000168
433 0.000376
434 0.000372
435 0.000300
436 0.000376
437 0.000314
438 0.000407
439 0.000363
440 0.000446
441 0.000555
442 0.000729
443 0.000723
444 0.000728
445 0.000577
446 0.000491
447 0.000348
448 0.000389
449 0.000440
450 0.000410
451 0.000484
452 0.000850
453 0.000900
454 0.000855
455 0.000914
456 0.000882
457 0.000779
458 0.000814
459 0.000885
460 0.000687
461 0.000663
462 0.000707
463 0.000704
464 0.000657
465 0.000601
466 0.000545
467 0.000534
468 0.000419
469 0.000651
470 0.000592
471 0.000780
472 0.000827
473 0.000996
474 0.000857
475 0.000736
476 0.000687
477 0.000443
478 0.000219
479 -0.000173
480 -0.000590
481 -0.000730
482 -0.001008
483 -0.001047
484 -0.001047
485 -0.001046
486 -0.000961
487 -0.000805
488 -0.000403
489 -0.000241
490 0.000081
491 0.000258
492 0.000609
493 0.000705
494 0.000859
495 0.001082
496 0.001152
497 0.000863
498 0.000666
499 0.000434
500 0.000214
501 0.000072
502 0.000101
503 0.000173
504 0.000172
505 0.000214
506 0.000388
507 0.000706
508 0.000694
509 0.000641
510 0.000718
511 0.000757
512 0.000670
513 0.000573
514 0.000615
515 0.000698
516 0.000718
517 0.000999
518 0.000994
519 0.000953
520 0.000896
521 0.000977
522 0.000879
523 0.000762
524 0.000631
525 0.000712
526 0.000667
527 0.000521
528 0.000236
529 -0.000125
530 -0.000468
531 -0.000597
532 -0.000475
533 -0.000378
534 -0.000434
535 -0.000601
536 -0.000588
537 -0.000529
538 -0.000476
539 -0.000512
540 -0.000394
541 -0.000073
542 0.000163
543 0.000330
544 0.000350
545 0.000313
546 0.000372
547 0.000418
548 0.000571
549 0.000646
550 0.000723
551 0.000762
552 0.000613
553 0.000439
554 0.000449
555 0.000395
556 0.000347
557 0.000328
558 0.000148
559 -0.000045
560 -0.000279
561 -0.000460
562 -0.000607
563 -0.000502
564 -0.000388
565 -0.000360
566 -0.000210
567 0.000023
568 0.000256
569 0.000387
570 0.000301
571 0.000226
572 0.000172
573 0.000088
574 0.000004
575 0.000121
576 0.000404
577 0.000480
578 0.000326
579 0.000202
580 0.000196
581 0.000163
582 0.000071
583 -0.000027
584 0.000022
585 -0.000095
586 -0.000231
587 -0.000386
588 -0.000528
589 -0.000516
590 -0.000710
591 -0.000863
592 -0.000775
593 -0.000674
594 -0.000635
595 -0.000640
596 -0.000728
597 -0.000883
598 -0.000794
599 -0.000608
600 -0.000552
601 -0.000476
602 -0.000418
603 -0.000194
604 -0.000162
605 -0.000133
606 -0.000146
607 -0.000365
608 -0.000570
609 -0.000709
610 -0.000521
611 -0.000289
612 0.000029
613 0.000326
614 0.000427
615 0.000500
616 0.000384
617 0.000259
618 0.000355
619 0.000308
620 0.000128
621 -0.000240
622 -0.000545
623 -0.000705
624 -0.000711
625 -0.000608
626 -0.000768
627 -0.000970
628 -0.001032
629 -0.000978
630 -0.001012
631 -0.001057
632 -0.001018
633 -0.000850
634 -0.000720
635 -0.000595
636 -0.000533
637 -0.000635
638 -0.000736
639 -0.000769
640 -0.000610
641 -0.000476
642 -0.000406
643 -0.000280
644 -0.000189
645 -0.000044
646 0.000108
647 0.000190
648 0.000559
649 0.000964
650 0.001250
651 0.001319
652 0.001429
653 0.001535
654 0.001528
655 0.001636
656 0.001645
657 0.001551
658 0.001451
659 0.001537
660 0.001725
661 0.001711
662 0.001667
663 0.001556
664 0.001340
665 0.001215
666 0.000952
667 0.000831
668 0.000796
669 0.000581
670 0.000428
671 0.000366
672 0.000301
673 0.000360
674 0.000530
675 0.000733
676 0.000703
677 0.000782
678 0.000681
679 0.000628
680 0.000537
681 0.000558
682 0.000473
683 0.000559
684 0.000700
685 0.000838
686 0.000843
687 0.000935
688 0.000970
689 0.000869
690 0.000929
691 0.001042
692 0.001014
693 0.001044
694 0.001138
695 0.001204
696 0.001204
697 0.001372
698 0.001407
699 0.001491
700 0.001476
701 0.001215
702 0.001130
703 0.001141
704 0.001179
705 0.001227
706 0.001385
707 0.001567
708 0.001576
709 0.001665
710 0.001766
711 0.001727
712 0.001779
713 0.001749
714 0.001705
715 0.001629
716 0.001600
717 0.001704
718 0.001753
719 0.001874
720 0.001979
721 0.001952
722 0.001921
723 0.001775
724 0.001634
725 0.001625
726 0.001520
727 0.001378
728 0.001375
729 0.001553
730 0.001582
731 0.001519
732 0.001660
733 0.001762
734 0.001771
735 0.001920
736 0.002052
737 0.002093
738 0.002282
739 0.002345
740 0.002402
741 0.002419
742 0.002536
743 0.002449
744 0.002389
745 0.002483
746 0.002428
747 0.002340
748 0.002354
749 0.002257
750 0.002142
751 0.002045
752 0.001918
753 0.001748
754 0.001832
755 0.001955
756 0.001937
757 0.001851
758 0.001849
759 0.001840
760 0.001821
761 0.001782
762 0.001716
763 0.001659
764 0.001601
765 0.001578
766 0.001669
767 0.001718
768 0.001872
769 0.002014
770 0.002060
771 0.002106
772 0.002164
773 0.002165
774 0.002133
775 0.002120
776 0.002214
777 0.002264
778 0.002249
779 0.002248
780 0.002307
781 0.002309
782 0.002256
783 0.002110
784 0.001979
785 0.001991
786 0.001950
787 0.001839
788 0.001767
789 0.001769
790 0.001798
791 0.001853
792 0.001926
793 0.001853
794 0.001831
795 0.001691
796 0.001603
797 0.001552
798 0.001568
799 0.001516
800 0.001367
801 0.001313
802 0.001332
803 0.001284
804 0.001200
805 0.001180
806 0.001185
807 0.001157
808 0.001069
809 0.000986
