# i correlation
1 0.022149
2 0.019274
3 0.016521
4 0.014334
5 0.012575
6 0.011584
7 0.010965
8 0.010252
9 0.010101
10 0.009559
11 0.008695
12 0.007829
13 0.007015
14 0.005942
15 0.004964
16 0.004530
17 0.003936
18 0.003695
19 0.003525
20 0.003464
21 0.003226
22 0.003116
23 0.002780
24 0.002335
25 0.001941
26 0.001886
27 0.002153
28 0.002587
29 0.003119
30 0.003520
31 0.003728
32 0.003795
33 0.003539
34 0.003241
35 0.002866
36 0.002927
37 0.003001
38 0.003178
39 0.003518
40 0.003870
41 0.003900
42 0.003745
43 0.003429
44 0.002974
45 0.002947
46 0.002874
47 0.002892
48 0.002809
49 0.002549
50 0.001965
51 0.001399
52 0.001238
53 0.000817
54 0.000560
55 0.000548
56 0.000832
57 0.000791
58 0.001218
59 0.001686
60 0.002022
61 0.002338
62 0.002356
63 0.002106
64 0.001926
65 0.002037
66 0.002147
67 0.002318
68 0.002827
69 0.003380
70 0.003970
71 0.004178
72 0.004380
73 0.004177
74 0.004356
75 0.004478
76 0.004540
77 0.004907
78 0.005389
79 0.005209
80 0.005022
81 0.004932
82 0.004757
83 0.004724
84 0.004917
85 0.005325
86 0.005287
87 0.005499
88 0.005759
89 0.005993
90 0.006307
91 0.006758
92 0.006967
93 0.006916
94 0.006466
95 0.005918
96 0.005521
97 0.005471
98 0.005387
99 0.005324
100 0.005084
101 0.005140
102 0.004956
103 0.004591
104 0.004168
105 0.003718
106 0.003383
107 0.003329
108 0.003277
109 0.003140
110 0.002525
111 0.002074
112 0.001382
113 0.000855
114 0.000739
115 0.000608
116 0.000552
117 0.000698
118 0.001020
119 0.001399
120 0.001429
121 0.001585
122 0.001648
123 0.002139
124 0.002232
125 0.002300
126 0.002071
127 0.001567
128 0.001121
129 0.000950
130 0.001228
131 0.001236
132 0.001267
133 0.001211
134 0.001064
135 0.000737
136 0.000628
137 0.000415
138 0.000166
139 0.000235
140 -0.000079
141 -0.000284
142 -0.000664
143 -0.000830
144 -0.000931
145 -0.000736
146 -0.000415
147 -0.000216
148 0.000011
149 0.000199
150 0.000229
151 -0.000075
152 -0.000376
153 -0.000852
154 -0.001027
155 -0.000723
156 -0.000285
157 0.000048
158 0.000404
159 0.001137
160 0.001500
161 0.001859
162 0.001958
163 0.002035
164 0.001957
165 0.002328
166 0.002804
167 0.003192
168 0.003301
169 0.003196
170 0.003177
171 0.002943
172 0.002681
173 0.002067
174 0.001258
175 0.000875
176 0.000721
177 0.000925
178 0.001175
179 0.001590
180 0.001641
181 0.001443
182 0.000865
183 0.000269
184 -0.000303
185 -0.000660
186 -0.000685
187 -0.000595
188 -0.000428
189 0.000148
190 0.000358
191 0.000453
192 0.000508
193 0.000570
194 0.000521
195 0.000485
196 0.000380
197 0.000187
198 -0.000128
199 -0.000251
200 -0.000277
201 -0.000307
202 -0.000748
203 -0.000884
204 -0.000883
205 -0.000735
206 -0.000443
207 -0.000166
208 0.000044
209 -0.000227
210 -0.000479
211 -0.000972
212 -0.001473
213 -0.001677
214 -0.001874
215 -0.001751
216 -0.001371
217 -0.000893
218 -0.000739
219 -0.000707
220 -0.000847
221 -0.000979
222 -0.001193
223 -0.001199
224 -0.001002
225 -0.000942
226 -0.000783
227 -0.000422
228 0.000155
229 0.000705
230 0.000917
231 0.001028
232 0.001105
233 0.001340
234 0.001253
235 0.001342
236 0.001467
237 0.001941
238 0.002290
239 0.002328
240 0.002109
241 0.001645
242 0.001151
243 0.000430
244 -0.000114
245 -0.000678
246 -0.001206
247 -0.001534
248 -0.001374
249 -0.000982
250 -0.000682
251 -0.000392
252 -0.000122
253 0.000183
254 0.000169
255 0.000282
256 0.000115
257 0.000228
258 0.000272
259 0.000590
260 0.000634
261 0.000609
262 0.000754
263 0.000909
264 0.001330
265 0.001766
266 0.001972
267 0.002248
268 0.002666
269 0.003000
270 0.003110
271 0.003281
272 0.003199
273 0.002878
274 0.002547
275 0.002019
276 0.001385
277 0.000836
278 0.000802
279 0.000577
280 0.000503
281 0.000463
282 0.000439
283 0.000015
284 -0.000196
285 -0.000444
286 -0.000672
287 -0.001039
288 -0.001337
289 -0.001617
290 -0.001661
291 -0.001347
292 -0.001379
293 -0.001460
294 -0.001648
295 -0.001804
296 -0.001861
297 -0.001724
298 -0.001234
299 -0.001070
300 -0.000629
301 -0.000234
302 0.000037
303 -0.000116
304 -0.000387
305 -0.000453
306 -0.000695
307 -0.000894
308 -0.000944
309 -0.000827
310 -0.000647
311 -0.000487
312 -0.000252
313 -0.000304
314 -0.000141
315 -0.000121
316 -0.000292
317 -0.000647
318 -0.001006
319 -0.001336
320 -0.001583
321 -0.001608
322 -0.001367
323 -0.001208
324 -0.001027
325 -0.000927
326 -0.000835
327 -0.000753
328 -0.000580
329 -0.000284
330 0.000149
331 0.000396
332 0.000572
333 0.000821
334 0.000888
335 0.000634
336 0.000408
337 0.000430
338 0.000642
339 0.000726
340 0.001035
341 0.000892
342 0.001134
343 0.001334
344 0.001310
345 0.001191
346 0.001329
347 0.001320
348 0.001083
349 0.000984
350 0.001028
351 0.001076
352 0.001444
353 0.001708
354 0.001729
355 0.001740
356 0.002058
357 0.002353
358 0.002740
359 0.003085
360 0.003250
361 0.003251
362 0.003326
363 0.003380
364 0.003132
365 0.002861
366 0.002682
367 0.002536
368 0.002519
369 0.002589
370 0.002462
371 0.002283
372 0.002276
373 0.002042
374 0.001957
375 0.002027
376 0.002236
377 0.001945
378 0.001813
379 0.001307
380 0.000711
381 -0.000019
382 -0.000483
383 -0.000623
384 -0.000822
385 -0.000689
386 -0.000635
387 -0.000651
388 -0.000854
389 -0.000848
390 -0.000993
391 -0.001241
392 -0.001321
393 -0.001432
394 -0.001217
395 -0.001013
396 -0.000653
397 -0.000351
398 0.000117
399 0.000752
400 0.001104
401 0.001273
402 0.001225
403 0.001165
404 0.001080
405 0.000981
406 0.000664
407 0.000457
408 0.000589
409 0.000580
410 0.000477
411 0.000261
412 0.000010
413 -0.000327
414 -0.000539
415 -0.000672
416 -0.000765
417 -0.000677
418 -0.000476
419 -0.000117
420 0.000120
421 0.000484
422 0.000560
423 0.000770
424 0.001071
425 0.001217
426 0.001019
427 0.000821
428 0.000694
429 0.000541
430 0.000896
431 0.001522
432 0.001899
433 0.002069
434 0.002292
435 0.002425
436 0.002413
437 0.002688
438 0.002798
439 0.002738
440 0.002564
441 0.002476
442 0.002289
443 0.002097
444 0.002239
445 0.002433
446 0.002728
447 0.002952
448 0.003474
449 0.003770
450 0.003882
451 0.003822
452 0.003666
453 0.003560
454 0.003368
455 0.003059
456 0.002859
457 0.002973
458 0.003153
459 0.003269
460 0.003512
461 0.003843
462 0.003969
463 0.004116
464 0.004032
465 0.003765
466 0.003612
467 0.003560
468 0.003462
469 0.003286
470 0.003158
471 0.003155
472 0.002894
473 0.002682
474 0.002288
475 0.001959
476 0.001661
477 0.001509
478 0.001512
479 0.001479
480 0.001362
481 0.001135
482 0.000889
483 0.000604
484 0.000175
485 -0.000094
486 -0.000405
487 -0.000465
488 -0.000437
489 -0.000329
490 -0.000187
491 0.000207
492 0.000563
493 0.000714
494 0.000856
495 0.000882
496 0.000732
497 0.000778
498 0.000860
499 0.001065
500 0.001244
501 0.001629
502 0.001724
503 0.001633
504 0.001392
505 0.001158
506 0.000991
507 0.000659
508 0.000600
509 0.000799
510 0.000991
511 0.001098
512 0.000956
513 0.000645
514 0.000132
515 -0.000161
516 -0.000466
517 -0.000490
518 -0.000240
519 0.000209
520 0.000422
521 0.000485
522 0.000955
523 0.001389
524 0.001719
525 0.001812
526 0.001675
527 0.001510
528 0.001481
529 0.001420
530 0.001564
531 0.001815
532 0.001882
533 0.002002
534 0.001868
535 0.001714
536 0.001350
537 0.001067
538 0.001094
539 0.001342
540 0.001555
541 0.001820
542 0.001830
543 0.001817
544 0.001592
545 0.001475
546 0.001343
547 0.001295
548 0.001233
549 0.001145
550 0.001240
551 0.001306
552 0.001178
553 0.001159
554 0.001244
555 0.001340
556 0.001232
557 0.001238
558 0.001086
559 0.001009
560 0.000935
561 0.000929
562 0.000851
563 0.000885
564 0.001055
565 0.001132
566 0.001099
567 0.001337
568 0.001318
569 0.001330
570 0.001511
571 0.001765
572 0.001770
573 0.001673
574 0.001340
575 0.001128
576 0.000943
577 0.000604
578 0.000286
579 0.000164
580 0.000214
581 0.000366
582 0.000603
583 0.000739
584 0.000786
585 0.000756
586 0.000749
587 0.000675
588 0.000517
589 0.000470
590 0.000382
591 0.000364
592 0.000399
593 0.000465
594 0.000557
595 0.000552
596 0.000417
597 0.000495
598 0.000465
599 0.000423
600 0.000549
601 0.000643
602 0.000885
603 0.001148
604 0.001306
605 0.001222
606 0.000814
607 0.000451
608 0.000203
609 0.000017
610 -0.000049
611 -0.000114
612 -0.000101
613 -0.000110
614 -0.000073
615 -0.000131
616 -0.000111
617 -0.000209
618 -0.000548
619 -0.000961
620 -0.001178
621 -0.001298
622 -0.001494
623 -0.001554
624 -0.001408
625 -0.001334
626 -0.001253
627 -0.001185
628 -0.001124
629 -0.001062
630 -0.001180
631 -0.001171
632 -0.001244
633 -0.001358
634 -0.001455
635 -0.001581
636 -0.001629
637 -0.001555
638 -0.001299
639 -0.001108
640 -0.000873
641 -0.000650
642 -0.000383
643 -0.000252
644 -0.000208
645 -0.000246
646 -0.000512
647 -0.000548
648 -0.000521
649 -0.000446
650 -0.000312
651 -0.000304
652 -0.000405
653 -0.000503
654 -0.000431
655 -0.000514
656 -0.000401
657 -0.000460
658 -0.000444
659 -0.000572
660 -0.000671
661 -0.000824
662 -0.001006
663 -0.001123
664 -0.001119
665 -0.001163
666 -0.001262
667 -0.001309
668 -0.001266
669 -0.001200
670 -0.001128
671 -0.001110
672 -0.000971
673 -0.000925
674 -0.000805
675 -0.000809
676 -0.000832
677 -0.000961
678 -0.000918
679 -0.000857
680 -0.000690
681 -0.000569
682 -0.000485
683 -0.000436
684 -0.000399
685 -0.000420
686 -0.000409
687 -0.000331
688 -0.000269
689 -0.000280
690 -0.000038
691 0.000076
692 0.000232
693 0.000185
694 0.000102
695 0.000003
696 -0.000090
697 -0.000118
698 -0.000207
699 -0.000198
700 -0.000206
701 -0.000216
702 -0.000257
703 -0.000345
704 -0.000486
705 -0.000687
706 -0.000681
707 -0.000935
708 -0.001221
709 -0.001308
710 -0.001323
711 -0.001266
712 -0.001156
713 -0.001109
714 -0.001225
715 -0.001282
716 -0.001161
717 -0.001126
718 -0.001112
719 -0.001149
720 -0.001052
721 -0.001041
722 -0.000885
723 -0.000809
724 -0.000775
725 -0.000797
726 -0.000812
727 -0.000904
728 -0.000855
729 -0.000753
730 -0.000602
731 -0.000442
732 -0.000201
733 -0.000076
734 0.000122
735 0.000305
736 0.000339
737 0.000244
738 0.000091
739 -0.000017
740 -0.000133
741 -0.000298
742 -0.000454
743 -0.000646
744 -0.000810
745 -0.001145
746 -0.001403
747 -0.001581
748 -0.001802
749 -0.001997
750 -0.002140
751 -0.002208
752 -0.002319
753 -0.002399
754 -0.002467
755 -0.002507
756 -0.002567
757 -0.002617
758 -0.002603
759 -0.002563
760 -0.002540
761 -0.002426
762 -0.002165
763 -0.001837
764 -0.001610
765 -0.001357
766 -0.001307
767 -0.001311
768 -0.001374
769 -0.001507
770 -0.001603
771 -0.001524
772 -0.001332
773 -0.001185
774 -0.001071
775 -0.000954
776 -0.000807
777 -0.000761
778 -0.000763
779 -0.000831
780 -0.000998
781 -0.001004
782 -0.001037
783 -0.000982
784 -0.001061
785 -0.001298
786 -0.001539
787 -0.001746
788 -0.001849
789 -0.001922
790 -0.001916
791 -0.001879
792 -0.001834
793 -0.001764
794 -0.001606
795 -0.001475
796 -0.001383
797 -0.001236
798 -0.001242
799 -0.001182
800 -0.001085
801 -0.001067
802 -0.001028
803 -0.000901
804 -0.000743
805 -0.000638
806 -0.000452
807 -0.000378
808 -0.000362
809 -0.000330
