# i correlation
1 0.019113
2 0.016518
3 0.014661
4 0.013131
5 0.012093
6 0.011132
7 0.009978
8 0.009131
9 0.008442
10 0.007817
11 0.007037
12 0.006388
13 0.005577
14 0.004786
15 0.004159
16 0.003854
17 0.003692
18 0.003338
19 0.003193
20 0.002786
21 0.002661
22 0.002840
23 0.003192
24 0.003091
25 0.003040
26 0.003073
27 0.002935
28 0.002614
29 0.002268
30 0.001923
31 0.001810
32 0.001551
33 0.001473
34 0.001751
35 0.002168
36 0.002409
37 0.002509
38 0.002514
39 0.002321
40 0.002217
41 0.002124
42 0.001994
43 0.002005
44 0.002158
45 0.002013
46 0.001920
47 0.001618
48 0.001367
49 0.001086
50 0.000958
51 0.000752
52 0.000785
53 0.000613
54 0.000623
55 0.000432
56 0.000376
57 0.000589
58 0.000569
59 0.000614
60 0.000775
61 0.000810
62 0.000969
63 0.001231
64 0.001291
65 0.001094
66 0.000763
67 0.000443
68 0.000154
69 -0.000092
70 -0.000453
71 -0.000673
72 -0.000743
73 -0.000730
74 -0.000881
75 -0.000697
76 -0.000566
77 -0.000317
78 -0.000370
79 -0.000434
80 -0.000601
81 -0.000382
82 -0.000273
83 -0.000035
84 -0.000096
85 -0.000000
86 -0.000288
87 -0.000552
88 -0.000646
89 -0.000792
90 -0.000925
91 -0.001094
92 -0.001731
93 -0.002018
94 -0.002245
95 -0.002210
96 -0.002345
97 -0.002580
98 -0.002528
99 -0.002517
100 -0.002167
101 -0.001419
102 -0.000819
103 -0.000373
104 -0.000080
105 0.000120
106 0.000447
107 0.000747
108 0.000768
109 0.000752
110 0.000651
111 0.000449
112 0.000335
113 -0.000022
114 -0.000358
115 -0.000758
116 -0.001313
117 -0.001763
118 -0.002073
119 -0.002438
120 -0.002774
121 -0.003125
122 -0.003328
123 -0.003506
124 -0.003505
125 -0.003335
126 -0.003066
127 -0.002907
128 -0.003011
129 -0.002948
130 -0.003144
131 -0.003113
132 -0.003075
133 -0.003016
134 -0.002908
135 -0.002644
136 -0.002523
137 -0.002363
138 -0.002374
139 -0.002439
140 -0.002517
141 -0.002477
142 -0.002409
143 -0.002301
144 -0.002265
145 -0.001994
146 -0.001679
147 -0.001440
148 -0.001283
149 -0.001342
150 -0.001236
151 -0.001379
152 -0.001450
153 -0.001497
154 -0.001414
155 -0.001158
156 -0.001117
157 -0.001096
158 -0.000831
159 -0.000593
160 -0.000355
161 -0.000392
162 -0.000124
163 -0.000037
164 0.000135
165 0.000125
166 0.000140
167 -0.000065
168 -0.000154
169 -0.000103
170 0.000101
171 0.000100
172 0.000181
173 0.000321
174 0.000511
175 0.000397
176 0.000387
177 -0.000011
178 -0.000036
179 0.000025
180 0.000040
181 0.000237
182 0.000128
183 0.000043
184 0.000131
185 0.000148
186 0.000277
187 0.000389
188 0.000623
189 0.001041
190 0.001323
191 0.001491
192 0.001718
193 0.002009
194 0.002131
195 0.002205
196 0.002110
197 0.002012
198 0.001775
199 0.001625
200 0.001495
201 0.001217
202 0.001220
203 0.001202
204 0.000889
205 0.000376
206 0.000179
207 0.000183
208 0.000238
209 0.000252
210 0.000243
211 0.000288
212 0.000480
213 0.000690
214 0.001046
215 0.001289
216 0.001526
217 0.001670
218 0.001721
219 0.001999
220 0.002135
221 0.002133
222 0.002193
223 0.001929
224 0.001811
225 0.001758
226 0.001722
227 0.001551
228 0.001379
229 0.001121
230 0.001032
231 0.000794
232 0.000515
233 0.000242
234 -0.000048
235 -0.000345
236 -0.000315
237 -0.000197
238 0.000019
239 0.000024
240 0.000100
241 -0.000046
242 -0.000278
243 -0.000124
244 -0.000183
245 -0.000406
246 -0.000567
247 -0.000419
248 -0.000378
249 -0.000217
250 -0.000134
251 -0.000031
252 0.000126
253 0.000780
254 0.000905
255 0.001240
256 0.001377
257 0.001644
258 0.001684
259 0.001670
260 0.001608
261 0.001555
262 0.001367
263 0.001453
264 0.001534
265 0.001716
266 0.001903
267 0.002077
268 0.001954
269 0.001764
270 0.001665
271 0.001359
272 0.001119
273 0.000595
274 0.000504
275 0.000481
276 0.000411
277 0.000446
278 0.000474
279 0.000665
280 0.000805
281 0.000665
282 0.000622
283 0.000588
284 0.000552
285 0.000580
286 0.000331
287 -0.000106
288 -0.000325
289 -0.000430
290 -0.000450
291 -0.000338
292 -0.000316
293 -0.000163
294 -0.000114
295 -0.000239
296 -0.000555
297 -0.000435
298 -0.000442
299 -0.000435
300 -0.000211
301 0.000065
302 0.000348
303 0.000510
304 0.000490
305 0.000719
306 0.000546
307 0.000459
308 0.000203
309 -0.000024
310 -0.000282
311 -0.000667
312 -0.001076
313 -0.001531
314 -0.001965
315 -0.002242
316 -0.002517
317 -0.002593
318 -0.002772
319 -0.002893
320 -0.002886
321 -0.002643
322 -0.002264
323 -0.002062
324 -0.001857
325 -0.001682
326 -0.001513
327 -0.001522
328 -0.001395
329 -0.001143
330 -0.001285
331 -0.001197
332 -0.000926
333 -0.000876
334 -0.000749
335 -0.001080
336 -0.001365
337 -0.001623
338 -0.001703
339 -0.001805
340 -0.001611
341 -0.001618
342 -0.001614
343 -0.001637
344 -0.001669
345 -0.001609
346 -0.001368
347 -0.001402
348 -0.001144
349 -0.000819
350 -0.000733
351 -0.000707
352 -0.000579
353 -0.000540
354 -0.000426
355 -0.000177
356 -0.000067
357 0.000069
358 0.000170
359 0.000414
360 0.000571
361 0.000813
362 0.001188
363 0.001485
364 0.001494
365 0.001528
366 0.001587
367 0.001746
368 0.001892
369 0.002225
370 0.002544
371 0.002650
372 0.002647
373 0.002523
374 0.002335
375 0.002101
376 0.001807
377 0.001654
378 0.001496
379 0.001233
380 0.000930
381 0.000610
382 0.000480
383 0.000268
384 0.000418
385 0.000350
386 0.000353
387 0.000339
388 0.000370
389 0.000307
390 0.000506
391 0.000441
392 0.000409
393 0.000463
394 0.000512
395 0.000492
396 0.000472
397 0.000277
398 0.000360
399 0.000235
400 0.000290
401 0.000222
402 0.000126
403 0.000402
404 0.000447
405 0.000419
406 0.000557
407 0.000646
408 0.000714
409 0.000938
410 0.001090
411 0.001353
412 0.001542
413 0.001672
414 0.001610
415 0.001655
416 0.001627
417 0.001582
418 0.001389
419 0.001418
420 0.001280
421 0.001077
422 0.001035
423 0.000896
424 0.000662
425 0.000647
426 0.000687
427 0.000991
428 0.001128
429 0.001316
430 0.001532
431 0.001733
432 0.001897
433 0.002061
434 0.002354
435 0.002642
436 0.002903
437 0.003072
438 0.003404
439 0.003607
440 0.003724
441 0.003712
442 0.003669
443 0.003538
444 0.003514
445 0.003333
446 0.003187
447 0.003295
448 0.003384
449 0.003241
450 0.003239
451 0.003010
452 0.002779
453 0.002726
454 0.002607
455 0.002617
456 0.002474
457 0.002528
458 0.002604
459 0.002638
460 0.002683
461 0.002786
462 0.002518
463 0.002274
464 0.002115
465 0.002024
466 0.002007
467 0.002274
468 0.002364
469 0.002520
470 0.002623
471 0.002630
472 0.002526
473 0.002534
474 0.002546
475 0.002757
476 0.002716
477 0.002650
478 0.002534
479 0.002527
480 0.002301
481 0.002213
482 0.001901
483 0.001708
484 0.001756
485 0.001517
486 0.001343
487 0.001126
488 0.001025
489 0.000751
490 0.000307
491 -0.000097
492 -0.000510
493 -0.000598
494 -0.000632
495 -0.000756
496 -0.000670
497 -0.000805
498 -0.000889
499 -0.001085
500 -0.001145
501 -0.001178
502 -0.001210
503 -0.001244
504 -0.001028
505 -0.000902
506 -0.000697
507 -0.000588
508 -0.000823
509 -0.000970
510 -0.000665
511 -0.000450
512 -0.000238
513 0.000141
514 0.000398
515 0.000674
516 0.000771
517 0.000742
518 0.000794
519 0.000920
520 0.000989
521 0.001121
522 0.001224
523 0.001247
524 0.001098
525 0.000992
526 0.000735
527 0.000570
528 0.000271
529 -0.000019
530 -0.000292
531 -0.000601
532 -0.000700
533 -0.000703
534 -0.000684
535 -0.000869
536 -0.001100
537 -0.001235
538 -0.001316
539 -0.001482
540 -0.001561
541 -0.001680
542 -0.001756
543 -0.001876
544 -0.001898
545 -0.001922
546 -0.001965
547 -0.002067
548 -0.002103
549 -0.002126
550 -0.002008
551 -0.001915
552 -0.001932
553 -0.002124
554 -0.002353
555 -0.002474
556 -0.002461
557 -0.002382
558 -0.002253
559 -0.002186
560 -0.001956
561 -0.001701
562 -0.001443
563 -0.001154
564 -0.000904
565 -0.000671
566 -0.000706
567 -0.000827
568 -0.000861
569 -0.000667
570 -0.000589
571 -0.000572
572 -0.000417
573 -0.000278
574 -0.000063
575 -0.000019
576 0.000003
577 0.000150
578 0.000169
579 0.000267
580 0.000234
581 0.000105
582 0.000052
583 -0.000172
584 -0.000336
585 -0.000297
586 -0.000076
587 0.000207
588 0.000253
589 0.000057
590 -0.000069
591 -0.000201
592 -0.000169
593 -0.000213
594 -0.000561
595 -0.000621
596 -0.000600
597 -0.000537
598 -0.000469
599 -0.000483
600 -0.000569
601 -0.000511
602 -0.000512
603 -0.000499
604 -0.000544
605 -0.000644
606 -0.000602
607 -0.000524
608 -0.000433
609 -0.000428
610 -0.000434
611 -0.000552
612 -0.000737
613 -0.000870
614 -0.001003
615 -0.000969
616 -0.000725
617 -0.000593
618 -0.000712
619 -0.000768
620 -0.000651
621 -0.000561
622 -0.000396
623 -0.000161
624 -0.000059
625 -0.000003
626 0.000176
627 0.000264
628 0.000494
629 0.000777
630 0.001044
631 0.001313
632 0.001487
633 0.001739
634 0.001876
635 0.001860
636 0.001723
637 0.001555
638 0.001413
639 0.001412
640 0.001316
641 0.001338
642 0.001443
643 0.001427
644 0.001256
645 0.000998
646 0.000733
647 0.000605
648 0.000379
649 0.000247
650 0.000276
651 0.000165
652 0.000078
653 -0.000013
654 -0.000159
655 -0.000266
656 -0.000303
657 -0.000488
658 -0.000663
659 -0.000710
660 -0.000705
661 -0.000717
662 -0.000642
663 -0.000598
664 -0.000439
665 -0.000303
666 -0.000303
667 -0.000331
668 -0.000331
669 -0.000211
670 -0.000009
671 0.000013
672 0.000086
673 0.000167
674 0.000265
675 0.000342
676 0.000524
677 0.000709
678 0.000892
679 0.000859
680 0.000798
681 0.000825
682 0.000858
683 0.000919
684 0.000825
685 0.000642
686 0.000571
687 0.000572
688 0.000639
689 0.000635
690 0.000544
691 0.000620
692 0.000619
693 0.000560
694 0.000494
695 0.000494
696 0.000552
697 0.000678
698 0.000693
699 0.000743
700 0.000751
701 0.000745
702 0.000591
703 0.000484
704 0.000554
705 0.000667
706 0.000726
707 0.000759
708 0.000889
709 0.000892
710 0.000892
711 0.000852
712 0.000676
713 0.000708
714 0.000740
715 0.000814
716 0.000867
717 0.000911
718 0.000928
719 0.000960
720 0.000923
721 0.000736
722 0.000657
723 0.000539
724 0.000486
725 0.000486
726 0.000479
727 0.000473
728 0.000452
729 0.000256
730 0.000106
731 0.000042
732 0.000106
733 0.000242
734 0.000421
735 0.000449
736 0.000560
737 0.000672
738 0.000702
739 0.000746
740 0.000749
741 0.000708
742 0.000658
743 0.000746
744 0.000834
745 0.000864
746 0.000805
747 0.000699
748 0.000463
749 0.000257
750 0.000111
751 0.000016
752 -0.000173
753 -0.000200
754 -0.000243
755 -0.000397
756 -0.000502
757 -0.000616
758 -0.000759
759 -0.000739
760 -0.000785
761 -0.000822
762 -0.000909
763 -0.001031
764 -0.001105
765 -0.001223
766 -0.001340
767 -0.001306
768 -0.001267
769 -0.001258
770 -0.001136
771 -0.001114
772 -0.001024
773 -0.000960
774 -0.001003
775 -0.001198
776 -0.001238
777 -0.001297
778 -0.001336
779 -0.001370
780 -0.001363
781 -0.001256
782 -0.001154
783 -0.001157
784 -0.001198
785 -0.001263
786 -0.001277
787 -0.001333
788 -0.001419
789 -0.001364
790 -0.001198
791 -0.001127
792 -0.001129
793 -0.001084
794 -0.001163
795 -0.001134
796 -0.001010
797 -0.000972
798 -0.000935
799 -0.000767
800 -0.000656
801 -0.000521
802 -0.000442
803 -0.000403
804 -0.000330
805 -0.000367
806 -0.000434
807 -0.000433
808 -0.000458
809 -0.000353
