# i correlation
1 0.019307
2 0.016547
3 0.014556
4 0.013218
5 0.011943
6 0.010900
7 0.009504
8 0.008188
9 0.007265
10 0.006382
11 0.005806
12 0.005440
13 0.004834
14 0.004279
15 0.004018
16 0.003888
17 0.003953
18 0.003630
19 0.003359
20 0.003148
21 0.002889
22 0.002792
23 0.002683
24 0.002531
25 0.002580
26 0.002587
27 0.002534
28 0.002537
29 0.002759
30 0.002531
31 0.002524
32 0.002803
33 0.003249
34 0.003713
35 0.003718
36 0.004071
37 0.004445
38 0.004788
39 0.004922
40 0.004984
41 0.004900
42 0.004827
43 0.004724
44 0.004877
45 0.004847
46 0.004687
47 0.004387
48 0.004002
49 0.003803
50 0.003312
51 0.003250
52 0.002872
53 0.002522
54 0.001969
55 0.001714
56 0.001427
57 0.001640
58 0.001563
59 0.001357
60 0.001018
61 0.001269
62 0.001436
63 0.001706
64 0.001913
65 0.002097
66 0.002104
67 0.002015
68 0.001973
69 0.001708
70 0.001518
71 0.001320
72 0.001225
73 0.001043
74 0.000998
75 0.001020
76 0.001171
77 0.001510
78 0.001948
79 0.002508
80 0.002810
81 0.003051
82 0.003113
83 0.003244
84 0.003550
85 0.003894
86 0.004050
87 0.003996
88 0.003998
89 0.003945
90 0.003915
91 0.003852
92 0.003448
93 0.003243
94 0.003272
95 0.003408
96 0.003502
97 0.003650
98 0.003558
99 0.003627
100 0.003812
101 0.003855
102 0.003826
103 0.003913
104 0.003932
105 0.004086
106 0.004262
107 0.004151
108 0.004243
109 0.004505
110 0.004877
111 0.005204
112 0.005291
113 0.005179
114 0.005226
115 0.005102
116 0.004974
117 0.004959
118 0.005027
119 0.004896
120 0.004894
121 0.004754
122 0.004615
123 0.004524
124 0.004045
125 0.003652
126 0.003588
127 0.003561
128 0.003407
129 0.003035
130 0.002617
131 0.002501
132 0.002526
133 0.002476
134 0.002292
135 0.002109
136 0.001796
137 0.001634
138 0.001546
139 0.001685
140 0.001913
141 0.001776
142 0.001554
143 0.001643
144 0.002016
145 0.002420
146 0.002517
147 0.002391
148 0.002480
149 0.002667
150 0.002790
151 0.002880
152 0.002901
153 0.002455
154 0.002202
155 0.002552
156 0.003057
157 0.003259
158 0.003242
159 0.003203
160 0.002885
161 0.002616
162 0.002671
163 0.002504
164 0.002542
165 0.002690
166 0.002559
167 0.002445
168 0.002465
169 0.002358
170 0.002002
171 0.002101
172 0.002381
173 0.002648
174 0.002773
175 0.002865
176 0.002556
177 0.002258
178 0.002112
179 0.002039
180 0.001700
181 0.001277
182 0.000939
183 0.000790
184 0.000988
185 0.001365
186 0.001434
187 0.001084
188 0.001121
189 0.001293
190 0.001518
191 0.001627
192 0.001511
193 0.001423
194 0.001449
195 0.001665
196 0.001723
197 0.001719
198 0.001531
199 0.001565
200 0.001838
201 0.002331
202 0.002770
203 0.003011
204 0.003076
205 0.003101
206 0.002984
207 0.002831
208 0.002984
209 0.003072
210 0.002930
211 0.002979
212 0.003184
213 0.003461
214 0.003675
215 0.003521
216 0.003142
217 0.002889
218 0.002553
219 0.002417
220 0.002275
221 0.002282
222 0.002673
223 0.003158
224 0.003281
225 0.003147
226 0.002965
227 0.002895
228 0.003112
229 0.003395
230 0.003551
231 0.003365
232 0.003215
233 0.002722
234 0.002308
235 0.002266
236 0.002516
237 0.002837
238 0.003054
239 0.003079
240 0.003190
241 0.003431
242 0.003435
243 0.003247
244 0.003038
245 0.002516
246 0.002283
247 0.002161
248 0.002100
249 0.001986
250 0.001880
251 0.001916
252 0.002174
253 0.002664
254 0.002973
255 0.003227
256 0.003575
257 0.003603
258 0.003627
259 0.003445
260 0.003359
261 0.003227
262 0.003115
263 0.002811
264 0.002447
265 0.002360
266 0.002359
267 0.002410
268 0.002473
269 0.002574
270 0.002575
271 0.002550
272 0.002210
273 0.002063
274 0.002027
275 0.001847
276 0.001752
277 0.001506
278 0.001495
279 0.001355
280 0.001366
281 0.001360
282 0.001302
283 0.001165
284 0.001059
285 0.001216
286 0.001339
287 0.001507
288 0.001365
289 0.001322
290 0.001588
291 0.002088
292 0.002398
293 0.002548
294 0.002510
295 0.002649
296 0.002845
297 0.002769
298 0.002722
299 0.002704
300 0.002879
301 0.002969
302 0.003165
303 0.003176
304 0.003190
305 0.003064
306 0.002810
307 0.002810
308 0.002931
309 0.002914
310 0.002680
311 0.002579
312 0.002429
313 0.002521
314 0.002622
315 0.002561
316 0.002451
317 0.002546
318 0.002569
319 0.002672
320 0.002661
321 0.002443
322 0.002244
323 0.002497
324 0.002864
325 0.003035
326 0.003010
327 0.003095
328 0.003075
329 0.003169
330 0.003168
331 0.003144
332 0.003122
333 0.003192
334 0.003403
335 0.003737
336 0.004080
337 0.004448
338 0.004488
339 0.004516
340 0.004698
341 0.004905
342 0.005135
343 0.004999
344 0.004920
345 0.004711
346 0.004502
347 0.004167
348 0.003845
349 0.003474
350 0.003176
351 0.002830
352 0.002500
353 0.002304
354 0.001905
355 0.001705
356 0.001276
357 0.001187
358 0.001246
359 0.001295
360 0.001147
361 0.001027
362 0.001023
363 0.001184
364 0.001618
365 0.001761
366 0.001603
367 0.001581
368 0.001616
369 0.001635
370 0.001817
371 0.001920
372 0.001886
373 0.001981
374 0.002182
375 0.002277
376 0.002529
377 0.002630
378 0.002871
379 0.002995
380 0.003193
381 0.003440
382 0.003314
383 0.003116
384 0.003263
385 0.002975
386 0.002693
387 0.002737
388 0.002915
389 0.002682
390 0.002424
391 0.002046
392 0.001711
393 0.001512
394 0.001417
395 0.001180
396 0.001166
397 0.000990
398 0.000696
399 0.000368
400 0.000060
401 0.000013
402 0.000166
403 0.000630
404 0.001041
405 0.001347
406 0.001550
407 0.001569
408 0.001602
409 0.001619
410 0.001873
411 0.001874
412 0.002087
413 0.002351
414 0.002515
415 0.002656
416 0.002720
417 0.002661
418 0.002499
419 0.002244
420 0.002023
421 0.001935
422 0.001840
423 0.001800
424 0.001829
425 0.002011
426 0.002100
427 0.002189
428 0.002174
429 0.002193
430 0.002150
431 0.002056
432 0.001870
433 0.001571
434 0.001060
435 0.000797
436 0.000518
437 0.000423
438 0.000050
439 -0.000151
440 -0.000284
441 -0.000040
442 0.000252
443 0.000561
444 0.000712
445 0.001028
446 0.001311
447 0.001422
448 0.001381
449 0.001276
450 0.001081
451 0.000864
452 0.000652
453 0.000663
454 0.000659
455 0.000544
456 0.000238
457 -0.000164
458 -0.000331
459 -0.000388
460 -0.000239
461 -0.000227
462 -0.000296
463 -0.000090
464 0.000293
465 0.000634
466 0.000864
467 0.000937
468 0.001229
469 0.001629
470 0.001944
471 0.002128
472 0.001976
473 0.001825
474 0.001695
475 0.001777
476 0.001706
477 0.001412
478 0.001125
479 0.001007
480 0.000798
481 0.000692
482 0.000757
483 0.000629
484 0.000529
485 0.000448
486 0.000451
487 0.000470
488 0.000351
489 0.000237
490 0.000327
491 0.000462
492 0.000753
493 0.000984
494 0.001127
495 0.001008
496 0.001020
497 0.001008
498 0.001040
499 0.000978
500 0.000796
501 0.000587
502 0.000448
503 0.000417
504 0.000629
505 0.000718
506 0.000646
507 0.000639
508 0.000807
509 0.001214
510 0.001601
511 0.001778
512 0.001929
513 0.002087
514 0.002277
515 0.002520
516 0.002483
517 0.002217
518 0.001881
519 0.001579
520 0.001237
521 0.000974
522 0.000905
523 0.000975
524 0.001172
525 0.001165
526 0.001137
527 0.001276
528 0.001386
529 0.001384
530 0.001414
531 0.001409
532 0.001508
533 0.001698
534 0.001738
535 0.001620
536 0.001753
537 0.001805
538 0.001736
539 0.001873
540 0.002191
541 0.002260
542 0.002207
543 0.002277
544 0.002331
545 0.002201
546 0.002072
547 0.001934
548 0.001753
549 0.001720
550 0.001718
551 0.001648
552 0.001612
553 0.001602
554 0.001458
555 0.001374
556 0.001295
557 0.001013
558 0.000772
559 0.000728
560 0.000759
561 0.000850
562 0.000803
563 0.000485
564 0.000216
565 0.000020
566 -0.000095
567 -0.000125
568 -0.000245
569 -0.000325
570 -0.000572
571 -0.000691
572 -0.000637
573 -0.000392
574 -0.000329
575 -0.000205
576 0.000023
577 0.000268
578 0.000505
579 0.000778
580 0.000959
581 0.001163
582 0.001312
583 0.001403
584 0.001466
585 0.001520
586 0.001550
587 0.001527
588 0.001615
589 0.001584
590 0.001448
591 0.001288
592 0.001247
593 0.001325
594 0.001387
595 0.001371
596 0.001286
597 0.001136
598 0.001254
599 0.001221
600 0.001061
601 0.001004
602 0.000972
603 0.000757
604 0.000590
605 0.000357
606 0.000221
607 0.000007
608 -0.000176
609 -0.000422
610 -0.000488
611 -0.000594
612 -0.000825
613 -0.000778
614 -0.000853
615 -0.000886
616 -0.001004
617 -0.001160
618 -0.001057
619 -0.000753
620 -0.000314
621 -0.000172
622 -0.000120
623 -0.000302
624 -0.000340
625 -0.000094
626 0.000195
627 0.000424
628 0.000664
629 0.000647
630 0.000755
631 0.000855
632 0.001136
633 0.001352
634 0.001463
635 0.001431
636 0.001522
637 0.001687
638 0.001717
639 0.001600
640 0.001572
641 0.001426
642 0.001419
643 0.001395
644 0.001429
645 0.001414
646 0.001403
647 0.001285
648 0.000955
649 0.000811
650 0.000819
651 0.000825
652 0.000516
653 0.000192
654 0.000049
655 -0.000034
656 -0.000176
657 -0.000288
658 -0.000430
659 -0.000416
660 -0.000494
661 -0.000588
662 -0.000642
663 -0.000753
664 -0.000811
665 -0.000686
666 -0.000365
667 -0.000059
668 0.000145
669 0.000234
670 0.000260
671 0.000499
672 0.000940
673 0.001323
674 0.001389
675 0.001289
676 0.001118
677 0.001138
678 0.001162
679 0.001378
680 0.001385
681 0.001300
682 0.001053
683 0.001114
684 0.001240
685 0.001269
686 0.001062
687 0.000909
688 0.000874
689 0.000802
690 0.000658
691 0.000589
692 0.000473
693 0.000329
694 0.000115
695 0.000095
696 -0.000034
697 -0.000116
698 -0.000116
699 -0.000079
700 -0.000096
701 -0.000128
702 -0.000204
703 -0.000259
704 -0.000209
705 -0.000132
706 -0.000133
707 -0.000153
708 -0.000012
709 0.000049
710 0.000043
711 -0.000096
712 -0.000124
713 -0.000151
714 -0.000308
715 -0.000386
716 -0.000357
717 -0.000143
718 -0.000047
719 0.000066
720 0.000152
721 0.000327
722 0.000375
723 0.000357
724 0.000449
725 0.000527
726 0.000500
727 0.000342
728 0.000290
729 0.000316
730 0.000204
731 0.000024
732 -0.000198
733 -0.000349
734 -0.000423
735 -0.000550
736 -0.000598
737 -0.000486
738 -0.000430
739 -0.000366
740 -0.000273
741 -0.000164
742 -0.000137
743 -0.000331
744 -0.000431
745 -0.000535
746 -0.000371
747 -0.000227
748 -0.000230
749 -0.000399
750 -0.000483
751 -0.000426
752 -0.000397
753 -0.000329
754 -0.000341
755 -0.000417
756 -0.000465
757 -0.000399
758 -0.000300
759 -0.000325
760 -0.000344
761 -0.000318
762 -0.000359
763 -0.000386
764 -0.000428
765 -0.000424
766 -0.000386
767 -0.000467
768 -0.000459
769 -0.000463
770 -0.000303
771 -0.000381
772 -0.000455
773 -0.000599
774 -0.000706
775 -0.000911
776 -0.001195
777 -0.001276
778 -0.001182
779 -0.001217
780 -0.001306
781 -0.001353
782 -0.001146
783 -0.000935
784 -0.000692
785 -0.000564
786 -0.000523
787 -0.000426
788 -0.000333
789 -0.000181
790 0.000092
791 0.000298
792 0.000389
793 0.000429
794 0.000565
795 0.000683
796 0.000613
797 0.000444
798 0.000283
799 0.000233
800 0.000149
801 0.000034
802 -0.000069
803 -0.000182
804 -0.000315
805 -0.000379
806 -0.000303
807 -0.000302
808 -0.000270
809 -0.000228
