# i correlation
1 0.016837
2 0.014133
3 0.012094
4 0.010468
5 0.008957
6 0.007751
7 0.006721
8 0.005982
9 0.005307
10 0.004833
11 0.004068
12 0.003406
13 0.002667
14 0.002180
15 0.001853
16 0.001223
17 0.000832
18 0.000859
19 0.000755
20 0.000683
21 0.000802
22 0.000996
23 0.001122
24 0.001203
25 0.001228
26 0.001338
27 0.001390
28 0.001262
29 0.001233
30 0.001238
31 0.001331
32 0.001555
33 0.001706
34 0.001758
35 0.001807
36 0.001662
37 0.001490
38 0.001411
39 0.001442
40 0.001154
41 0.000989
42 0.000821
43 0.000585
44 0.000269
45 0.000414
46 0.000456
47 0.000693
48 0.000938
49 0.000938
50 0.000770
51 0.000566
52 0.000460
53 0.000499
54 0.000462
55 0.000348
56 0.000302
57 0.000646
58 0.000776
59 0.000722
60 0.000760
61 0.000918
62 0.000723
63 0.000739
64 0.000596
65 0.000298
66 0.000171
67 0.000279
68 0.000273
69 0.000325
70 -0.000016
71 -0.000318
72 -0.000551
73 -0.000909
74 -0.001257
75 -0.001347
76 -0.001397
77 -0.001515
78 -0.001598
79 -0.001722
80 -0.002126
81 -0.002400
82 -0.002359
83 -0.002322
84 -0.002292
85 -0.002277
86 -0.002049
87 -0.001509
88 -0.001140
89 -0.000865
90 -0.000686
91 -0.000332
92 -0.000044
93 -0.000141
94 -0.000290
95 -0.000496
96 -0.000445
97 -0.000558
98 -0.000741
99 -0.000865
100 -0.000931
101 -0.000979
102 -0.001029
103 -0.001262
104 -0.001609
105 -0.001912
106 -0.001917
107 -0.001503
108 -0.000941
109 -0.000503
110 -0.000095
111 0.000308
112 0.000532
113 0.000382
114 0.000494
115 0.000536
116 0.000659
117 0.000570
118 0.000609
119 0.000672
120 0.000432
121 0.000498
122 0.000444
123 0.000331
124 0.000349
125 0.000442
126 0.000484
127 0.000710
128 0.000596
129 0.000577
130 0.000629
131 0.000555
132 0.000534
133 0.000545
134 0.000729
135 0.001185
136 0.001664
137 0.002010
138 0.002155
139 0.002323
140 0.002474
141 0.002511
142 0.002462
143 0.002389
144 0.002404
145 0.002315
146 0.002239
147 0.002183
148 0.002121
149 0.001895
150 0.001482
151 0.001015
152 0.000267
153 -0.000102
154 -0.000342
155 -0.000456
156 -0.000586
157 -0.000526
158 -0.000372
159 -0.000054
160 0.000228
161 0.000389
162 0.000346
163 0.000478
164 0.000773
165 0.000954
166 0.001192
167 0.001378
168 0.001553
169 0.001813
170 0.001951
171 0.001992
172 0.001819
173 0.001592
174 0.001474
175 0.001495
176 0.001372
177 0.001180
178 0.001102
179 0.001161
180 0.001032
181 0.000948
182 0.000905
183 0.000516
184 0.000051
185 -0.000051
186 -0.000120
187 -0.000333
188 -0.000601
189 -0.000941
190 -0.001089
191 -0.001174
192 -0.001292
193 -0.001337
194 -0.001399
195 -0.001363
196 -0.001278
197 -0.001148
198 -0.001012
199 -0.000791
200 -0.000526
201 -0.000361
202 -0.000440
203 -0.000197
204 0.000026
205 0.000402
206 0.000925
207 0.001404
208 0.001861
209 0.001869
210 0.002059
211 0.002257
212 0.002349
213 0.002115
214 0.001942
215 0.001378
216 0.000895
217 0.000603
218 0.000530
219 0.000268
220 0.000177
221 0.000152
222 -0.000061
223 -0.000217
224 -0.000182
225 -0.000143
226 0.000224
227 0.000718
228 0.000998
229 0.001330
230 0.001567
231 0.001580
232 0.001839
233 0.002015
234 0.001991
235 0.002142
236 0.002247
237 0.002412
238 0.002531
239 0.002349
240 0.002017
241 0.001479
242 0.001012
243 0.000857
244 0.000591
245 0.000240
246 0.000089
247 -0.000017
248 0.000021
249 -0.000004
250 -0.000192
251 -0.000371
252 -0.000473
253 -0.000405
254 -0.000539
255 -0.000537
256 -0.000312
257 -0.000362
258 -0.000148
259 -0.000163
260 -0.000018
261 0.000189
262 0.000256
263 0.000184
264 0.000148
265 0.000211
266 0.000341
267 0.000404
268 0.000499
269 0.000546
270 0.000703
271 0.000830
272 0.000944
273 0.001015
274 0.001262
275 0.001349
276 0.001594
277 0.001684
278 0.001757
279 0.001756
280 0.001656
281 0.001425
282 0.001242
283 0.001137
284 0.000940
285 0.000841
286 0.001097
287 0.001316
288 0.001428
289 0.001453
290 0.001402
291 0.001124
292 0.000469
293 -0.000002
294 -0.000434
295 -0.000756
296 -0.000856
297 -0.000853
298 -0.001016
299 -0.001177
300 -0.001122
301 -0.000809
302 -0.000733
303 -0.000701
304 -0.000459
305 -0.000342
306 -0.000196
307 -0.000083
308 0.000053
309 0.000318
310 0.000662
311 0.000934
312 0.000868
313 0.000703
314 0.000649
315 0.000900
316 0.000913
317 0.000979
318 0.000857
319 0.000850
320 0.000670
321 0.000672
322 0.000918
323 0.000841
324 0.000687
325 0.000538
326 0.000334
327 0.000346
328 0.000508
329 0.000599
330 0.000539
331 0.000081
332 -0.000413
333 -0.000966
334 -0.001503
335 -0.001798
336 -0.001873
337 -0.001981
338 -0.001848
339 -0.001550
340 -0.001438
341 -0.001354
342 -0.001176
343 -0.001051
344 -0.000913
345 -0.000702
346 -0.000568
347 -0.000201
348 0.000371
349 0.000886
350 0.001140
351 0.001220
352 0.001207
353 0.001141
354 0.001065
355 0.000745
356 0.000891
357 0.001219
358 0.001376
359 0.001276
360 0.001022
361 0.000755
362 0.000683
363 0.000669
364 0.000669
365 0.000882
366 0.000862
367 0.000886
368 0.001059
369 0.001163
370 0.001293
371 0.001550
372 0.001890
373 0.002175
374 0.002528
375 0.002997
376 0.003113
377 0.003033
378 0.002911
379 0.002644
380 0.002447
381 0.002223
382 0.001916
383 0.001722
384 0.001304
385 0.001035
386 0.000799
387 0.000550
388 0.000436
389 -0.000075
390 -0.000483
391 -0.000825
392 -0.001104
393 -0.001164
394 -0.001378
395 -0.001592
396 -0.001572
397 -0.001380
398 -0.001023
399 -0.000756
400 -0.000545
401 -0.000554
402 -0.000444
403 -0.000198
404 0.000077
405 0.000294
406 0.000402
407 0.000553
408 0.000514
409 0.000380
410 0.000175
411 0.000284
412 0.000388
413 0.000702
414 0.000997
415 0.001140
416 0.001051
417 0.001007
418 0.000975
419 0.000957
420 0.000829
421 0.000619
422 0.000444
423 0.000394
424 0.000292
425 0.000154
426 0.000102
427 -0.000086
428 -0.000423
429 -0.000564
430 -0.000631
431 -0.000558
432 -0.000676
433 -0.000767
434 -0.000841
435 -0.000669
436 -0.000395
437 -0.000176
438 0.000013
439 0.000143
440 0.000323
441 0.000575
442 0.000518
443 0.000493
444 0.000530
445 0.000574
446 0.000694
447 0.000724
448 0.000675
449 0.000738
450 0.000732
451 0.000674
452 0.000458
453 0.000008
454 -0.000506
455 -0.000747
456 -0.000828
457 -0.000942
458 -0.000838
459 -0.000617
460 -0.000438
461 -0.000351
462 -0.000401
463 -0.000503
464 -0.000549
465 -0.000416
466 -0.000420
467 -0.000545
468 -0.000586
469 -0.000700
470 -0.000766
471 -0.000929
472 -0.000930
473 -0.000962
474 -0.000996
475 -0.001087
476 -0.001081
477 -0.001055
478 -0.001285
479 -0.001396
480 -0.001495
481 -0.001676
482 -0.001606
483 -0.001528
484 -0.001366
485 -0.001353
486 -0.001287
487 -0.001161
488 -0.000876
489 -0.000706
490 -0.000599
491 -0.000483
492 -0.000253
493 -0.000093
494 0.000040
495 0.000025
496 0.000009
497 0.000083
498 0.000121
499 0.000027
500 -0.000078
501 -0.000124
502 -0.000270
503 -0.000462
504 -0.000453
505 -0.000450
506 -0.000443
507 -0.000415
508 -0.000557
509 -0.000668
510 -0.000669
511 -0.000866
512 -0.000977
513 -0.000950
514 -0.000802
515 -0.000575
516 -0.000494
517 -0.000450
518 -0.000270
519 -0.000157
520 -0.000098
521 -0.000080
522 -0.000056
523 0.000139
524 0.000259
525 0.000399
526 0.000300
527 0.000258
528 0.000284
529 0.000443
530 0.000441
531 0.000145
532 -0.000183
533 -0.000591
534 -0.000825
535 -0.001033
536 -0.001180
537 -0.001327
538 -0.001456
539 -0.001416
540 -0.001332
541 -0.001402
542 -0.001427
543 -0.001290
544 -0.001244
545 -0.001375
546 -0.001563
547 -0.001729
548 -0.001946
549 -0.001988
550 -0.001933
551 -0.001836
552 -0.001670
553 -0.001436
554 -0.001212
555 -0.001022
556 -0.001038
557 -0.000977
558 -0.001110
559 -0.001265
560 -0.001255
561 -0.001230
562 -0.001182
563 -0.001239
564 -0.001136
565 -0.001157
566 -0.001274
567 -0.001339
568 -0.001195
569 -0.001344
570 -0.001465
571 -0.001651
572 -0.001806
573 -0.001826
574 -0.001850
575 -0.001755
576 -0.001705
577 -0.001484
578 -0.001294
579 -0.000993
580 -0.000757
581 -0.000675
582 -0.000469
583 -0.000140
584 0.000123
585 0.000470
586 0.000779
587 0.000990
588 0.001115
589 0.001267
590 0.001269
591 0.001127
592 0.000957
593 0.000856
594 0.000746
595 0.000551
596 0.000312
597 0.000117
598 -0.000073
599 -0.000154
600 -0.000122
601 -0.000096
602 -0.000196
603 -0.000457
604 -0.000475
605 -0.000447
606 -0.000352
607 -0.000339
608 -0.000471
609 -0.000578
610 -0.000620
611 -0.000692
612 -0.000590
613 -0.000536
614 -0.000396
615 -0.000207
616 -0.000009
617 0.000170
618 0.000435
619 0.000620
620 0.000591
621 0.000657
622 0.000677
623 0.000696
624 0.000558
625 0.000488
626 0.000506
627 0.000581
628 0.000654
629 0.000835
630 0.000859
631 0.001051
632 0.001144
633 0.001275
634 0.001285
635 0.001186
636 0.001272
637 0.001473
638 0.001371
639 0.001477
640 0.001552
641 0.001668
642 0.001723
643 0.001757
644 0.001796
645 0.001635
646 0.001529
647 0.001451
648 0.001319
649 0.001256
650 0.001151
651 0.001297
652 0.001456
653 0.001589
654 0.001729
655 0.001778
656 0.001700
657 0.001517
658 0.001417
659 0.001231
660 0.001004
661 0.000825
662 0.000680
663 0.000587
664 0.000578
665 0.000361
666 0.000255
667 0.000017
668 -0.000188
669 -0.000404
670 -0.000547
671 -0.000611
672 -0.000632
673 -0.000629
674 -0.000567
675 -0.000595
676 -0.000329
677 -0.000317
678 -0.000204
679 -0.000154
680 -0.000103
681 -0.000177
682 -0.000326
683 -0.000552
684 -0.000694
685 -0.000750
686 -0.000665
687 -0.000496
688 -0.000354
689 -0.000210
690 -0.000171
691 -0.000199
692 -0.000178
693 -0.000123
694 -0.000056
695 -0.000105
696 -0.000128
697 -0.000225
698 -0.000276
699 -0.000442
700 -0.000595
701 -0.000715
702 -0.000795
703 -0.000874
704 -0.000941
705 -0.001109
706 -0.001282
707 -0.001548
708 -0.001770
709 -0.001911
710 -0.002001
711 -0.002003
712 -0.002012
713 -0.002055
714 -0.002074
715 -0.002010
716 -0.002045
717 -0.002044
718 -0.002127
719 -0.002168
720 -0.002202
721 -0.002115
722 -0.002071
723 -0.001927
724 -0.001773
725 -0.001497
726 -0.001309
727 -0.001218
728 -0.001115
729 -0.001032
730 -0.000867
731 -0.000754
732 -0.000807
733 -0.000744
734 -0.000706
735 -0.000606
736 -0.000627
737 -0.000578
738 -0.000630
739 -0.000673
740 -0.000739
741 -0.000773
742 -0.000793
743 -0.000846
744 -0.000854
745 -0.000801
746 -0.000749
747 -0.000744
748 -0.000697
749 -0.000669
750 -0.000484
751 -0.000327
752 -0.000222
753 -0.000025
754 0.000094
755 0.000151
756 0.000316
757 0.000276
758 0.000226
759 0.000078
760 0.000047
761 0.000049
762 -0.000012
763 0.000079
764 0.000118
765 0.000238
766 0.000305
767 0.000221
768 0.000140
769 0.000026
770 -0.000030
771 -0.000022
772 -0.000016
773 0.000015
774 -0.000071
775 -0.000096
776 -0.000116
777 -0.000224
778 -0.000179
779 -0.000265
780 -0.000294
781 -0.000337
782 -0.000300
783 -0.000302
784 -0.000390
785 -0.000441
786 -0.000457
787 -0.000307
788 -0.000011
789 0.000193
790 0.000418
791 0.000591
792 0.000675
793 0.000695
794 0.000663
795 0.000733
796 0.000650
797 0.000699
798 0.000775
799 0.000934
800 0.001055
801 0.001152
802 0.001113
803 0.001084
804 0.001033
805 0.000949
806 0.000842
807 0.000778
808 0.000670
809 0.000540
