# i correlation
1 0.022185
2 0.019382
3 0.016991
4 0.015221
5 0.013999
6 0.013202
7 0.012506
8 0.012073
9 0.011221
10 0.010525
11 0.009623
12 0.008874
13 0.008443
14 0.007978
15 0.007694
16 0.007638
17 0.007513
18 0.007190
19 0.006660
20 0.006438
21 0.005958
22 0.005379
23 0.005305
24 0.005088
25 0.004957
26 0.004636
27 0.004247
28 0.003753
29 0.003095
30 0.002527
31 0.002098
32 0.002006
33 0.002217
34 0.002380
35 0.002494
36 0.002594
37 0.002567
38 0.002353
39 0.002148
40 0.002119
41 0.002942
42 0.003562
43 0.003866
44 0.003916
45 0.003858
46 0.003631
47 0.003594
48 0.003347
49 0.003447
50 0.003375
51 0.003415
52 0.003791
53 0.004040
54 0.004232
55 0.004024
56 0.003573
57 0.003013
58 0.002220
59 0.001811
60 0.001596
61 0.001595
62 0.001626
63 0.001545
64 0.001642
65 0.001810
66 0.001770
67 0.001976
68 0.001695
69 0.001320
70 0.001375
71 0.001249
72 0.000990
73 0.000568
74 0.000399
75 0.000469
76 0.000519
77 0.000993
78 0.001359
79 0.001405
80 0.001702
81 0.001443
82 0.001397
83 0.001547
84 0.001530
85 0.001846
86 0.001984
87 0.001924
88 0.001898
89 0.001945
90 0.002064
91 0.002209
92 0.001900
93 0.002074
94 0.002170
95 0.002358
96 0.002499
97 0.002686
98 0.002778
99 0.002824
100 0.002904
101 0.003299
102 0.003674
103 0.003913
104 0.004220
105 0.004514
106 0.005212
107 0.005888
108 0.006508
109 0.006960
110 0.007292
111 0.007375
112 0.007265
113 0.007043
114 0.006808
115 0.006498
116 0.006290
117 0.006074
118 0.005875
119 0.005852
120 0.005857
121 0.005920
122 0.005825
123 0.005633
124 0.005478
125 0.005216
126 0.004893
127 0.004784
128 0.004481
129 0.004579
130 0.004595
131 0.004620
132 0.004504
133 0.004267
134 0.003997
135 0.003383
136 0.002766
137 0.002682
138 0.002602
139 0.002148
140 0.001771
141 0.001332
142 0.001154
143 0.001102
144 0.000931
145 0.000762
146 0.000231
147 -0.000095
148 -0.000336
149 -0.000673
150 -0.000665
151 -0.000620
152 -0.000470
153 -0.000540
154 -0.000529
155 -0.000678
156 -0.000754
157 -0.000612
158 -0.000197
159 -0.000079
160 0.000138
161 0.000246
162 0.000207
163 0.000354
164 0.000202
165 0.000211
166 0.000241
167 -0.000121
168 -0.000010
169 -0.000106
170 -0.000251
171 -0.000025
172 0.000007
173 -0.000090
174 -0.000095
175 0.000061
176 0.000540
177 0.000707
178 0.000970
179 0.001065
180 0.000913
181 0.000731
182 0.000507
183 0.000169
184 0.000131
185 0.000331
186 0.000547
187 0.000530
188 0.000356
189 0.000129
190 -0.000429
191 -0.000346
192 -0.000389
193 -0.000138
194 -0.000191
195 -0.000153
196 -0.000330
197 -0.000575
198 -0.000830
199 -0.000854
200 -0.000840
201 -0.000702
202 -0.000683
203 -0.000908
204 -0.001057
205 -0.000816
206 -0.000679
207 -0.000623
208 -0.000412
209 -0.000062
210 -0.000017
211 0.000023
212 0.000394
213 0.000635
214 0.000642
215 0.000779
216 0.001067
217 0.001600
218 0.002297
219 0.002939
220 0.003784
221 0.004298
222 0.004725
223 0.005053
224 0.005043
225 0.005175
226 0.005189
227 0.005238
228 0.005407
229 0.005455
230 0.005451
231 0.005500
232 0.005594
233 0.005795
234 0.005607
235 0.005346
236 0.005250
237 0.004868
238 0.004758
239 0.004652
240 0.004489
241 0.004533
242 0.004522
243 0.004694
244 0.004546
245 0.004413
246 0.004211
247 0.004046
248 0.003814
249 0.003791
250 0.003596
251 0.003552
252 0.003197
253 0.002916
254 0.002909
255 0.002987
256 0.002841
257 0.002526
258 0.002175
259 0.002112
260 0.001852
261 0.001728
262 0.001701
263 0.001621
264 0.001436
265 0.001247
266 0.001151
267 0.001208
268 0.001380
269 0.001730
270 0.001924
271 0.002170
272 0.002259
273 0.002043
274 0.001955
275 0.002164
276 0.002059
277 0.001925
278 0.001839
279 0.001732
280 0.001567
281 0.001183
282 0.000858
283 0.000757
284 0.000871
285 0.001085
286 0.001225
287 0.001286
288 0.001571
289 0.001785
290 0.001947
291 0.001952
292 0.002236
293 0.002115
294 0.001741
295 0.001798
296 0.001819
297 0.001949
298 0.002276
299 0.002167
300 0.002097
301 0.001993
302 0.002102
303 0.002534
304 0.002449
305 0.002299
306 0.002154
307 0.001834
308 0.001629
309 0.001416
310 0.001329
311 0.001266
312 0.001227
313 0.001401
314 0.001432
315 0.001238
316 0.001412
317 0.001145
318 0.000974
319 0.000696
320 0.000390
321 0.000304
322 0.000318
323 0.000407
324 0.000392
325 0.000103
326 0.000022
327 0.000002
328 -0.000078
329 -0.000156
330 -0.000011
331 0.000125
332 0.000261
333 0.000647
334 0.001016
335 0.001240
336 0.001682
337 0.001796
338 0.001866
339 0.002100
340 0.002374
341 0.002732
342 0.002961
343 0.002872
344 0.002826
345 0.002833
346 0.002941
347 0.002959
348 0.002645
349 0.002468
350 0.002516
351 0.002550
352 0.002743
353 0.002697
354 0.002802
355 0.002802
356 0.002686
357 0.002839
358 0.002738
359 0.002663
360 0.002516
361 0.002227
362 0.001859
363 0.001769
364 0.001579
365 0.001515
366 0.001362
367 0.001083
368 0.000660
369 0.000382
370 0.000241
371 0.000084
372 -0.000149
373 -0.000306
374 -0.000585
375 -0.000917
376 -0.001289
377 -0.001491
378 -0.001346
379 -0.001557
380 -0.001614
381 -0.001639
382 -0.001768
383 -0.001948
384 -0.002179
385 -0.002404
386 -0.002292
387 -0.002115
388 -0.001760
389 -0.001448
390 -0.001362
391 -0.001265
392 -0.001356
393 -0.001291
394 -0.001126
395 -0.001137
396 -0.001125
397 -0.001234
398 -0.001426
399 -0.001559
400 -0.001876
401 -0.001935
402 -0.002004
403 -0.002047
404 -0.001880
405 -0.001736
406 -0.001750
407 -0.001776
408 -0.001713
409 -0.001657
410 -0.001605
411 -0.001271
412 -0.000911
413 -0.000463
414 -0.000003
415 0.000082
416 0.000019
417 -0.000058
418 -0.000171
419 -0.000244
420 -0.000314
421 -0.000285
422 -0.000078
423 -0.000099
424 -0.000092
425 -0.000105
426 -0.000265
427 -0.000375
428 -0.000533
429 -0.000501
430 -0.000300
431 -0.000047
432 0.000222
433 0.000137
434 -0.000002
435 -0.000203
436 -0.000462
437 -0.000687
438 -0.000711
439 -0.000868
440 -0.000715
441 -0.000594
442 -0.000667
443 -0.000674
444 -0.000774
445 -0.000823
446 -0.000891
447 -0.000999
448 -0.001164
449 -0.001317
450 -0.001452
451 -0.001580
452 -0.001685
453 -0.001870
454 -0.002051
455 -0.002104
456 -0.001938
457 -0.001692
458 -0.001488
459 -0.001463
460 -0.001464
461 -0.001141
462 -0.001287
463 -0.001160
464 -0.000951
465 -0.000766
466 -0.000390
467 0.000076
468 0.000517
469 0.000801
470 0.000769
471 0.000685
472 0.000350
473 -0.000013
474 -0.000115
475 -0.000102
476 -0.000021
477 -0.000050
478 -0.000106
479 0.000016
480 -0.000040
481 -0.000173
482 -0.000311
483 -0.000560
484 -0.000378
485 -0.000439
486 -0.000466
487 -0.000779
488 -0.000867
489 -0.001170
490 -0.001422
491 -0.001764
492 -0.002010
493 -0.002458
494 -0.002629
495 -0.002796
496 -0.002843
497 -0.002894
498 -0.002701
499 -0.002681
500 -0.002763
501 -0.002791
502 -0.002631
503 -0.002642
504 -0.002397
505 -0.002439
506 -0.002661
507 -0.002782
508 -0.002902
509 -0.002947
510 -0.002946
511 -0.002736
512 -0.002341
513 -0.001986
514 -0.001770
515 -0.001563
516 -0.001441
517 -0.001282
518 -0.001110
519 -0.001099
520 -0.000944
521 -0.000530
522 0.000049
523 0.000805
524 0.001395
525 0.001737
526 0.001798
527 0.001702
528 0.001521
529 0.001305
530 0.001006
531 0.000983
532 0.000998
533 0.001017
534 0.001148
535 0.001271
536 0.001164
537 0.000899
538 0.000660
539 0.000684
540 0.000559
541 0.000762
542 0.000756
543 0.000769
544 0.000548
545 0.000407
546 0.000303
547 0.000346
548 0.000297
549 0.000300
550 0.000178
551 -0.000008
552 -0.000125
553 -0.000269
554 -0.000438
555 -0.000711
556 -0.001020
557 -0.001388
558 -0.001562
559 -0.001402
560 -0.001259
561 -0.001307
562 -0.001416
563 -0.001644
564 -0.001822
565 -0.001746
566 -0.001541
567 -0.001275
568 -0.001071
569 -0.000754
570 -0.000778
571 -0.000785
572 -0.000784
573 -0.000730
574 -0.000717
575 -0.000579
576 -0.000445
577 -0.000140
578 0.000029
579 0.000142
580 0.000061
581 0.000032
582 -0.000026
583 0.000075
584 0.000087
585 0.000020
586 -0.000146
587 -0.000120
588 0.000038
589 0.000008
590 0.000159
591 0.000387
592 0.000454
593 0.000274
594 -0.000015
595 -0.000176
596 -0.000307
597 -0.000519
598 -0.000616
599 -0.000609
600 -0.000662
601 -0.000666
602 -0.000664
603 -0.000845
604 -0.000989
605 -0.001285
606 -0.001433
607 -0.001702
608 -0.001731
609 -0.001624
610 -0.001632
611 -0.001539
612 -0.001499
613 -0.001363
614 -0.001190
615 -0.001125
616 -0.001009
617 -0.001015
618 -0.001093
619 -0.001060
620 -0.001111
621 -0.001148
622 -0.001129
623 -0.001122
624 -0.001087
625 -0.001044
626 -0.000974
627 -0.000820
628 -0.000894
629 -0.000758
630 -0.000654
631 -0.000745
632 -0.000546
633 -0.000181
634 0.000040
635 0.000107
636 0.000255
637 0.000421
638 0.000504
639 0.000328
640 0.000270
641 0.000031
642 -0.000058
643 -0.000116
644 -0.000053
645 0.000162
646 0.000251
647 0.000337
648 0.000357
649 0.000519
650 0.000593
651 0.000511
652 0.000511
653 0.000457
654 0.000481
655 0.000549
656 0.000625
657 0.000659
658 0.000860
659 0.000817
660 0.000738
661 0.000676
662 0.000606
663 0.000622
664 0.000604
665 0.000608
666 0.000555
667 0.000354
668 0.000302
669 0.000175
670 0.000131
671 -0.000204
672 -0.000542
673 -0.000798
674 -0.001024
675 -0.001148
676 -0.001217
677 -0.001298
678 -0.001472
679 -0.001479
680 -0.001452
681 -0.001274
682 -0.001285
683 -0.001268
684 -0.001219
685 -0.000985
686 -0.000807
687 -0.000706
688 -0.000805
689 -0.000723
690 -0.000598
691 -0.000621
692 -0.000697
693 -0.000702
694 -0.000695
695 -0.000825
696 -0.001077
697 -0.000989
698 -0.000988
699 -0.000829
700 -0.000534
701 -0.000274
702 -0.000096
703 -0.000027
704 -0.000038
705 -0.000010
706 -0.000047
707 0.000041
708 -0.000100
709 -0.000198
710 -0.000015
711 0.000049
712 0.000092
713 0.000068
714 -0.000089
715 -0.000245
716 -0.000544
717 -0.000667
718 -0.000786
719 -0.000929
720 -0.000994
721 -0.001189
722 -0.001304
723 -0.001460
724 -0.001636
725 -0.001839
726 -0.001906
727 -0.001920
728 -0.001929
729 -0.001927
730 -0.001792
731 -0.001723
732 -0.001768
733 -0.001951
734 -0.002002
735 -0.001850
736 -0.001684
737 -0.001631
738 -0.001736
739 -0.001854
740 -0.001871
741 -0.001861
742 -0.001813
743 -0.001707
744 -0.001530
745 -0.001325
746 -0.001138
747 -0.000954
748 -0.000969
749 -0.001103
750 -0.001296
751 -0.001448
752 -0.001487
753 -0.001443
754 -0.001289
755 -0.001084
756 -0.000910
757 -0.000735
758 -0.000709
759 -0.000676
760 -0.000616
761 -0.000529
762 -0.000339
763 -0.000280
764 -0.000183
765 -0.000155
766 -0.000071
767 0.000119
768 0.000233
769 0.000238
770 0.000262
771 0.000278
772 0.000278
773 0.000151
774 0.000155
775 0.000055
776 -0.000054
777 -0.000039
778 -0.000109
779 -0.000229
780 -0.000259
781 -0.000435
782 -0.000351
783 -0.000269
784 -0.000162
785 -0.000144
786 -0.000210
787 -0.000102
788 -0.000050
789 -0.000080
790 -0.000110
791 -0.000188
792 -0.000266
793 -0.000376
794 -0.000551
795 -0.000716
796 -0.000867
797 -0.000991
798 -0.001146
799 -0.001228
800 -0.001191
801 -0.001151
802 -0.001124
803 -0.001153
804 -0.001161
805 -0.001263
806 -0.001349
807 -0.001307
808 -0.001192
809 -0.001027
