# i correlation
1 0.018181
2 0.015322
3 0.013007
4 0.010807
5 0.009101
6 0.007767
7 0.007064
8 0.006222
9 0.005875
10 0.005172
11 0.004745
12 0.004523
13 0.004007
14 0.003272
15 0.002814
16 0.002767
17 0.002780
18 0.002848
19 0.002873
20 0.003014
21 0.003072
22 0.003090
23 0.003170
24 0.003151
25 0.002920
26 0.002538
27 0.002146
28 0.001800
29 0.001824
30 0.001457
31 0.001603
32 0.001885
33 0.002142
34 0.002441
35 0.002440
36 0.002382
37 0.002357
38 0.002626
39 0.002591
40 0.002809
41 0.003148
42 0.003152
43 0.002741
44 0.002397
45 0.002098
46 0.001978
47 0.001770
48 0.001411
49 0.001308
50 0.001223
51 0.001205
52 0.000757
53 0.000439
54 0.000129
55 -0.000302
56 -0.000312
57 -0.000345
58 -0.000190
59 0.000050
60 0.000318
61 0.000126
62 -0.000304
63 -0.000596
64 -0.001090
65 -0.001592
66 -0.001576
67 -0.001241
68 -0.000987
69 -0.000803
70 -0.000573
71 -0.000579
72 -0.000813
73 -0.001255
74 -0.001841
75 -0.001974
76 -0.001986
77 -0.001759
78 -0.001543
79 -0.001034
80 -0.000251
81 0.000120
82 0.000733
83 0.000899
84 0.000900
85 0.000679
86 0.000315
87 0.000054
88 0.000189
89 0.000818
90 0.001094
91 0.001560
92 0.001858
93 0.002043
94 0.002142
95 0.002145
96 0.001908
97 0.001426
98 0.001011
99 0.000873
100 0.000855
101 0.000690
102 0.000368
103 0.000061
104 -0.000201
105 -0.000300
106 -0.000431
107 -0.000509
108 -0.000636
109 -0.000507
110 -0.000631
111 -0.000432
112 -0.000127
113 0.000340
114 0.000674
115 0.000570
116 0.000349
117 0.000144
118 0.000332
119 0.000464
120 0.000723
121 0.000889
122 0.001037
123 0.001158
124 0.001322
125 0.001220
126 0.000824
127 0.000637
128 0.000739
129 0.000832
130 0.001007
131 0.000936
132 0.000984
133 0.000763
134 0.000867
135 0.000866
136 0.000849
137 0.001087
138 0.001347
139 0.001676
140 0.001901
141 0.002355
142 0.002569
143 0.002698
144 0.002358
145 0.002477
146 0.002350
147 0.002268
148 0.002515
149 0.002567
150 0.002789
151 0.002944
152 0.003331
153 0.003492
154 0.003250
155 0.003176
156 0.002706
157 0.002152
158 0.001446
159 0.001093
160 0.000798
161 0.000630
162 0.000258
163 0.000083
164 0.000110
165 0.000226
166 -0.000200
167 -0.000832
168 -0.001060
169 -0.001268
170 -0.001226
171 -0.001093
172 -0.000714
173 -0.000365
174 -0.000148
175 0.000012
176 0.000011
177 -0.000127
178 -0.000463
179 -0.000532
180 -0.000588
181 -0.000231
182 0.000094
183 0.000210
184 0.000317
185 0.000335
186 0.000479
187 0.000142
188 0.000004
189 0.000016
190 -0.000068
191 -0.000178
192 -0.000096
193 0.000080
194 0.000419
195 0.000759
196 0.000711
197 0.000714
198 0.000517
199 0.000381
200 0.000089
201 -0.000124
202 -0.000109
203 -0.000296
204 -0.000422
205 -0.000221
206 -0.000106
207 -0.000287
208 -0.000381
209 -0.000590
210 -0.000881
211 -0.000927
212 -0.000762
213 -0.000622
214 -0.000431
215 -0.000554
216 -0.000755
217 -0.000862
218 -0.001054
219 -0.000918
220 -0.000711
221 -0.000278
222 -0.000293
223 -0.000130
224 -0.000074
225 -0.000061
226 -0.000212
227 -0.000472
228 -0.000394
229 -0.000450
230 -0.000480
231 -0.000237
232 0.000418
233 0.000751
234 0.000843
235 0.001021
236 0.001141
237 0.001608
238 0.001705
239 0.001841
240 0.001737
241 0.001521
242 0.001395
243 0.001325
244 0.001655
245 0.001996
246 0.002267
247 0.002163
248 0.002304
249 0.002200
250 0.002187
251 0.001688
252 0.001451
253 0.001415
254 0.001540
255 0.001433
256 0.001338
257 0.001367
258 0.001274
259 0.001071
260 0.000740
261 0.000616
262 0.000528
263 0.000646
264 0.000745
265 0.000997
266 0.001345
267 0.001349
268 0.001182
269 0.000786
270 0.000727
271 0.000845
272 0.000767
273 0.000774
274 0.000771
275 0.000845
276 0.000452
277 0.000385
278 0.000424
279 0.000490
280 0.000467
281 0.000422
282 0.000579
283 0.000855
284 0.001025
285 0.000995
286 0.001042
287 0.000842
288 0.000730
289 0.000669
290 0.000773
291 0.000879
292 0.000788
293 0.000782
294 0.000774
295 0.000889
296 0.000864
297 0.000820
298 0.000872
299 0.000795
300 0.000831
301 0.000774
302 0.000493
303 0.000257
304 0.000253
305 0.000160
306 0.000164
307 0.000219
308 0.000284
309 0.000186
310 0.000108
311 -0.000184
312 -0.000529
313 -0.000580
314 -0.000590
315 -0.000811
316 -0.000742
317 -0.000347
318 -0.000421
319 -0.000779
320 -0.001152
321 -0.001465
322 -0.001985
323 -0.002585
324 -0.002493
325 -0.002346
326 -0.002144
327 -0.002137
328 -0.002463
329 -0.002669
330 -0.002852
331 -0.003029
332 -0.003097
333 -0.002674
334 -0.002047
335 -0.001546
336 -0.001231
337 -0.001210
338 -0.001110
339 -0.001164
340 -0.001582
341 -0.001877
342 -0.001933
343 -0.002022
344 -0.002250
345 -0.002035
346 -0.001746
347 -0.001432
348 -0.001127
349 -0.000922
350 -0.000722
351 -0.000417
352 -0.000089
353 0.000075
354 0.000317
355 0.000540
356 0.000379
357 0.000464
358 0.000789
359 0.001144
360 0.001363
361 0.001343
362 0.001009
363 0.000479
364 0.000135
365 -0.000520
366 -0.000804
367 -0.000719
368 -0.000904
369 -0.001001
370 -0.000804
371 -0.000739
372 -0.000666
373 -0.000500
374 -0.000468
375 -0.000497
376 -0.000270
377 -0.000120
378 0.000114
379 0.000227
380 0.000498
381 0.000647
382 0.000707
383 0.000552
384 0.000633
385 0.000697
386 0.000560
387 0.000524
388 0.000573
389 0.000411
390 0.000235
391 0.000029
392 0.000059
393 0.000610
394 0.001060
395 0.001796
396 0.002473
397 0.002971
398 0.003160
399 0.003152
400 0.002952
401 0.002823
402 0.002692
403 0.002428
404 0.002058
405 0.001821
406 0.001567
407 0.001352
408 0.001276
409 0.001101
410 0.000761
411 0.000349
412 -0.000209
413 -0.000410
414 -0.000548
415 -0.000584
416 -0.000648
417 -0.000792
418 -0.000469
419 -0.000153
420 0.000094
421 0.000272
422 0.000296
423 0.000310
424 0.000147
425 0.000221
426 0.000387
427 0.000557
428 0.000907
429 0.001076
430 0.001397
431 0.001578
432 0.001505
433 0.001432
434 0.001359
435 0.001206
436 0.000982
437 0.000922
438 0.001091
439 0.001430
440 0.001667
441 0.001705
442 0.001833
443 0.001855
444 0.001834
445 0.001733
446 0.001557
447 0.001332
448 0.001016
449 0.000751
450 0.000539
451 0.000578
452 0.000640
453 0.000538
454 0.000493
455 0.000406
456 0.000464
457 0.000417
458 0.000317
459 0.000396
460 0.000181
461 -0.000104
462 -0.000305
463 -0.000171
464 -0.000069
465 0.000042
466 -0.000017
467 -0.000008
468 -0.000259
469 -0.000431
470 -0.000570
471 -0.000772
472 -0.000806
473 -0.000836
474 -0.001036
475 -0.001303
476 -0.001280
477 -0.001118
478 -0.000968
479 -0.000640
480 -0.000456
481 -0.000102
482 0.000003
483 -0.000095
484 -0.000123
485 0.000052
486 0.000314
487 0.000392
488 0.000470
489 0.000633
490 0.000921
491 0.001117
492 0.001260
493 0.001376
494 0.001122
495 0.000836
496 0.000641
497 0.000418
498 0.000355
499 0.000340
500 0.000369
501 0.000311
502 0.000254
503 0.000323
504 0.000220
505 0.000015
506 0.000018
507 -0.000105
508 0.000003
509 0.000207
510 0.000534
511 0.000638
512 0.000768
513 0.000707
514 0.000480
515 0.000423
516 0.000329
517 0.000170
518 -0.000089
519 -0.000019
520 -0.000066
521 -0.000212
522 -0.000071
523 0.000161
524 0.000325
525 0.000405
526 0.000256
527 0.000073
528 -0.000220
529 -0.000421
530 -0.000606
531 -0.000828
532 -0.000856
533 -0.000694
534 -0.000406
535 -0.000247
536 -0.000059
537 -0.000023
538 0.000223
539 0.000405
540 0.000589
541 0.000746
542 0.000733
543 0.000803
544 0.000685
545 0.000601
546 0.000586
547 0.000536
548 0.000657
549 0.000762
550 0.000919
551 0.000885
552 0.000801
553 0.001033
554 0.001062
555 0.000753
556 0.000642
557 0.000655
558 0.000723
559 0.000757
560 0.000514
561 0.000270
562 0.000059
563 -0.000094
564 -0.000302
565 -0.000585
566 -0.000760
567 -0.000922
568 -0.001198
569 -0.001431
570 -0.001514
571 -0.001563
572 -0.001479
573 -0.001526
574 -0.001441
575 -0.001284
576 -0.001008
577 -0.001056
578 -0.001079
579 -0.000927
580 -0.000668
581 -0.000343
582 -0.000220
583 -0.000020
584 0.000052
585 0.000194
586 0.000149
587 0.000205
588 0.000186
589 -0.000099
590 -0.000287
591 -0.000444
592 -0.000251
593 -0.000091
594 -0.000034
595 0.000099
596 0.000038
597 -0.000047
598 -0.000146
599 -0.000032
600 0.000030
601 0.000103
602 0.000168
603 0.000050
604 0.000142
605 0.000351
606 0.000315
607 0.000316
608 0.000348
609 0.000359
610 0.000353
611 0.000192
612 0.000008
613 -0.000277
614 -0.000588
615 -0.000781
616 -0.000766
617 -0.000652
618 -0.000528
619 -0.000502
620 -0.000344
621 -0.000284
622 -0.000315
623 -0.000381
624 -0.000301
625 -0.000119
626 -0.000002
627 0.000090
628 0.000241
629 0.000447
630 0.000560
631 0.000569
632 0.000795
633 0.001042
634 0.001368
635 0.001537
636 0.001747
637 0.001868
638 0.001945
639 0.001992
640 0.001879
641 0.001835
642 0.001667
643 0.001608
644 0.001414
645 0.001218
646 0.001102
647 0.001040
648 0.000982
649 0.000870
650 0.000640
651 0.000482
652 0.000439
653 0.000540
654 0.000537
655 0.000387
656 0.000207
657 0.000030
658 0.000107
659 0.000166
660 0.000283
661 0.000313
662 0.000332
663 0.000303
664 0.000176
665 0.000185
666 0.000077
667 0.000161
668 0.000260
669 0.000144
670 0.000013
671 -0.000074
672 -0.000115
673 -0.000278
674 -0.000494
675 -0.000566
676 -0.000491
677 -0.000299
678 -0.000017
679 0.000286
680 0.000403
681 0.000501
682 0.000476
683 0.000276
684 0.000116
685 -0.000019
686 -0.000223
687 -0.000293
688 -0.000288
689 -0.000307
690 -0.000260
691 -0.000127
692 -0.000108
693 -0.000066
694 0.000021
695 0.000001
696 -0.000174
697 -0.000502
698 -0.000699
699 -0.000787
700 -0.000926
701 -0.000903
702 -0.000941
703 -0.000987
704 -0.001039
705 -0.000986
706 -0.000816
707 -0.000780
708 -0.000786
709 -0.000663
710 -0.000771
711 -0.000731
712 -0.000807
713 -0.000813
714 -0.000804
715 -0.000870
716 -0.000885
717 -0.000908
718 -0.000768
719 -0.000585
720 -0.000565
721 -0.000550
722 -0.000475
723 -0.000484
724 -0.000503
725 -0.000475
726 -0.000547
727 -0.000562
728 -0.000638
729 -0.000621
730 -0.000394
731 -0.000089
732 0.000118
733 0.000280
734 0.000314
735 0.000353
736 0.000268
737 0.000193
738 0.000115
739 0.000022
740 0.000150
741 0.000032
742 -0.000120
743 -0.000207
744 -0.000386
745 -0.000436
746 -0.000479
747 -0.000291
748 -0.000019
749 0.000139
750 0.000230
751 0.000149
752 0.000191
753 0.000172
754 0.000184
755 0.000161
756 0.000130
757 0.000172
758 0.000130
759 0.000173
760 0.000299
761 0.000437
762 0.000522
763 0.000478
764 0.000428
765 0.000207
766 -0.000115
767 -0.000308
768 -0.000518
769 -0.000698
770 -0.000851
771 -0.000912
772 -0.000870
773 -0.000651
774 -0.000444
775 -0.000231
776 -0.000063
777 0.000117
778 0.000272
779 0.000276
780 0.000352
781 0.000422
782 0.000572
783 0.000649
784 0.000674
785 0.000717
786 0.000704
787 0.000693
788 0.000688
789 0.000694
790 0.000737
791 0.000778
792 0.000704
793 0.000485
794 0.000239
795 -0.000030
796 -0.000319
797 -0.000439
798 -0.000445
799 -0.000388
800 -0.000326
801 -0.000157
802 -0.000023
803 0.000083
804 0.000148
805 0.000093
806 0.000112
807 0.000139
808 0.000160
809 0.000163
