# i correlation
1 0.017225
2 0.014801
3 0.012860
4 0.011276
5 0.009944
6 0.008746
7 0.007552
8 0.006747
9 0.005879
10 0.005196
11 0.004762
12 0.004017
13 0.003378
14 0.002580
15 0.002025
16 0.001281
17 0.000771
18 0.000368
19 0.000135
20 -0.000290
21 -0.000529
22 -0.000235
23 0.000006
24 0.000302
25 0.000243
26 0.000014
27 -0.000384
28 -0.000694
29 -0.001241
30 -0.001295
31 -0.001433
32 -0.001422
33 -0.001382
34 -0.001054
35 -0.000889
36 -0.000679
37 -0.000734
38 -0.000771
39 -0.000821
40 -0.000904
41 -0.000757
42 -0.000375
43 -0.000082
44 0.000112
45 0.000647
46 0.000816
47 0.001248
48 0.001564
49 0.001560
50 0.001636
51 0.001353
52 0.001024
53 0.001112
54 0.000839
55 0.000848
56 0.000887
57 0.000730
58 0.000707
59 0.000561
60 0.000051
61 -0.000402
62 -0.000844
63 -0.001377
64 -0.001684
65 -0.002044
66 -0.002373
67 -0.002808
68 -0.003024
69 -0.003553
70 -0.003772
71 -0.004058
72 -0.004082
73 -0.004143
74 -0.004137
75 -0.003976
76 -0.003657
77 -0.003171
78 -0.002750
79 -0.002305
80 -0.001853
81 -0.001520
82 -0.001763
83 -0.001632
84 -0.001526
85 -0.001403
86 -0.001534
87 -0.001561
88 -0.001344
89 -0.000950
90 -0.000767
91 -0.000667
92 -0.000455
93 -0.000458
94 -0.000295
95 -0.000486
96 -0.000423
97 -0.000573
98 -0.000375
99 -0.000211
100 0.000074
101 0.000184
102 0.000522
103 0.000911
104 0.001135
105 0.001048
106 0.000921
107 0.001004
108 0.000813
109 0.001003
110 0.001160
111 0.000921
112 0.000615
113 0.000515
114 0.000582
115 0.000893
116 0.000831
117 0.000646
118 0.000273
119 -0.000217
120 -0.000569
121 -0.000642
122 -0.000574
123 -0.000501
124 -0.000406
125 -0.000346
126 0.000081
127 0.000593
128 0.001072
129 0.001460
130 0.001737
131 0.001945
132 0.002074
133 0.002186
134 0.002206
135 0.002298
136 0.002548
137 0.002911
138 0.003158
139 0.003194
140 0.003174
141 0.003169
142 0.003087
143 0.002788
144 0.002649
145 0.002456
146 0.002174
147 0.001890
148 0.001676
149 0.001747
150 0.001796
151 0.002048
152 0.002142
153 0.002234
154 0.002400
155 0.002694
156 0.002766
157 0.003130
158 0.003099
159 0.002851
160 0.002541
161 0.002244
162 0.002258
163 0.002240
164 0.002152
165 0.002075
166 0.002082
167 0.001917
168 0.001667
169 0.001485
170 0.001009
171 0.000551
172 0.000108
173 -0.000186
174 -0.000184
175 -0.000126
176 -0.000333
177 -0.000407
178 -0.000856
179 -0.000916
180 -0.001004
181 -0.000904
182 -0.001010
183 -0.000982
184 -0.000897
185 -0.000758
186 -0.000490
187 -0.000243
188 -0.000019
189 0.000166
190 0.000490
191 0.000499
192 0.000625
193 0.000592
194 0.000573
195 0.000303
196 -0.000004
197 -0.000352
198 -0.000826
199 -0.000933
200 -0.001184
201 -0.001257
202 -0.001561
203 -0.001604
204 -0.001814
205 -0.001966
206 -0.002151
207 -0.002158
208 -0.001948
209 -0.001935
210 -0.001797
211 -0.001728
212 -0.001783
213 -0.001963
214 -0.001982
215 -0.002010
216 -0.002111
217 -0.002272
218 -0.002501
219 -0.002458
220 -0.002409
221 -0.002828
222 -0.003111
223 -0.003504
224 -0.003733
225 -0.003721
226 -0.003629
227 -0.003659
228 -0.003678
229 -0.003550
230 -0.003457
231 -0.002981
232 -0.002667
233 -0.002401
234 -0.001958
235 -0.001514
236 -0.001366
237 -0.001280
238 -0.001130
239 -0.001302
240 -0.001254
241 -0.001362
242 -0.001373
243 -0.001228
244 -0.000794
245 -0.000252
246 0.000174
247 0.000405
248 0.000786
249 0.000831
250 0.001068
251 0.001297
252 0.001391
253 0.001703
254 0.001805
255 0.001836
256 0.002216
257 0.002330
258 0.002265
259 0.002280
260 0.002200
261 0.002035
262 0.001704
263 0.001260
264 0.001053
265 0.000963
266 0.000876
267 0.001013
268 0.001008
269 0.001186
270 0.001133
271 0.001005
272 0.000777
273 0.000537
274 0.000307
275 0.000160
276 0.000144
277 -0.000005
278 0.000151
279 0.000201
280 0.000327
281 0.000463
282 0.000706
283 0.000720
284 0.001059
285 0.001062
286 0.001113
287 0.001116
288 0.001117
289 0.000969
290 0.001127
291 0.001327
292 0.001616
293 0.002377
294 0.002853
295 0.003221
296 0.003401
297 0.003506
298 0.003258
299 0.002922
300 0.002750
301 0.002610
302 0.002264
303 0.002055
304 0.002080
305 0.001577
306 0.001587
307 0.001373
308 0.001320
309 0.001256
310 0.001242
311 0.001194
312 0.001423
313 0.001169
314 0.001028
315 0.000953
316 0.000887
317 0.000809
318 0.000742
319 0.000643
320 0.000464
321 0.000133
322 -0.000137
323 -0.000176
324 -0.000229
325 -0.000270
326 -0.000695
327 -0.001160
328 -0.001390
329 -0.001472
330 -0.001471
331 -0.001537
332 -0.001581
333 -0.001576
334 -0.001245
335 -0.001112
336 -0.001003
337 -0.000928
338 -0.000554
339 -0.000480
340 -0.000295
341 -0.000139
342 0.000026
343 0.000165
344 0.000133
345 -0.000082
346 -0.000220
347 -0.000472
348 -0.000602
349 -0.000756
350 -0.000856
351 -0.001122
352 -0.001437
353 -0.001860
354 -0.002121
355 -0.002297
356 -0.002488
357 -0.002887
358 -0.003054
359 -0.003107
360 -0.003189
361 -0.003225
362 -0.003127
363 -0.003111
364 -0.003265
365 -0.003203
366 -0.003003
367 -0.002828
368 -0.002600
369 -0.002478
370 -0.002238
371 -0.002119
372 -0.001940
373 -0.001826
374 -0.001472
375 -0.001311
376 -0.001238
377 -0.001029
378 -0.000559
379 -0.000350
380 -0.000251
381 -0.000310
382 0.000089
383 0.000461
384 0.000820
385 0.001103
386 0.001374
387 0.001535
388 0.001735
389 0.002174
390 0.002224
391 0.002371
392 0.002411
393 0.002599
394 0.002517
395 0.002382
396 0.002153
397 0.002158
398 0.002182
399 0.001928
400 0.001856
401 0.001709
402 0.001531
403 0.001352
404 0.001256
405 0.000827
406 0.000275
407 -0.000114
408 -0.000388
409 -0.000741
410 -0.000872
411 -0.000957
412 -0.001167
413 -0.001357
414 -0.001421
415 -0.001490
416 -0.001524
417 -0.001413
418 -0.001292
419 -0.001055
420 -0.001136
421 -0.000899
422 -0.000387
423 0.000184
424 0.000380
425 0.000655
426 0.000988
427 0.001799
428 0.002246
429 0.002282
430 0.002470
431 0.002590
432 0.002670
433 0.002824
434 0.003043
435 0.003229
436 0.003188
437 0.003026
438 0.003064
439 0.003114
440 0.003261
441 0.003251
442 0.003084
443 0.002861
444 0.002601
445 0.002485
446 0.002632
447 0.002609
448 0.002762
449 0.002884
450 0.003146
451 0.003295
452 0.003230
453 0.003120
454 0.002896
455 0.002698
456 0.002221
457 0.001883
458 0.001400
459 0.000962
460 0.000506
461 0.000227
462 0.000020
463 0.000028
464 -0.000156
465 -0.000321
466 -0.000394
467 -0.000592
468 -0.000543
469 -0.000410
470 -0.000278
471 -0.000278
472 -0.000051
473 0.000011
474 0.000104
475 0.000237
476 0.000329
477 0.000482
478 0.000566
479 0.000579
480 0.000571
481 0.000731
482 0.000800
483 0.000843
484 0.000735
485 0.000698
486 0.000664
487 0.000629
488 0.000513
489 0.000348
490 -0.000038
491 -0.000287
492 -0.000498
493 -0.000550
494 -0.000634
495 -0.000683
496 -0.000712
497 -0.000810
498 -0.000968
499 -0.001051
500 -0.001070
501 -0.001130
502 -0.001298
503 -0.001193
504 -0.000962
505 -0.000883
506 -0.000862
507 -0.000664
508 -0.000641
509 -0.000894
510 -0.001073
511 -0.001248
512 -0.001443
513 -0.001663
514 -0.001831
515 -0.001997
516 -0.002153
517 -0.002375
518 -0.002535
519 -0.002441
520 -0.002247
521 -0.002097
522 -0.001959
523 -0.001925
524 -0.002014
525 -0.001924
526 -0.001781
527 -0.001516
528 -0.001195
529 -0.000739
530 -0.000401
531 0.000025
532 0.000493
533 0.000714
534 0.000869
535 0.000990
536 0.000949
537 0.000966
538 0.000892
539 0.000835
540 0.000777
541 0.000601
542 0.000612
543 0.000698
544 0.000845
545 0.000869
546 0.001022
547 0.001048
548 0.000997
549 0.001262
550 0.001410
551 0.001591
552 0.001769
553 0.001812
554 0.002014
555 0.002118
556 0.002154
557 0.002184
558 0.002058
559 0.001941
560 0.001816
561 0.001684
562 0.001612
563 0.001752
564 0.001874
565 0.001912
566 0.001836
567 0.001628
568 0.001474
569 0.001353
570 0.001167
571 0.000990
572 0.000874
573 0.000780
574 0.000693
575 0.000459
576 0.000349
577 0.000285
578 0.000409
579 0.000552
580 0.000584
581 0.000598
582 0.000508
583 0.000263
584 0.000323
585 0.000636
586 0.000848
587 0.001101
588 0.001493
589 0.001678
590 0.002016
591 0.002207
592 0.002390
593 0.002332
594 0.002196
595 0.001922
596 0.001735
597 0.001633
598 0.001417
599 0.001280
600 0.001094
601 0.000876
602 0.000600
603 0.000444
604 0.000411
605 0.000350
606 0.000102
607 -0.000108
608 -0.000209
609 -0.000308
610 -0.000172
611 -0.000221
612 -0.000092
613 -0.000009
614 -0.000002
615 0.000064
616 0.000017
617 -0.000006
618 -0.000033
619 -0.000077
620 -0.000035
621 -0.000069
622 -0.000045
623 -0.000018
624 -0.000125
625 -0.000371
626 -0.000559
627 -0.000494
628 -0.000669
629 -0.000735
630 -0.000782
631 -0.000833
632 -0.000684
633 -0.000763
634 -0.000858
635 -0.000779
636 -0.000730
637 -0.000520
638 -0.000353
639 -0.000267
640 -0.000163
641 -0.000278
642 -0.000160
643 -0.000027
644 0.000023
645 -0.000072
646 -0.000071
647 -0.000061
648 -0.000000
649 -0.000024
650 -0.000101
651 -0.000344
652 -0.000570
653 -0.000716
654 -0.000778
655 -0.000885
656 -0.001059
657 -0.001356
658 -0.001404
659 -0.001317
660 -0.001212
661 -0.001248
662 -0.001139
663 -0.001015
664 -0.000979
665 -0.000824
666 -0.000778
667 -0.000748
668 -0.000779
669 -0.000898
670 -0.000965
671 -0.000977
672 -0.001038
673 -0.001006
674 -0.001097
675 -0.001120
676 -0.001214
677 -0.001284
678 -0.001078
679 -0.000859
680 -0.000582
681 -0.000457
682 -0.000430
683 -0.000440
684 -0.000355
685 -0.000253
686 0.000054
687 0.000193
688 0.000484
689 0.000600
690 0.000857
691 0.001114
692 0.001125
693 0.001036
694 0.001116
695 0.001237
696 0.001371
697 0.001573
698 0.001599
699 0.001529
700 0.001408
701 0.001453
702 0.001465
703 0.001461
704 0.001373
705 0.001278
706 0.001238
707 0.001233
708 0.001260
709 0.001272
710 0.001177
711 0.001059
712 0.001003
713 0.000995
714 0.001088
715 0.001073
716 0.001055
717 0.000955
718 0.000878
719 0.000747
720 0.000756
721 0.000839
722 0.000939
723 0.001104
724 0.001250
725 0.001264
726 0.001338
727 0.001380
728 0.001296
729 0.001311
730 0.001240
731 0.001209
732 0.001228
733 0.001333
734 0.001385
735 0.001257
736 0.001191
737 0.001175
738 0.001137
739 0.001121
740 0.001071
741 0.001011
742 0.001021
743 0.001003
744 0.000928
745 0.000935
746 0.000919
747 0.000870
748 0.000841
749 0.000786
750 0.000731
751 0.000558
752 0.000507
753 0.000409
754 0.000372
755 0.000211
756 0.000014
757 -0.000119
758 -0.000308
759 -0.000391
760 -0.000404
761 -0.000474
762 -0.000573
763 -0.000678
764 -0.000684
765 -0.000678
766 -0.000704
767 -0.000718
768 -0.000795
769 -0.000740
770 -0.000757
771 -0.000746
772 -0.000664
773 -0.000673
774 -0.000659
775 -0.000564
776 -0.000516
777 -0.000411
778 -0.000328
779 -0.000173
780 -0.000090
781 -0.000086
782 -0.000017
783 -0.000083
784 -0.000179
785 -0.000230
786 -0.000265
787 -0.000309
788 -0.000345
789 -0.000294
790 -0.000290
791 -0.000383
792 -0.000480
793 -0.000629
794 -0.000816
795 -0.000989
796 -0.001087
797 -0.001152
798 -0.001251
799 -0.001355
800 -0.001351
801 -0.001302
802 -0.001327
803 -0.001362
804 -0.001405
805 -0.001330
806 -0.001347
807 -0.001289
808 -0.001285
809 -0.001272
