# i correlation
1 0.014594
2 0.012386
3 0.010396
4 0.008665
5 0.007159
6 0.006076
7 0.005456
8 0.004849
9 0.004718
10 0.004460
11 0.004061
12 0.003390
13 0.002870
14 0.002490
15 0.002157
16 0.001981
17 0.001899
18 0.001485
19 0.001409
20 0.001410
21 0.001703
22 0.001756
23 0.001938
24 0.002077
25 0.001955
26 0.001845
27 0.001603
28 0.001301
29 0.000764
30 0.000332
31 0.000154
32 0.000169
33 -0.000248
34 -0.000435
35 -0.000501
36 -0.000671
37 -0.000747
38 -0.000512
39 -0.000248
40 0.000071
41 0.000096
42 0.000161
43 -0.000031
44 0.000209
45 0.000149
46 0.000165
47 0.000386
48 0.000570
49 0.000527
50 0.000284
51 0.000360
52 0.000353
53 0.000408
54 0.000283
55 0.000180
56 0.000127
57 -0.000242
58 -0.000453
59 -0.000453
60 -0.000264
61 -0.000226
62 -0.000221
63 0.000030
64 0.000561
65 0.000916
66 0.000978
67 0.000927
68 0.001021
69 0.000661
70 0.000729
71 0.000502
72 0.000491
73 0.000363
74 0.000303
75 0.000038
76 -0.000168
77 -0.000389
78 -0.000848
79 -0.000853
80 -0.000838
81 -0.001077
82 -0.001379
83 -0.001803
84 -0.001989
85 -0.001864
86 -0.001801
87 -0.001237
88 -0.000953
89 -0.000457
90 -0.000115
91 0.000412
92 0.000979
93 0.001212
94 0.001137
95 0.000830
96 0.001066
97 0.001169
98 0.001472
99 0.001502
100 0.001683
101 0.001806
102 0.002134
103 0.002342
104 0.002528
105 0.002293
106 0.002229
107 0.002308
108 0.002500
109 0.002378
110 0.002350
111 0.002577
112 0.002550
113 0.002609
114 0.002621
115 0.002490
116 0.002138
117 0.001946
118 0.001433
119 0.001241
120 0.001029
121 0.001004
122 0.001034
123 0.001137
124 0.001219
125 0.001215
126 0.000993
127 0.000793
128 0.000573
129 0.000266
130 -0.000133
131 0.000046
132 0.000178
133 0.000182
134 0.000286
135 0.000193
136 0.000462
137 0.000579
138 0.000996
139 0.000962
140 0.001124
141 0.000854
142 0.000835
143 0.000537
144 0.000204
145 0.000097
146 -0.000097
147 -0.000339
148 -0.000723
149 -0.000820
150 -0.001093
151 -0.001291
152 -0.001267
153 -0.001011
154 -0.000900
155 -0.000830
156 -0.000968
157 -0.000974
158 -0.000924
159 -0.000543
160 -0.000507
161 -0.000397
162 -0.000203
163 0.000010
164 0.000356
165 0.000157
166 0.000031
167 -0.000035
168 0.000003
169 -0.000057
170 -0.000036
171 0.000013
172 -0.000005
173 -0.000243
174 -0.000457
175 -0.000761
176 -0.000616
177 -0.000332
178 -0.000202
179 -0.000176
180 -0.000119
181 -0.000050
182 -0.000291
183 -0.000265
184 -0.000192
185 -0.000202
186 -0.000320
187 -0.000272
188 -0.000354
189 -0.000351
190 -0.000265
191 0.000078
192 -0.000025
193 0.000009
194 0.000146
195 0.000248
196 0.000597
197 0.000849
198 0.000988
199 0.000962
200 0.000998
201 0.001052
202 0.001011
203 0.000768
204 0.000806
205 0.000899
206 0.000977
207 0.001014
208 0.000868
209 0.000696
210 0.000837
211 0.000819
212 0.000990
213 0.001113
214 0.001421
215 0.001700
216 0.001897
217 0.002045
218 0.002057
219 0.002003
220 0.001669
221 0.001326
222 0.000873
223 0.000934
224 0.001124
225 0.001280
226 0.001384
227 0.001511
228 0.001477
229 0.001146
230 0.001123
231 0.000949
232 0.000734
233 0.000546
234 0.000173
235 -0.000068
236 -0.000057
237 -0.000161
238 -0.000120
239 -0.000194
240 -0.000335
241 -0.000447
242 -0.000652
243 -0.001096
244 -0.001341
245 -0.001501
246 -0.001677
247 -0.001560
248 -0.001686
249 -0.001536
250 -0.001545
251 -0.001323
252 -0.001290
253 -0.001480
254 -0.001664
255 -0.001829
256 -0.001884
257 -0.001829
258 -0.001721
259 -0.001516
260 -0.001584
261 -0.001394
262 -0.001173
263 -0.001109
264 -0.000932
265 -0.000878
266 -0.000965
267 -0.001351
268 -0.001552
269 -0.001962
270 -0.002034
271 -0.002129
272 -0.002046
273 -0.002018
274 -0.001919
275 -0.001869
276 -0.001730
277 -0.001784
278 -0.001584
279 -0.001689
280 -0.001721
281 -0.001875
282 -0.002017
283 -0.001950
284 -0.001857
285 -0.001675
286 -0.001579
287 -0.001550
288 -0.001633
289 -0.001649
290 -0.001998
291 -0.001873
292 -0.001959
293 -0.001890
294 -0.001971
295 -0.001893
296 -0.001998
297 -0.002178
298 -0.002197
299 -0.002271
300 -0.002047
301 -0.002035
302 -0.001832
303 -0.001497
304 -0.001215
305 -0.001055
306 -0.001054
307 -0.001044
308 -0.000938
309 -0.001071
310 -0.001298
311 -0.001702
312 -0.001915
313 -0.002081
314 -0.002258
315 -0.002174
316 -0.002140
317 -0.001716
318 -0.001265
319 -0.000987
320 -0.000879
321 -0.000757
322 -0.000608
323 -0.000546
324 -0.000169
325 0.000058
326 0.000240
327 0.000437
328 0.000571
329 0.000846
330 0.000924
331 0.001157
332 0.001198
333 0.000925
334 0.000806
335 0.000604
336 0.000439
337 0.000150
338 0.000286
339 0.000380
340 0.000470
341 0.000472
342 0.000243
343 0.000001
344 -0.000129
345 -0.000345
346 -0.000756
347 -0.001009
348 -0.000965
349 -0.000830
350 -0.000519
351 -0.000437
352 -0.000218
353 -0.000035
354 -0.000088
355 0.000110
356 0.000216
357 0.000209
358 0.000075
359 0.000071
360 0.000151
361 0.000117
362 0.000044
363 0.000017
364 -0.000094
365 -0.000220
366 -0.000374
367 -0.000793
368 -0.000950
369 -0.001105
370 -0.001174
371 -0.001400
372 -0.001523
373 -0.001279
374 -0.001051
375 -0.000897
376 -0.000606
377 -0.000596
378 -0.000331
379 -0.000335
380 -0.000429
381 -0.000493
382 -0.000615
383 -0.000693
384 -0.000754
385 -0.000823
386 -0.001058
387 -0.001243
388 -0.001455
389 -0.001571
390 -0.001585
391 -0.001658
392 -0.001736
393 -0.001868
394 -0.002035
395 -0.001984
396 -0.001952
397 -0.001978
398 -0.001962
399 -0.001955
400 -0.001884
401 -0.001663
402 -0.001571
403 -0.001551
404 -0.001289
405 -0.001382
406 -0.001300
407 -0.001448
408 -0.001523
409 -0.001665
410 -0.001701
411 -0.001800
412 -0.002033
413 -0.002177
414 -0.002155
415 -0.002164
416 -0.002039
417 -0.001718
418 -0.001468
419 -0.001526
420 -0.001623
421 -0.001673
422 -0.001798
423 -0.001736
424 -0.001572
425 -0.001289
426 -0.001143
427 -0.000949
428 -0.000565
429 -0.000349
430 -0.000078
431 0.000037
432 0.000194
433 0.000283
434 0.000363
435 0.000304
436 0.000033
437 -0.000236
438 -0.000380
439 -0.000503
440 -0.000416
441 -0.000441
442 -0.000027
443 0.000149
444 0.000089
445 -0.000156
446 -0.000412
447 -0.000681
448 -0.000802
449 -0.000613
450 -0.000559
451 -0.000459
452 -0.000361
453 -0.000298
454 -0.000606
455 -0.000547
456 -0.000596
457 -0.000461
458 -0.000275
459 -0.000177
460 -0.000264
461 -0.000231
462 -0.000153
463 -0.000026
464 0.000018
465 0.000121
466 0.000426
467 0.000512
468 0.000459
469 0.000531
470 0.000493
471 0.000520
472 0.000678
473 0.000496
474 0.000381
475 0.000135
476 0.000113
477 0.000214
478 0.000311
479 0.000295
480 0.000310
481 0.000344
482 0.000421
483 0.000332
484 0.000356
485 0.000124
486 -0.000127
487 -0.000296
488 -0.000275
489 -0.000146
490 -0.000036
491 0.000203
492 0.000279
493 0.000392
494 0.000230
495 0.000179
496 -0.000066
497 -0.000205
498 -0.000189
499 -0.000043
500 -0.000070
501 -0.000224
502 -0.000159
503 -0.000175
504 -0.000249
505 -0.000402
506 -0.000557
507 -0.000701
508 -0.000725
509 -0.000767
510 -0.000805
511 -0.001031
512 -0.001204
513 -0.001502
514 -0.001763
515 -0.001820
516 -0.001754
517 -0.001509
518 -0.001278
519 -0.000849
520 -0.000660
521 -0.000357
522 -0.000209
523 -0.000020
524 0.000028
525 0.000090
526 0.000091
527 0.000123
528 0.000117
529 0.000048
530 0.000103
531 0.000127
532 0.000332
533 0.000462
534 0.000462
535 0.000465
536 0.000654
537 0.000634
538 0.000551
539 0.000427
540 0.000643
541 0.000715
542 0.000969
543 0.001202
544 0.001405
545 0.001650
546 0.001792
547 0.001833
548 0.001733
549 0.001511
550 0.001377
551 0.001344
552 0.001188
553 0.000967
554 0.000761
555 0.000809
556 0.000816
557 0.000933
558 0.001001
559 0.001274
560 0.001246
561 0.001070
562 0.001009
563 0.001018
564 0.000941
565 0.000988
566 0.000969
567 0.001072
568 0.001108
569 0.001070
570 0.001028
571 0.001021
572 0.001099
573 0.000990
574 0.000744
575 0.000538
576 0.000406
577 0.000164
578 -0.000000
579 -0.000265
580 0.000011
581 0.000116
582 0.000243
583 0.000365
584 0.000292
585 -0.000017
586 -0.000136
587 -0.000014
588 -0.000089
589 0.000106
590 0.000115
591 0.000288
592 0.000264
593 0.000269
594 0.000147
595 0.000019
596 -0.000133
597 -0.000078
598 -0.000047
599 0.000003
600 0.000054
601 0.000028
602 0.000030
603 -0.000037
604 0.000150
605 0.000134
606 0.000145
607 0.000167
608 0.000120
609 -0.000067
610 -0.000078
611 0.000001
612 0.000124
613 0.000239
614 0.000286
615 0.000419
616 0.000436
617 0.000168
618 -0.000325
619 -0.000718
620 -0.000850
621 -0.000994
622 -0.000948
623 -0.001008
624 -0.000984
625 -0.000965
626 -0.000885
627 -0.000881
628 -0.001075
629 -0.001208
630 -0.001300
631 -0.001103
632 -0.001021
633 -0.000918
634 -0.000814
635 -0.000767
636 -0.000557
637 -0.000365
638 -0.000301
639 -0.000186
640 -0.000021
641 -0.000045
642 0.000048
643 0.000220
644 0.000317
645 0.000319
646 0.000220
647 0.000241
648 0.000479
649 0.000572
650 0.000495
651 0.000473
652 0.000552
653 0.000661
654 0.000853
655 0.001049
656 0.001142
657 0.001279
658 0.001376
659 0.001637
660 0.001679
661 0.001762
662 0.001776
663 0.001861
664 0.001970
665 0.001890
666 0.001720
667 0.001555
668 0.001466
669 0.001424
670 0.001371
671 0.001240
672 0.001077
673 0.000965
674 0.000867
675 0.000739
676 0.000690
677 0.000444
678 0.000382
679 0.000391
680 0.000437
681 0.000418
682 0.000507
683 0.000564
684 0.000666
685 0.000698
686 0.000790
687 0.000903
688 0.000698
689 0.000582
690 0.000407
691 0.000342
692 0.000092
693 -0.000021
694 -0.000116
695 -0.000213
696 -0.000116
697 -0.000133
698 -0.000205
699 -0.000335
700 -0.000310
701 -0.000240
702 -0.000224
703 -0.000206
704 0.000008
705 0.000146
706 0.000294
707 0.000545
708 0.000851
709 0.001103
710 0.001312
711 0.001320
712 0.001428
713 0.001571
714 0.001638
715 0.001574
716 0.001490
717 0.001415
718 0.001440
719 0.001350
720 0.001152
721 0.000919
722 0.000622
723 0.000529
724 0.000415
725 0.000315
726 0.000298
727 0.000303
728 0.000321
729 0.000356
730 0.000272
731 0.000234
732 -0.000011
733 -0.000108
734 -0.000227
735 -0.000107
736 0.000093
737 0.000205
738 0.000251
739 0.000330
740 0.000361
741 0.000254
742 0.000214
743 0.000014
744 -0.000078
745 -0.000210
746 -0.000239
747 -0.000230
748 -0.000154
749 -0.000080
750 -0.000033
751 0.000115
752 0.000086
753 0.000086
754 0.000040
755 -0.000100
756 -0.000160
757 0.000008
758 0.000207
759 0.000289
760 0.000453
761 0.000525
762 0.000563
763 0.000496
764 0.000386
765 0.000244
766 0.000190
767 0.000231
768 0.000284
769 0.000312
770 0.000213
771 0.000127
772 -0.000039
773 -0.000244
774 -0.000269
775 -0.000347
776 -0.000339
777 -0.000261
778 -0.000103
779 -0.000012
780 0.000143
781 0.000227
782 0.000250
783 0.000358
784 0.000466
785 0.000502
786 0.000448
787 0.000381
788 0.000289
789 0.000237
790 0.000149
791 0.000062
792 0.000022
793 -0.000008
794 -0.000027
795 -0.000008
796 -0.000121
797 -0.000156
798 -0.000156
799 -0.000281
800 -0.000413
801 -0.000479
802 -0.000542
803 -0.000652
804 -0.000640
805 -0.000637
806 -0.000577
807 -0.000482
808 -0.000383
809 -0.000321
