# i correlation
1 0.018393
2 0.015198
3 0.012700
4 0.010731
5 0.009134
6 0.007698
7 0.006252
8 0.004856
9 0.003754
10 0.002934
11 0.002340
12 0.001762
13 0.001396
14 0.001317
15 0.001266
16 0.001086
17 0.000746
18 0.000317
19 -0.000349
20 -0.000892
21 -0.001081
22 -0.000797
23 -0.000389
24 -0.000023
25 0.000015
26 -0.000101
27 0.000024
28 0.000027
29 0.000310
30 0.000677
31 0.000891
32 0.001171
33 0.001581
34 0.002156
35 0.002558
36 0.002482
37 0.002175
38 0.002044
39 0.002000
40 0.002157
41 0.002309
42 0.002212
43 0.001815
44 0.001382
45 0.000929
46 0.000908
47 0.001116
48 0.001106
49 0.001066
50 0.000974
51 0.001097
52 0.001508
53 0.001818
54 0.001729
55 0.001530
56 0.001206
57 0.001166
58 0.001201
59 0.001248
60 0.001056
61 0.000592
62 0.000225
63 0.000096
64 -0.000155
65 -0.000304
66 -0.000330
67 -0.000243
68 0.000054
69 0.000517
70 0.000747
71 0.000957
72 0.000789
73 0.000641
74 0.000918
75 0.001278
76 0.001418
77 0.001378
78 0.001105
79 0.000896
80 0.000597
81 0.000394
82 0.000197
83 -0.000005
84 -0.000325
85 -0.000577
86 -0.000826
87 -0.000946
88 -0.000796
89 -0.000793
90 -0.001080
91 -0.001497
92 -0.001777
93 -0.001969
94 -0.001993
95 -0.002049
96 -0.002039
97 -0.002118
98 -0.002088
99 -0.001829
100 -0.001509
101 -0.001244
102 -0.001214
103 -0.001017
104 -0.000573
105 -0.000347
106 -0.000033
107 0.000018
108 0.000092
109 0.000117
110 0.000305
111 0.000458
112 0.000702
113 0.000802
114 0.000858
115 0.000681
116 0.000823
117 0.001090
118 0.001468
119 0.001378
120 0.001158
121 0.001116
122 0.000798
123 0.000843
124 0.000652
125 0.000439
126 -0.000060
127 -0.000792
128 -0.001191
129 -0.001535
130 -0.001715
131 -0.001917
132 -0.001944
133 -0.002125
134 -0.002202
135 -0.002165
136 -0.002269
137 -0.002298
138 -0.002516
139 -0.002599
140 -0.002320
141 -0.002088
142 -0.001799
143 -0.001894
144 -0.002070
145 -0.002212
146 -0.002164
147 -0.001961
148 -0.001803
149 -0.001856
150 -0.001883
151 -0.001880
152 -0.001851
153 -0.002022
154 -0.002398
155 -0.002478
156 -0.002462
157 -0.001856
158 -0.000902
159 -0.000251
160 0.000200
161 0.000515
162 0.000724
163 0.001167
164 0.001572
165 0.001831
166 0.002244
167 0.002494
168 0.002522
169 0.002714
170 0.002509
171 0.002352
172 0.002306
173 0.002489
174 0.002382
175 0.002201
176 0.001949
177 0.001673
178 0.001467
179 0.001132
180 0.000620
181 0.000112
182 -0.000026
183 -0.000017
184 0.000063
185 -0.000089
186 -0.000232
187 -0.000352
188 -0.000209
189 0.000016
190 -0.000019
191 -0.000272
192 -0.000256
193 -0.000110
194 -0.000371
195 -0.000757
196 -0.001113
197 -0.001292
198 -0.001389
199 -0.001301
200 -0.001308
201 -0.001347
202 -0.001087
203 -0.000827
204 -0.000595
205 -0.000410
206 -0.000157
207 0.000012
208 0.000108
209 -0.000071
210 -0.000349
211 -0.000673
212 -0.000783
213 -0.000856
214 -0.000982
215 -0.001226
216 -0.001190
217 -0.000841
218 -0.000331
219 0.000217
220 0.000930
221 0.001550
222 0.001933
223 0.002133
224 0.002126
225 0.002003
226 0.001881
227 0.001890
228 0.001954
229 0.001832
230 0.001587
231 0.001556
232 0.001462
233 0.001189
234 0.000885
235 0.000968
236 0.001327
237 0.001698
238 0.001763
239 0.001888
240 0.002204
241 0.002653
242 0.002843
243 0.003007
244 0.002907
245 0.002363
246 0.002153
247 0.002034
248 0.001748
249 0.001374
250 0.000811
251 0.000301
252 -0.000272
253 -0.000474
254 -0.000565
255 -0.000471
256 -0.000714
257 -0.000923
258 -0.000850
259 -0.001082
260 -0.001314
261 -0.001267
262 -0.001175
263 -0.001068
264 -0.000880
265 -0.000528
266 -0.000507
267 -0.000325
268 -0.000640
269 -0.001093
270 -0.001119
271 -0.000910
272 -0.000756
273 -0.000697
274 -0.000840
275 -0.000939
276 -0.000925
277 -0.000556
278 -0.000188
279 0.000116
280 0.000194
281 0.000365
282 0.000487
283 0.000789
284 0.000843
285 0.000673
286 0.000509
287 0.000321
288 0.000378
289 0.000723
290 0.000806
291 0.000744
292 0.000534
293 0.000367
294 0.000322
295 0.000303
296 0.000451
297 0.000435
298 0.000361
299 0.000287
300 0.000309
301 0.000337
302 0.000335
303 0.000359
304 0.000145
305 -0.000144
306 -0.000057
307 0.000032
308 -0.000027
309 -0.000230
310 -0.000407
311 -0.000262
312 -0.000242
313 -0.000006
314 0.000134
315 0.000135
316 -0.000007
317 -0.000020
318 0.000137
319 0.000032
320 0.000056
321 0.000048
322 -0.000351
323 -0.000806
324 -0.000827
325 -0.000734
326 -0.000673
327 -0.000805
328 -0.000798
329 -0.000635
330 -0.000302
331 -0.000008
332 0.000245
333 0.000507
334 0.000731
335 0.001045
336 0.001481
337 0.001655
338 0.001716
339 0.001699
340 0.001839
341 0.002131
342 0.002691
343 0.003058
344 0.003240
345 0.003049
346 0.002985
347 0.003051
348 0.003203
349 0.003260
350 0.003166
351 0.003008
352 0.003155
353 0.003052
354 0.002653
355 0.002562
356 0.002302
357 0.002027
358 0.001628
359 0.001297
360 0.000956
361 0.000513
362 0.000010
363 -0.000457
364 -0.000931
365 -0.001064
366 -0.000926
367 -0.000766
368 -0.000634
369 -0.000480
370 -0.000485
371 -0.000286
372 0.000025
373 0.000185
374 0.000223
375 0.000060
376 -0.000161
377 -0.000169
378 -0.000183
379 -0.000279
380 -0.000572
381 -0.000494
382 -0.000295
383 0.000101
384 0.000465
385 0.000650
386 0.000822
387 0.000941
388 0.000975
389 0.001223
390 0.001664
391 0.001654
392 0.001475
393 0.001202
394 0.000756
395 0.000962
396 0.001048
397 0.001005
398 0.000607
399 0.000292
400 0.000052
401 0.000055
402 0.000050
403 -0.000353
404 -0.000553
405 -0.000408
406 -0.000127
407 0.000382
408 0.000661
409 0.000766
410 0.001002
411 0.001310
412 0.001620
413 0.001877
414 0.002028
415 0.002196
416 0.002174
417 0.002228
418 0.002138
419 0.002059
420 0.002011
421 0.001886
422 0.001593
423 0.001156
424 0.001040
425 0.001249
426 0.001468
427 0.001559
428 0.001667
429 0.001769
430 0.001956
431 0.002039
432 0.001918
433 0.001393
434 0.000988
435 0.000422
436 0.000171
437 0.000010
438 -0.000315
439 -0.000489
440 -0.000611
441 -0.000449
442 -0.000334
443 -0.000453
444 -0.000493
445 -0.000684
446 -0.000914
447 -0.001125
448 -0.001215
449 -0.001179
450 -0.001034
451 -0.001108
452 -0.001010
453 -0.000743
454 -0.000255
455 0.000169
456 0.000484
457 0.000722
458 0.000681
459 0.000603
460 0.000771
461 0.001210
462 0.001497
463 0.001592
464 0.001778
465 0.001970
466 0.002018
467 0.001987
468 0.001986
469 0.001995
470 0.001906
471 0.001793
472 0.001626
473 0.001472
474 0.000958
475 0.000524
476 0.000249
477 0.000066
478 -0.000030
479 -0.000284
480 -0.000567
481 -0.000880
482 -0.001187
483 -0.001479
484 -0.001602
485 -0.001715
486 -0.001669
487 -0.001522
488 -0.001439
489 -0.001348
490 -0.001308
491 -0.001302
492 -0.001265
493 -0.001260
494 -0.001218
495 -0.000969
496 -0.000907
497 -0.000978
498 -0.001119
499 -0.001205
500 -0.001279
501 -0.001362
502 -0.001268
503 -0.001211
504 -0.000978
505 -0.000642
506 -0.000506
507 -0.000257
508 0.000113
509 0.000378
510 0.000440
511 0.000559
512 0.000357
513 0.000463
514 0.000575
515 0.000622
516 0.000751
517 0.000685
518 0.000641
519 0.000720
520 0.000791
521 0.000912
522 0.000927
523 0.000857
524 0.000720
525 0.000682
526 0.000579
527 0.000470
528 0.000340
529 0.000138
530 0.000050
531 0.000077
532 0.000316
533 0.000425
534 0.000207
535 -0.000004
536 -0.000168
537 -0.000250
538 -0.000235
539 -0.000218
540 -0.000245
541 -0.000296
542 -0.000214
543 -0.000303
544 -0.000548
545 -0.000722
546 -0.000919
547 -0.001062
548 -0.001093
549 -0.001129
550 -0.001118
551 -0.001344
552 -0.001500
553 -0.001460
554 -0.001279
555 -0.001010
556 -0.000517
557 0.000037
558 0.000564
559 0.000737
560 0.000703
561 0.000716
562 0.000854
563 0.000977
564 0.000971
565 0.000959
566 0.000706
567 0.000327
568 -0.000038
569 -0.000290
570 -0.000452
571 -0.000466
572 -0.000465
573 -0.000341
574 -0.000023
575 0.000315
576 0.000530
577 0.000710
578 0.000907
579 0.001355
580 0.001782
581 0.002041
582 0.001906
583 0.001680
584 0.001430
585 0.001238
586 0.001089
587 0.001090
588 0.001222
589 0.001422
590 0.001683
591 0.001753
592 0.001834
593 0.001753
594 0.001897
595 0.001779
596 0.001667
597 0.001664
598 0.001525
599 0.001519
600 0.001266
601 0.000920
602 0.000476
603 0.000059
604 -0.000214
605 -0.000270
606 -0.000388
607 -0.000551
608 -0.000837
609 -0.001055
610 -0.001007
611 -0.001028
612 -0.001058
613 -0.001071
614 -0.000899
615 -0.000662
616 -0.000526
617 -0.000481
618 -0.000451
619 -0.000306
620 -0.000287
621 -0.000389
622 -0.000568
623 -0.000653
624 -0.000716
625 -0.000805
626 -0.001001
627 -0.001086
628 -0.001038
629 -0.000919
630 -0.000574
631 -0.000357
632 -0.000024
633 0.000382
634 0.000800
635 0.000838
636 0.000915
637 0.000884
638 0.000730
639 0.000652
640 0.000548
641 0.000393
642 0.000183
643 -0.000298
644 -0.000733
645 -0.001066
646 -0.000997
647 -0.000970
648 -0.000846
649 -0.000783
650 -0.000748
651 -0.000813
652 -0.000996
653 -0.001160
654 -0.001212
655 -0.001113
656 -0.001079
657 -0.000940
658 -0.000863
659 -0.000884
660 -0.000851
661 -0.000749
662 -0.000568
663 -0.000284
664 -0.000083
665 0.000052
666 0.000310
667 0.000482
668 0.000613
669 0.000748
670 0.000830
671 0.000832
672 0.000775
673 0.000881
674 0.000976
675 0.000999
676 0.000911
677 0.000804
678 0.000704
679 0.000459
680 0.000349
681 0.000145
682 -0.000030
683 -0.000180
684 -0.000333
685 -0.000422
686 -0.000692
687 -0.001023
688 -0.001143
689 -0.001154
690 -0.001102
691 -0.001012
692 -0.001016
693 -0.000917
694 -0.000850
695 -0.000702
696 -0.000525
697 -0.000348
698 -0.000072
699 0.000193
700 0.000267
701 0.000338
702 0.000312
703 0.000186
704 0.000124
705 -0.000063
706 -0.000302
707 -0.000491
708 -0.000523
709 -0.000565
710 -0.000602
711 -0.000603
712 -0.000834
713 -0.001079
714 -0.001367
715 -0.001408
716 -0.001374
717 -0.001390
718 -0.001557
719 -0.001747
720 -0.001784
721 -0.001737
722 -0.001631
723 -0.001492
724 -0.001433
725 -0.001359
726 -0.001153
727 -0.001019
728 -0.001000
729 -0.000928
730 -0.000872
731 -0.000690
732 -0.000416
733 -0.000214
734 -0.000265
735 -0.000298
736 -0.000253
737 -0.000164
738 0.000003
739 0.000058
740 0.000028
741 -0.000023
742 -0.000023
743 -0.000118
744 -0.000265
745 -0.000335
746 -0.000398
747 -0.000387
748 -0.000245
749 0.000052
750 0.000359
751 0.000679
752 0.001014
753 0.001171
754 0.001279
755 0.001265
756 0.001247
757 0.001324
758 0.001331
759 0.001321
760 0.001298
761 0.001120
762 0.001069
763 0.001130
764 0.001193
765 0.001204
766 0.001202
767 0.001168
768 0.001176
769 0.001037
770 0.000914
771 0.000701
772 0.000558
773 0.000479
774 0.000505
775 0.000463
776 0.000351
777 0.000166
778 0.000175
779 0.000346
780 0.000524
781 0.000651
782 0.000699
783 0.000794
784 0.001053
785 0.001283
786 0.001470
787 0.001533
788 0.001466
789 0.001377
790 0.001173
791 0.000957
792 0.000724
793 0.000525
794 0.000303
795 -0.000049
796 -0.000348
797 -0.000379
798 -0.000201
799 0.000028
800 0.000223
801 0.000407
802 0.000549
803 0.000717
804 0.000748
805 0.000705
806 0.000766
807 0.000873
808 0.000878
809 0.000789
