# i correlation
1 0.016545
2 0.014108
3 0.012122
4 0.010598
5 0.009081
6 0.007462
7 0.006027
8 0.005139
9 0.004314
10 0.003454
11 0.002893
12 0.002546
13 0.002591
14 0.002811
15 0.002958
16 0.003220
17 0.003353
18 0.003332
19 0.003364
20 0.003291
21 0.003196
22 0.003291
23 0.003154
24 0.002729
25 0.002192
26 0.001653
27 0.001070
28 0.000407
29 0.000019
30 -0.000214
31 -0.000458
32 -0.000743
33 -0.000789
34 -0.000901
35 -0.000786
36 -0.000493
37 0.000014
38 0.000960
39 0.001758
40 0.002190
41 0.002562
42 0.002952
43 0.003207
44 0.003327
45 0.003374
46 0.003521
47 0.003220
48 0.003145
49 0.002963
50 0.002702
51 0.002643
52 0.002628
53 0.002438
54 0.002849
55 0.003081
56 0.003027
57 0.002901
58 0.002585
59 0.002548
60 0.002389
61 0.002012
62 0.001710
63 0.001791
64 0.001800
65 0.001944
66 0.001501
67 0.001212
68 0.001329
69 0.001555
70 0.001408
71 0.001108
72 0.000615
73 0.000175
74 -0.000004
75 -0.000413
76 -0.000872
77 -0.001010
78 -0.001089
79 -0.001190
80 -0.001440
81 -0.001463
82 -0.001725
83 -0.001778
84 -0.001919
85 -0.001621
86 -0.001347
87 -0.000967
88 -0.000653
89 -0.000273
90 -0.000128
91 -0.000284
92 -0.000376
93 -0.000496
94 -0.000385
95 -0.000409
96 -0.000411
97 -0.000540
98 -0.000650
99 -0.000605
100 -0.000498
101 -0.000408
102 -0.000433
103 -0.000240
104 -0.000139
105 -0.000018
106 -0.000070
107 -0.000105
108 0.000148
109 0.000409
110 0.000469
111 0.000452
112 0.000427
113 0.000133
114 0.000071
115 0.000140
116 0.000026
117 -0.000045
118 -0.000211
119 -0.000429
120 -0.000551
121 -0.001020
122 -0.001119
123 -0.001079
124 -0.000618
125 -0.000434
126 -0.000395
127 -0.000217
128 -0.000009
129 0.000263
130 0.000254
131 0.000230
132 0.000184
133 0.000174
134 0.000239
135 0.000521
136 0.000461
137 0.000456
138 0.000285
139 0.000118
140 0.000174
141 -0.000011
142 0.000219
143 0.000525
144 0.000874
145 0.001020
146 0.001281
147 0.001315
148 0.001604
149 0.002146
150 0.002618
151 0.003325
152 0.003552
153 0.003849
154 0.004055
155 0.004256
156 0.004074
157 0.004047
158 0.003849
159 0.003437
160 0.003218
161 0.002692
162 0.002174
163 0.001788
164 0.001341
165 0.000738
166 0.000571
167 0.000460
168 0.000651
169 0.000814
170 0.000691
171 0.000456
172 0.000282
173 0.000219
174 0.000338
175 0.000365
176 0.000160
177 0.000012
178 -0.000203
179 -0.000021
180 0.000166
181 0.000254
182 0.000233
183 0.000331
184 0.000458
185 0.000339
186 0.000215
187 -0.000007
188 -0.000390
189 -0.000541
190 -0.000940
191 -0.001094
192 -0.001017
193 -0.000542
194 -0.000019
195 0.000195
196 0.000206
197 0.000476
198 0.000822
199 0.001011
200 0.000921
201 0.000964
202 0.001024
203 0.001204
204 0.001237
205 0.001177
206 0.001301
207 0.001181
208 0.001303
209 0.001305
210 0.001104
211 0.000955
212 0.000967
213 0.001016
214 0.001284
215 0.001275
216 0.001080
217 0.000967
218 0.000848
219 0.000447
220 0.000306
221 0.000226
222 0.000204
223 0.000354
224 0.000508
225 0.000930
226 0.001124
227 0.000993
228 0.000733
229 0.000252
230 -0.000336
231 -0.000488
232 -0.000694
233 -0.000897
234 -0.001108
235 -0.001162
236 -0.001073
237 -0.000938
238 -0.000504
239 -0.000236
240 0.000134
241 0.000131
242 0.000007
243 0.000073
244 0.000354
245 0.000594
246 0.000352
247 0.000249
248 0.000316
249 0.000579
250 0.000510
251 0.000426
252 0.000455
253 0.000542
254 0.000706
255 0.000538
256 0.000479
257 0.000582
258 0.000553
259 0.000337
260 0.000113
261 -0.000033
262 0.000029
263 0.000213
264 0.000280
265 0.000028
266 -0.000162
267 -0.000162
268 -0.000251
269 -0.000283
270 -0.000386
271 -0.000420
272 -0.000453
273 -0.000538
274 -0.000815
275 -0.001189
276 -0.001476
277 -0.001304
278 -0.001407
279 -0.001345
280 -0.001285
281 -0.001231
282 -0.000895
283 -0.000393
284 -0.000254
285 -0.000170
286 -0.000068
287 0.000077
288 -0.000098
289 -0.000467
290 -0.000891
291 -0.000909
292 -0.000835
293 -0.000647
294 -0.000530
295 -0.000265
296 -0.000034
297 0.000102
298 0.000329
299 0.000617
300 0.000992
301 0.001055
302 0.000857
303 0.001073
304 0.001427
305 0.001458
306 0.001250
307 0.000967
308 0.000785
309 0.001044
310 0.000919
311 0.000626
312 0.000565
313 0.000657
314 0.000870
315 0.000862
316 0.000875
317 0.000930
318 0.001229
319 0.001346
320 0.001215
321 0.001314
322 0.001524
323 0.001504
324 0.001105
325 0.000552
326 0.000511
327 -0.000007
328 -0.000443
329 -0.001010
330 -0.001237
331 -0.001422
332 -0.001606
333 -0.001877
334 -0.002103
335 -0.002348
336 -0.002435
337 -0.002151
338 -0.001661
339 -0.001268
340 -0.000985
341 -0.000759
342 -0.000609
343 -0.000532
344 -0.000585
345 -0.000756
346 -0.000881
347 -0.001099
348 -0.001206
349 -0.001363
350 -0.001447
351 -0.001675
352 -0.001504
353 -0.001437
354 -0.001191
355 -0.000946
356 -0.000730
357 -0.000427
358 -0.000295
359 -0.000273
360 0.000134
361 0.000551
362 0.000737
363 0.001097
364 0.001505
365 0.001628
366 0.001666
367 0.001474
368 0.001458
369 0.001453
370 0.001209
371 0.000805
372 0.000708
373 0.000643
374 0.000622
375 0.000429
376 0.000337
377 0.000389
378 0.000837
379 0.000822
380 0.000725
381 0.000780
382 0.001042
383 0.001162
384 0.001010
385 0.000975
386 0.000950
387 0.001026
388 0.000937
389 0.000837
390 0.000559
391 0.000313
392 0.000073
393 0.000045
394 0.000074
395 0.000152
396 0.000121
397 0.000065
398 0.000017
399 -0.000199
400 -0.000322
401 -0.000393
402 -0.000436
403 -0.000330
404 -0.000371
405 -0.000452
406 -0.000287
407 -0.000147
408 0.000167
409 0.000560
410 0.000632
411 0.000895
412 0.001284
413 0.001365
414 0.001298
415 0.001137
416 0.000753
417 0.000505
418 0.000352
419 0.000335
420 0.000463
421 0.000319
422 0.000443
423 0.000402
424 0.000212
425 0.000114
426 0.000075
427 0.000285
428 0.000464
429 0.000515
430 0.000461
431 0.000672
432 0.000787
433 0.001106
434 0.001403
435 0.001441
436 0.001456
437 0.001472
438 0.001510
439 0.001597
440 0.001430
441 0.001379
442 0.001299
443 0.001084
444 0.000767
445 0.000137
446 -0.000208
447 -0.000403
448 -0.000632
449 -0.000806
450 -0.000718
451 -0.000493
452 -0.000228
453 0.000008
454 0.000096
455 0.000261
456 0.000295
457 0.000270
458 0.000313
459 -0.000013
460 -0.000117
461 -0.000343
462 -0.000689
463 -0.000842
464 -0.000760
465 -0.000615
466 -0.000393
467 -0.000272
468 -0.000073
469 -0.000002
470 -0.000084
471 -0.000256
472 -0.000245
473 -0.000146
474 0.000052
475 0.000125
476 0.000003
477 -0.000043
478 -0.000173
479 -0.000392
480 -0.000472
481 -0.000467
482 -0.000414
483 -0.000342
484 -0.000340
485 -0.000331
486 -0.000519
487 -0.000657
488 -0.000700
489 -0.000654
490 -0.000382
491 -0.000264
492 -0.000214
493 -0.000126
494 -0.000031
495 -0.000100
496 -0.000126
497 -0.000190
498 -0.000082
499 -0.000124
500 -0.000398
501 -0.000671
502 -0.000819
503 -0.000767
504 -0.000881
505 -0.000976
506 -0.001134
507 -0.000945
508 -0.000803
509 -0.000838
510 -0.000778
511 -0.000760
512 -0.000643
513 -0.000530
514 -0.000588
515 -0.000645
516 -0.000770
517 -0.000839
518 -0.000772
519 -0.001000
520 -0.001100
521 -0.001107
522 -0.001163
523 -0.001021
524 -0.000905
525 -0.000818
526 -0.000641
527 -0.000364
528 -0.000310
529 -0.000034
530 0.000101
531 0.000249
532 0.000367
533 0.000402
534 0.000346
535 0.000322
536 0.000461
537 0.000602
538 0.000758
539 0.000824
540 0.000922
541 0.000986
542 0.000830
543 0.000792
544 0.000717
545 0.000715
546 0.000604
547 0.000626
548 0.000517
549 0.000597
550 0.000600
551 0.000422
552 0.000175
553 -0.000029
554 0.000015
555 0.000069
556 0.000134
557 0.000172
558 0.000311
559 0.000387
560 0.000324
561 0.000148
562 0.000088
563 0.000293
564 0.000580
565 0.000698
566 0.000860
567 0.000825
568 0.000778
569 0.000521
570 0.000383
571 0.000255
572 0.000247
573 0.000127
574 -0.000235
575 -0.000500
576 -0.000698
577 -0.000583
578 -0.000334
579 -0.000133
580 0.000082
581 0.000244
582 0.000491
583 0.000751
584 0.000824
585 0.000821
586 0.000965
587 0.001063
588 0.001078
589 0.000925
590 0.000748
591 0.000591
592 0.000624
593 0.000645
594 0.000614
595 0.000783
596 0.000896
597 0.000952
598 0.000881
599 0.000811
600 0.000737
601 0.000795
602 0.000876
603 0.000986
604 0.001168
605 0.001390
606 0.001451
607 0.001511
608 0.001505
609 0.001634
610 0.001711
611 0.001541
612 0.001341
613 0.001320
614 0.001289
615 0.001264
616 0.001104
617 0.000894
618 0.000816
619 0.000780
620 0.000720
621 0.000799
622 0.000854
623 0.000894
624 0.000858
625 0.000862
626 0.001117
627 0.001299
628 0.001235
629 0.001017
630 0.000813
631 0.000627
632 0.000352
633 0.000057
634 -0.000114
635 -0.000045
636 -0.000036
637 0.000026
638 0.000081
639 0.000116
640 0.000164
641 0.000171
642 0.000271
643 0.000386
644 0.000395
645 0.000523
646 0.000515
647 0.000640
648 0.000741
649 0.000840
650 0.000799
651 0.000897
652 0.000931
653 0.001087
654 0.001094
655 0.001002
656 0.000853
657 0.000830
658 0.000824
659 0.000838
660 0.000824
661 0.000859
662 0.000824
663 0.000656
664 0.000643
665 0.000687
666 0.000669
667 0.000757
668 0.000750
669 0.000797
670 0.000682
671 0.000487
672 0.000377
673 0.000350
674 0.000318
675 0.000249
676 0.000210
677 0.000059
678 0.000140
679 0.000175
680 0.000320
681 0.000546
682 0.000712
683 0.000951
684 0.001150
685 0.001283
686 0.001399
687 0.001465
688 0.001509
689 0.001602
690 0.001682
691 0.001838
692 0.001885
693 0.001626
694 0.001387
695 0.001253
696 0.001233
697 0.001157
698 0.000972
699 0.000748
700 0.000675
701 0.000549
702 0.000482
703 0.000429
704 0.000466
705 0.000561
706 0.000578
707 0.000731
708 0.000868
709 0.000902
710 0.000898
711 0.000943
712 0.000994
713 0.001055
714 0.001050
715 0.000913
716 0.000852
717 0.000774
718 0.000736
719 0.000764
720 0.000623
721 0.000606
722 0.000632
723 0.000639
724 0.000824
725 0.000932
726 0.000964
727 0.000988
728 0.001068
729 0.001133
730 0.001177
731 0.001266
732 0.001390
733 0.001354
734 0.001438
735 0.001524
736 0.001518
737 0.001464
738 0.001678
739 0.001776
740 0.001823
741 0.001846
742 0.001808
743 0.001839
744 0.001817
745 0.001798
746 0.001787
747 0.001747
748 0.001803
749 0.001691
750 0.001625
751 0.001682
752 0.001717
753 0.001734
754 0.001675
755 0.001667
756 0.001596
757 0.001570
758 0.001504
759 0.001463
760 0.001445
761 0.001491
762 0.001561
763 0.001478
764 0.001383
765 0.001278
766 0.001133
767 0.001112
768 0.000952
769 0.000821
770 0.000751
771 0.000672
772 0.000664
773 0.000601
774 0.000585
775 0.000572
776 0.000618
777 0.000697
778 0.000813
779 0.000906
780 0.000959
781 0.000992
782 0.001035
783 0.001093
784 0.001083
785 0.000889
786 0.000787
787 0.000647
788 0.000653
789 0.000699
790 0.000754
791 0.000886
792 0.000903
793 0.000926
794 0.001015
795 0.001071
796 0.001111
797 0.001061
798 0.001000
799 0.000989
800 0.001062
801 0.000960
802 0.000864
803 0.000909
804 0.001000
805 0.001080
806 0.001136
807 0.001091
808 0.001061
809 0.000988
