# i correlation
1 0.016150
2 0.013887
3 0.011910
4 0.010266
5 0.009087
6 0.008376
7 0.007513
8 0.006908
9 0.006323
10 0.005927
11 0.005835
12 0.005729
13 0.005364
14 0.004881
15 0.004383
16 0.004085
17 0.003978
18 0.003908
19 0.004089
20 0.003845
21 0.003525
22 0.002945
23 0.002412
24 0.002031
25 0.001885
26 0.001798
27 0.001768
28 0.001506
29 0.001403
30 0.001049
31 0.000672
32 0.000523
33 0.000639
34 0.000576
35 0.000623
36 0.000639
37 0.000687
38 0.000715
39 0.000466
40 0.000505
41 0.000324
42 0.000246
43 0.000356
44 0.000311
45 0.000425
46 0.000636
47 0.000866
48 0.000883
49 0.000759
50 0.000456
51 0.000456
52 0.000639
53 0.000738
54 0.000949
55 0.000998
56 0.000921
57 0.000937
58 0.000645
59 0.000423
60 0.000085
61 -0.000168
62 -0.000347
63 -0.000283
64 -0.000318
65 -0.000028
66 0.000392
67 0.000467
68 0.000422
69 0.000380
70 0.000353
71 0.000671
72 0.000794
73 0.001258
74 0.001581
75 0.001585
76 0.001705
77 0.001899
78 0.001828
79 0.001745
80 0.001548
81 0.001449
82 0.001357
83 0.001207
84 0.001211
85 0.001135
86 0.001116
87 0.001043
88 0.001008
89 0.000905
90 0.001243
91 0.001477
92 0.001893
93 0.002216
94 0.002358
95 0.002198
96 0.002172
97 0.002019
98 0.001900
99 0.002058
100 0.002152
101 0.002118
102 0.001949
103 0.001873
104 0.001795
105 0.001527
106 0.001219
107 0.000887
108 0.000697
109 0.000431
110 0.000353
111 0.000358
112 0.000429
113 0.000467
114 0.000295
115 0.000074
116 -0.000282
117 -0.000916
118 -0.001210
119 -0.001488
120 -0.001437
121 -0.001312
122 -0.001176
123 -0.000932
124 -0.000606
125 -0.000408
126 -0.000388
127 -0.000403
128 -0.000391
129 -0.000361
130 -0.000334
131 -0.000335
132 -0.000324
133 -0.000289
134 -0.000222
135 -0.000203
136 -0.000318
137 -0.000355
138 -0.000425
139 -0.000427
140 -0.000417
141 -0.000041
142 0.000387
143 0.000559
144 0.000672
145 0.000857
146 0.000842
147 0.000877
148 0.001033
149 0.001094
150 0.001025
151 0.001119
152 0.001374
153 0.001867
154 0.002002
155 0.002284
156 0.002558
157 0.002881
158 0.003245
159 0.003550
160 0.003716
161 0.003752
162 0.003699
163 0.003553
164 0.003510
165 0.003623
166 0.003705
167 0.003924
168 0.003920
169 0.003609
170 0.003619
171 0.003520
172 0.003497
173 0.003405
174 0.003456
175 0.003551
176 0.003599
177 0.003307
178 0.003467
179 0.003501
180 0.003546
181 0.003453
182 0.003372
183 0.003113
184 0.003092
185 0.002949
186 0.002829
187 0.002881
188 0.002715
189 0.002541
190 0.002203
191 0.002084
192 0.001968
193 0.002059
194 0.001964
195 0.001992
196 0.001918
197 0.001786
198 0.001542
199 0.001245
200 0.001055
201 0.001037
202 0.000734
203 0.000646
204 0.000707
205 0.000865
206 0.000981
207 0.001241
208 0.001667
209 0.001768
210 0.001662
211 0.001489
212 0.001384
213 0.001259
214 0.001259
215 0.001090
216 0.000937
217 0.000735
218 0.000412
219 0.000103
220 -0.000256
221 -0.000662
222 -0.000771
223 -0.001012
224 -0.001076
225 -0.001041
226 -0.001142
227 -0.000955
228 -0.000479
229 0.000218
230 0.000740
231 0.001154
232 0.001125
233 0.001359
234 0.001677
235 0.001758
236 0.001985
237 0.002008
238 0.001785
239 0.001662
240 0.001378
241 0.001249
242 0.000881
243 0.000502
244 0.000186
245 -0.000007
246 -0.000141
247 -0.000222
248 -0.000016
249 0.000231
250 0.000331
251 0.000434
252 0.000904
253 0.000879
254 0.000755
255 0.000550
256 0.000370
257 0.000381
258 0.000618
259 0.000670
260 0.000847
261 0.000689
262 0.000540
263 0.000326
264 0.000326
265 0.000245
266 0.000411
267 0.000288
268 0.000413
269 0.000470
270 0.000540
271 0.000683
272 0.000883
273 0.000839
274 0.000749
275 0.000487
276 0.000161
277 0.000123
278 0.000023
279 0.000100
280 0.000093
281 0.000204
282 0.000189
283 0.000137
284 -0.000058
285 -0.000040
286 -0.000102
287 -0.000064
288 -0.000186
289 -0.000509
290 -0.000744
291 -0.000733
292 -0.000956
293 -0.001330
294 -0.001553
295 -0.001659
296 -0.001563
297 -0.001563
298 -0.001568
299 -0.001651
300 -0.001697
301 -0.001566
302 -0.001538
303 -0.001664
304 -0.001695
305 -0.001661
306 -0.001525
307 -0.001155
308 -0.000904
309 -0.000478
310 -0.000320
311 -0.000160
312 -0.000148
313 0.000040
314 0.000132
315 0.000108
316 0.000204
317 0.000266
318 0.000220
319 0.000265
320 0.000497
321 0.000697
322 0.000777
323 0.000904
324 0.000929
325 0.001083
326 0.001230
327 0.001312
328 0.001511
329 0.001840
330 0.002055
331 0.002478
332 0.002686
333 0.002952
334 0.003177
335 0.003245
336 0.003211
337 0.003169
338 0.003035
339 0.002902
340 0.002827
341 0.002590
342 0.002498
343 0.002345
344 0.002169
345 0.001847
346 0.001667
347 0.001367
348 0.001139
349 0.000997
350 0.000953
351 0.000847
352 0.000747
353 0.000692
354 0.000719
355 0.000632
356 0.000773
357 0.000577
358 0.000576
359 0.000547
360 0.000639
361 0.000676
362 0.000711
363 0.000683
364 0.000699
365 0.000719
366 0.000706
367 0.000768
368 0.000747
369 0.000587
370 0.000410
371 0.000325
372 0.000287
373 0.000342
374 0.000360
375 0.000531
376 0.000607
377 0.000461
378 0.000312
379 0.000289
380 0.000313
381 0.000110
382 0.000038
383 -0.000138
384 -0.000191
385 -0.000297
386 -0.000360
387 -0.000388
388 -0.000431
389 -0.000535
390 -0.000540
391 -0.000537
392 -0.000551
393 -0.000521
394 -0.000460
395 -0.000446
396 -0.000463
397 -0.000300
398 -0.000404
399 -0.000662
400 -0.000984
401 -0.001035
402 -0.001123
403 -0.001032
404 -0.000730
405 -0.000472
406 -0.000402
407 -0.000173
408 -0.000116
409 -0.000036
410 0.000125
411 0.000145
412 0.000074
413 0.000231
414 0.000167
415 0.000169
416 0.000280
417 0.000614
418 0.000757
419 0.000954
420 0.001012
421 0.001232
422 0.001408
423 0.001486
424 0.001563
425 0.001772
426 0.001900
427 0.002042
428 0.002237
429 0.002213
430 0.002260
431 0.002122
432 0.002114
433 0.002051
434 0.001977
435 0.001683
436 0.001407
437 0.001231
438 0.001221
439 0.001274
440 0.001392
441 0.001409
442 0.001376
443 0.001220
444 0.001330
445 0.001413
446 0.001439
447 0.001298
448 0.001200
449 0.001018
450 0.000970
451 0.000680
452 0.000238
453 -0.000014
454 -0.000418
455 -0.000850
456 -0.001205
457 -0.001341
458 -0.001353
459 -0.001258
460 -0.001279
461 -0.001220
462 -0.001321
463 -0.001392
464 -0.001297
465 -0.001153
466 -0.000925
467 -0.000886
468 -0.000916
469 -0.001161
470 -0.001156
471 -0.001199
472 -0.001176
473 -0.001220
474 -0.001036
475 -0.001019
476 -0.000926
477 -0.000910
478 -0.000878
479 -0.001015
480 -0.001304
481 -0.001509
482 -0.001740
483 -0.001866
484 -0.001865
485 -0.001717
486 -0.001489
487 -0.001294
488 -0.000934
489 -0.000704
490 -0.000628
491 -0.000512
492 -0.000530
493 -0.000698
494 -0.000787
495 -0.000730
496 -0.000780
497 -0.000583
498 -0.000470
499 -0.000495
500 -0.000528
501 -0.000442
502 -0.000337
503 -0.000146
504 -0.000033
505 0.000075
506 0.000081
507 0.000127
508 0.000296
509 0.000513
510 0.000689
511 0.000942
512 0.001088
513 0.001201
514 0.001161
515 0.000982
516 0.000885
517 0.000946
518 0.001041
519 0.001052
520 0.001020
521 0.001082
522 0.001042
523 0.000781
524 0.000834
525 0.000679
526 0.000645
527 0.000421
528 0.000170
529 0.000040
530 0.000013
531 0.000175
532 0.000380
533 0.000366
534 0.000127
535 -0.000150
536 -0.000361
537 -0.000404
538 -0.000436
539 -0.000391
540 -0.000299
541 -0.000238
542 -0.000258
543 -0.000015
544 0.000128
545 0.000389
546 0.000357
547 0.000240
548 0.000055
549 -0.000037
550 0.000012
551 0.000293
552 0.000315
553 0.000185
554 -0.000069
555 -0.000294
556 -0.000600
557 -0.000700
558 -0.000732
559 -0.000797
560 -0.000685
561 -0.000758
562 -0.000757
563 -0.000725
564 -0.000534
565 -0.000406
566 -0.000209
567 -0.000294
568 -0.000275
569 -0.000074
570 -0.000069
571 -0.000070
572 -0.000034
573 -0.000018
574 0.000062
575 0.000120
576 0.000025
577 0.000021
578 0.000050
579 0.000134
580 0.000150
581 -0.000033
582 -0.000315
583 -0.000329
584 -0.000391
585 -0.000285
586 -0.000134
587 0.000097
588 0.000437
589 0.000791
590 0.001025
591 0.001178
592 0.001337
593 0.001297
594 0.001111
595 0.000978
596 0.000723
597 0.000623
598 0.000781
599 0.000924
600 0.000987
601 0.000989
602 0.001026
603 0.001060
604 0.000975
605 0.001135
606 0.001401
607 0.001510
608 0.001564
609 0.001592
610 0.001639
611 0.001495
612 0.001352
613 0.001159
614 0.001037
615 0.000782
616 0.000608
617 0.000507
618 0.000517
619 0.000418
620 0.000342
621 0.000197
622 0.000058
623 0.000016
624 -0.000076
625 -0.000147
626 0.000035
627 0.000084
628 -0.000014
629 -0.000140
630 -0.000404
631 -0.000758
632 -0.000886
633 -0.000941
634 -0.001007
635 -0.000853
636 -0.000820
637 -0.000756
638 -0.000706
639 -0.000671
640 -0.000600
641 -0.000530
642 -0.000343
643 -0.000346
644 -0.000305
645 -0.000172
646 -0.000100
647 -0.000086
648 -0.000261
649 -0.000527
650 -0.000819
651 -0.001020
652 -0.001147
653 -0.001146
654 -0.001020
655 -0.000807
656 -0.000657
657 -0.000502
658 -0.000480
659 -0.000422
660 -0.000619
661 -0.000760
662 -0.000765
663 -0.000729
664 -0.000704
665 -0.000493
666 -0.000428
667 -0.000352
668 -0.000431
669 -0.000489
670 -0.000631
671 -0.000700
672 -0.000796
673 -0.000655
674 -0.000577
675 -0.000523
676 -0.000484
677 -0.000523
678 -0.000540
679 -0.000416
680 -0.000330
681 -0.000302
682 -0.000202
683 -0.000291
684 -0.000266
685 -0.000340
686 -0.000503
687 -0.000670
688 -0.000923
689 -0.001008
690 -0.001192
691 -0.001334
692 -0.001211
693 -0.001101
694 -0.000978
695 -0.000923
696 -0.000965
697 -0.001163
698 -0.001266
699 -0.001212
700 -0.001141
701 -0.001095
702 -0.000979
703 -0.000782
704 -0.000683
705 -0.000636
706 -0.000602
707 -0.000763
708 -0.000876
709 -0.000955
710 -0.000930
711 -0.000780
712 -0.000706
713 -0.000641
714 -0.000649
715 -0.000698
716 -0.000653
717 -0.000670
718 -0.000671
719 -0.000484
720 -0.000419
721 -0.000408
722 -0.000259
723 -0.000277
724 -0.000421
725 -0.000623
726 -0.000764
727 -0.000969
728 -0.001066
729 -0.001277
730 -0.001377
731 -0.001363
732 -0.001329
733 -0.001386
734 -0.001464
735 -0.001505
736 -0.001426
737 -0.001427
738 -0.001366
739 -0.001332
740 -0.001264
741 -0.001156
742 -0.001025
743 -0.001112
744 -0.001228
745 -0.001359
746 -0.001498
747 -0.001409
748 -0.001175
749 -0.000993
750 -0.000805
751 -0.000596
752 -0.000569
753 -0.000469
754 -0.000530
755 -0.000430
756 -0.000415
757 -0.000350
758 -0.000209
759 0.000039
760 0.000346
761 0.000560
762 0.000732
763 0.000827
764 0.000631
765 0.000476
766 0.000353
767 0.000250
768 0.000196
769 0.000188
770 0.000251
771 0.000282
772 0.000415
773 0.000547
774 0.000587
775 0.000532
776 0.000377
777 0.000352
778 0.000207
779 0.000080
780 -0.000005
781 -0.000159
782 -0.000247
783 -0.000389
784 -0.000416
785 -0.000321
786 -0.000296
787 -0.000353
788 -0.000357
789 -0.000422
790 -0.000526
791 -0.000735
792 -0.000925
793 -0.001013
794 -0.001058
795 -0.001096
796 -0.001133
797 -0.001055
798 -0.000944
799 -0.000767
800 -0.000645
801 -0.000639
802 -0.000678
803 -0.000751
804 -0.000894
805 -0.000960
806 -0.001030
807 -0.001004
808 -0.000849
809 -0.000781
