# i correlation
1 0.014405
2 0.011765
3 0.009742
4 0.007908
5 0.006251
6 0.005052
7 0.004191
8 0.003509
9 0.002721
10 0.002493
11 0.002510
12 0.002614
13 0.002685
14 0.002984
15 0.003441
16 0.003883
17 0.003929
18 0.003811
19 0.003721
20 0.003572
21 0.003377
22 0.003093
23 0.002922
24 0.002697
25 0.002423
26 0.001915
27 0.001479
28 0.001042
29 0.001064
30 0.001019
31 0.001057
32 0.001369
33 0.001734
34 0.001873
35 0.002183
36 0.002637
37 0.002914
38 0.003124
39 0.003157
40 0.003215
41 0.003247
42 0.002723
43 0.002239
44 0.001891
45 0.001606
46 0.001165
47 0.001108
48 0.001225
49 0.001249
50 0.001184
51 0.001385
52 0.001964
53 0.002483
54 0.002778
55 0.003223
56 0.003486
57 0.003579
58 0.003488
59 0.003346
60 0.003035
61 0.002729
62 0.002621
63 0.002622
64 0.002768
65 0.002679
66 0.002713
67 0.002374
68 0.002250
69 0.002254
70 0.002165
71 0.002188
72 0.002040
73 0.001740
74 0.001876
75 0.002154
76 0.002312
77 0.002456
78 0.002508
79 0.002556
80 0.002430
81 0.002048
82 0.001947
83 0.001612
84 0.001236
85 0.001149
86 0.001001
87 0.000739
88 0.000750
89 0.000754
90 0.001133
91 0.001247
92 0.001112
93 0.001084
94 0.001006
95 0.001008
96 0.001008
97 0.001141
98 0.001186
99 0.001019
100 0.001002
101 0.001194
102 0.001530
103 0.002179
104 0.002615
105 0.002985
106 0.003266
107 0.003179
108 0.002871
109 0.002615
110 0.002536
111 0.002463
112 0.002352
113 0.002388
114 0.002325
115 0.002073
116 0.001850
117 0.001455
118 0.001390
119 0.001501
120 0.001646
121 0.001655
122 0.001826
123 0.002147
124 0.002357
125 0.002357
126 0.002457
127 0.002669
128 0.002826
129 0.002685
130 0.002426
131 0.002351
132 0.002185
133 0.001811
134 0.001529
135 0.001397
136 0.001060
137 0.000558
138 0.000362
139 0.000090
140 0.000066
141 0.000136
142 0.000378
143 0.000847
144 0.001522
145 0.002054
146 0.002378
147 0.002923
148 0.002999
149 0.002721
150 0.002516
151 0.002555
152 0.002541
153 0.002590
154 0.002804
155 0.002800
156 0.002705
157 0.002563
158 0.002618
159 0.002700
160 0.002525
161 0.002637
162 0.002514
163 0.002496
164 0.002413
165 0.002547
166 0.002564
167 0.002723
168 0.002751
169 0.002781
170 0.002736
171 0.002782
172 0.002733
173 0.002598
174 0.002478
175 0.002276
176 0.002149
177 0.002102
178 0.001887
179 0.002077
180 0.002463
181 0.002740
182 0.002749
183 0.002944
184 0.003127
185 0.003107
186 0.002926
187 0.002974
188 0.002898
189 0.002585
190 0.002388
191 0.002384
192 0.002182
193 0.002022
194 0.002052
195 0.001937
196 0.002033
197 0.002057
198 0.002124
199 0.002198
200 0.002054
201 0.001958
202 0.001641
203 0.001351
204 0.001229
205 0.000983
206 0.001039
207 0.000967
208 0.000972
209 0.000988
210 0.001329
211 0.001729
212 0.001710
213 0.001741
214 0.001766
215 0.001672
216 0.001813
217 0.001596
218 0.001477
219 0.001370
220 0.001243
221 0.001220
222 0.001238
223 0.001262
224 0.001216
225 0.001366
226 0.001673
227 0.001977
228 0.002375
229 0.002654
230 0.002755
231 0.002557
232 0.002408
233 0.002421
234 0.002583
235 0.002772
236 0.002813
237 0.002750
238 0.002548
239 0.002206
240 0.001741
241 0.001274
242 0.000873
243 0.000460
244 0.000361
245 0.000491
246 0.000364
247 0.000396
248 0.000434
249 0.000472
250 0.000563
251 0.001127
252 0.001504
253 0.001575
254 0.001411
255 0.001302
256 0.001183
257 0.001134
258 0.001114
259 0.001481
260 0.001419
261 0.001098
262 0.000833
263 0.000781
264 0.000682
265 0.000433
266 -0.000073
267 -0.000397
268 -0.000693
269 -0.000799
270 -0.000695
271 -0.000585
272 -0.000456
273 -0.000438
274 -0.000550
275 -0.000604
276 -0.000367
277 -0.000008
278 0.000481
279 0.000642
280 0.000870
281 0.001005
282 0.001141
283 0.001054
284 0.000853
285 0.000750
286 0.000392
287 0.000022
288 -0.000116
289 -0.000099
290 0.000111
291 0.000367
292 0.000885
293 0.001377
294 0.001789
295 0.001881
296 0.001997
297 0.001989
298 0.001784
299 0.001529
300 0.001252
301 0.000960
302 0.000617
303 0.000593
304 0.000705
305 0.000650
306 0.000571
307 0.000601
308 0.000660
309 0.000630
310 0.000528
311 0.000439
312 0.000489
313 0.000404
314 0.000615
315 0.000917
316 0.001036
317 0.001257
318 0.001326
319 0.001371
320 0.001316
321 0.001133
322 0.000882
323 0.000710
324 0.000445
325 0.000262
326 0.000108
327 0.000074
328 -0.000079
329 -0.000041
330 0.000088
331 0.000345
332 0.000399
333 0.000528
334 0.000927
335 0.001390
336 0.001601
337 0.001715
338 0.001715
339 0.001667
340 0.001348
341 0.001367
342 0.001256
343 0.001051
344 0.000878
345 0.000468
346 0.000040
347 -0.000270
348 -0.000329
349 -0.000334
350 -0.000361
351 -0.000129
352 0.000284
353 0.000428
354 0.000685
355 0.000961
356 0.001044
357 0.000973
358 0.001010
359 0.000958
360 0.000962
361 0.000875
362 0.000767
363 0.000743
364 0.000662
365 0.000216
366 -0.000141
367 -0.000389
368 -0.000563
369 -0.000758
370 -0.000769
371 -0.000743
372 -0.000737
373 -0.000583
374 -0.000452
375 -0.000124
376 0.000006
377 -0.000070
378 -0.000010
379 0.000131
380 0.000253
381 0.000198
382 0.000270
383 0.000449
384 0.000367
385 0.000155
386 -0.000068
387 -0.000331
388 -0.000665
389 -0.000773
390 -0.000920
391 -0.000998
392 -0.000979
393 -0.000998
394 -0.000865
395 -0.000568
396 -0.000212
397 0.000186
398 0.000289
399 0.000513
400 0.000683
401 0.000655
402 0.000472
403 0.000152
404 -0.000137
405 -0.000065
406 -0.000069
407 0.000111
408 0.000241
409 0.000534
410 0.000820
411 0.000821
412 0.001069
413 0.001269
414 0.001158
415 0.000999
416 0.000845
417 0.000765
418 0.000709
419 0.000612
420 0.000596
421 0.000507
422 0.000283
423 -0.000032
424 -0.000245
425 -0.000377
426 -0.000332
427 -0.000301
428 -0.000331
429 -0.000357
430 -0.000388
431 -0.000322
432 -0.000154
433 -0.000308
434 -0.000373
435 -0.000344
436 -0.000310
437 -0.000313
438 -0.000343
439 -0.000086
440 -0.000047
441 -0.000079
442 -0.000037
443 -0.000254
444 -0.000549
445 -0.000868
446 -0.001140
447 -0.001349
448 -0.001485
449 -0.001336
450 -0.001110
451 -0.000970
452 -0.001063
453 -0.001206
454 -0.001310
455 -0.001214
456 -0.001385
457 -0.001288
458 -0.001202
459 -0.001385
460 -0.001571
461 -0.001503
462 -0.001531
463 -0.001424
464 -0.001211
465 -0.000917
466 -0.000806
467 -0.000751
468 -0.000832
469 -0.000927
470 -0.001134
471 -0.001038
472 -0.000975
473 -0.001059
474 -0.000907
475 -0.000622
476 -0.000623
477 -0.000628
478 -0.000711
479 -0.000494
480 -0.000564
481 -0.000694
482 -0.000687
483 -0.000585
484 -0.000452
485 -0.000490
486 -0.000432
487 -0.000149
488 0.000081
489 0.000231
490 0.000386
491 0.000601
492 0.000744
493 0.000718
494 0.000612
495 0.000516
496 0.000221
497 -0.000123
498 -0.000317
499 -0.000443
500 -0.000659
501 -0.001037
502 -0.001192
503 -0.001247
504 -0.001102
505 -0.000992
506 -0.000822
507 -0.000534
508 -0.000126
509 0.000072
510 0.000450
511 0.000700
512 0.000652
513 0.000443
514 0.000090
515 0.000060
516 -0.000021
517 -0.000208
518 -0.000364
519 -0.000506
520 -0.000708
521 -0.000909
522 -0.001090
523 -0.001271
524 -0.001086
525 -0.000937
526 -0.000902
527 -0.000675
528 -0.000484
529 -0.000251
530 -0.000119
531 -0.000023
532 0.000092
533 0.000168
534 0.000136
535 0.000163
536 -0.000035
537 -0.000274
538 -0.000509
539 -0.000733
540 -0.000812
541 -0.000730
542 -0.000573
543 -0.000196
544 -0.000025
545 0.000320
546 0.000321
547 0.000360
548 0.000395
549 0.000410
550 0.000227
551 0.000124
552 -0.000063
553 -0.000289
554 -0.000489
555 -0.000642
556 -0.000932
557 -0.001024
558 -0.001302
559 -0.001594
560 -0.001549
561 -0.001582
562 -0.001442
563 -0.001130
564 -0.000780
565 -0.000637
566 -0.000558
567 -0.000539
568 -0.000406
569 -0.000395
570 -0.000494
571 -0.000511
572 -0.000540
573 -0.000682
574 -0.000762
575 -0.000946
576 -0.001071
577 -0.001069
578 -0.001153
579 -0.001137
580 -0.001076
581 -0.000977
582 -0.001030
583 -0.001087
584 -0.001039
585 -0.001096
586 -0.000946
587 -0.000875
588 -0.000854
589 -0.000761
590 -0.000499
591 -0.000507
592 -0.000715
593 -0.000696
594 -0.000746
595 -0.000857
596 -0.000668
597 -0.000472
598 -0.000342
599 -0.000410
600 -0.000453
601 -0.000440
602 -0.000585
603 -0.000798
604 -0.000992
605 -0.001058
606 -0.001104
607 -0.001219
608 -0.001267
609 -0.001304
610 -0.001440
611 -0.001407
612 -0.001279
613 -0.001111
614 -0.001013
615 -0.000879
616 -0.000758
617 -0.000852
618 -0.000936
619 -0.000874
620 -0.000752
621 -0.000806
622 -0.000860
623 -0.000870
624 -0.001045
625 -0.001400
626 -0.001486
627 -0.001663
628 -0.001967
629 -0.002281
630 -0.002376
631 -0.002358
632 -0.002392
633 -0.002373
634 -0.002214
635 -0.001974
636 -0.001741
637 -0.001528
638 -0.001017
639 -0.000616
640 -0.000481
641 -0.000507
642 -0.000491
643 -0.000555
644 -0.000633
645 -0.000768
646 -0.000775
647 -0.000910
648 -0.000835
649 -0.000885
650 -0.000947
651 -0.000929
652 -0.000780
653 -0.000617
654 -0.000428
655 -0.000142
656 0.000128
657 0.000155
658 0.000266
659 0.000332
660 0.000329
661 0.000200
662 0.000033
663 -0.000107
664 -0.000387
665 -0.000681
666 -0.001013
667 -0.001194
668 -0.001254
669 -0.001352
670 -0.001472
671 -0.001271
672 -0.001118
673 -0.000986
674 -0.000791
675 -0.000528
676 -0.000188
677 -0.000001
678 0.000185
679 0.000424
680 0.000447
681 0.000183
682 -0.000246
683 -0.000579
684 -0.000860
685 -0.001099
686 -0.001281
687 -0.001378
688 -0.001540
689 -0.001650
690 -0.001407
691 -0.001016
692 -0.000624
693 -0.000309
694 -0.000050
695 0.000318
696 0.000518
697 0.000404
698 0.000262
699 0.000196
700 0.000158
701 0.000084
702 -0.000015
703 -0.000042
704 -0.000104
705 -0.000247
706 -0.000156
707 -0.000280
708 -0.000313
709 -0.000286
710 -0.000152
711 -0.000122
712 -0.000012
713 -0.000014
714 -0.000051
715 0.000016
716 0.000253
717 0.000303
718 0.000249
719 0.000356
720 0.000339
721 0.000274
722 0.000162
723 0.000047
724 0.000107
725 0.000130
726 0.000119
727 0.000161
728 0.000105
729 -0.000008
730 -0.000160
731 -0.000186
732 -0.000270
733 -0.000342
734 -0.000239
735 -0.000169
736 -0.000202
737 -0.000275
738 -0.000383
739 -0.000425
740 -0.000397
741 -0.000458
742 -0.000562
743 -0.000497
744 -0.000361
745 -0.000334
746 -0.000348
747 -0.000324
748 -0.000324
749 -0.000209
750 -0.000235
751 -0.000214
752 -0.000325
753 -0.000581
754 -0.000749
755 -0.000968
756 -0.001111
757 -0.001178
758 -0.001226
759 -0.001252
760 -0.001189
761 -0.001013
762 -0.000903
763 -0.000891
764 -0.000776
765 -0.000618
766 -0.000545
767 -0.000491
768 -0.000522
769 -0.000577
770 -0.000556
771 -0.000569
772 -0.000421
773 -0.000422
774 -0.000366
775 -0.000324
776 -0.000420
777 -0.000544
778 -0.000672
779 -0.000833
780 -0.000943
781 -0.000850
782 -0.000807
783 -0.000758
784 -0.000802
785 -0.000829
786 -0.000896
787 -0.000904
788 -0.000957
789 -0.000935
790 -0.000919
791 -0.000889
792 -0.000925
793 -0.000966
794 -0.001036
795 -0.001178
796 -0.001150
797 -0.001074
798 -0.000986
799 -0.000836
800 -0.000759
801 -0.000836
802 -0.000692
803 -0.000605
804 -0.000476
805 -0.000470
806 -0.000291
807 -0.000129
808 -0.000138
809 -0.000146
