# i correlation
1 0.022905
2 0.019880
3 0.017257
4 0.014955
5 0.012944
6 0.011402
7 0.009834
8 0.008222
9 0.006667
10 0.005404
11 0.004607
12 0.004173
13 0.003840
14 0.003647
15 0.003910
16 0.004238
17 0.004431
18 0.004565
19 0.004787
20 0.005112
21 0.005463
22 0.005952
23 0.006382
24 0.006623
25 0.006907
26 0.006761
27 0.006607
28 0.006514
29 0.006033
30 0.005530
31 0.005140
32 0.004610
33 0.003850
34 0.003266
35 0.002730
36 0.002161
37 0.001846
38 0.001927
39 0.001938
40 0.002396
41 0.002768
42 0.003021
43 0.003005
44 0.003277
45 0.003679
46 0.004137
47 0.004715
48 0.005357
49 0.005247
50 0.005040
51 0.004785
52 0.004811
53 0.004924
54 0.005327
55 0.005535
56 0.005754
57 0.005597
58 0.005688
59 0.005768
60 0.006084
61 0.006218
62 0.006103
63 0.006311
64 0.006193
65 0.005910
66 0.005899
67 0.005743
68 0.005493
69 0.005259
70 0.005090
71 0.004994
72 0.004705
73 0.004646
74 0.004527
75 0.004364
76 0.004130
77 0.003981
78 0.003810
79 0.003438
80 0.003110
81 0.002875
82 0.003103
83 0.003611
84 0.004167
85 0.004838
86 0.005324
87 0.005538
88 0.005969
89 0.006230
90 0.006168
91 0.006133
92 0.006002
93 0.005733
94 0.005528
95 0.005531
96 0.005757
97 0.005734
98 0.005769
99 0.005588
100 0.005579
101 0.005627
102 0.005735
103 0.005577
104 0.005230
105 0.004841
106 0.004539
107 0.004440
108 0.004600
109 0.004270
110 0.003660
111 0.003092
112 0.002849
113 0.002838
114 0.003038
115 0.003425
116 0.003701
117 0.003921
118 0.004034
119 0.004330
120 0.004341
121 0.004116
122 0.003726
123 0.003654
124 0.003566
125 0.003177
126 0.002839
127 0.002546
128 0.002153
129 0.001851
130 0.001653
131 0.001721
132 0.002040
133 0.002156
134 0.002247
135 0.002463
136 0.002207
137 0.001782
138 0.001450
139 0.001146
140 0.001098
141 0.001004
142 0.000774
143 0.000755
144 0.001005
145 0.000937
146 0.000953
147 0.001143
148 0.001671
149 0.002294
150 0.002654
151 0.002863
152 0.003075
153 0.002879
154 0.002647
155 0.002899
156 0.003092
157 0.003211
158 0.003270
159 0.003193
160 0.003016
161 0.002921
162 0.002547
163 0.002526
164 0.002554
165 0.002599
166 0.002571
167 0.002567
168 0.002294
169 0.002016
170 0.001637
171 0.001274
172 0.001154
173 0.001079
174 0.001126
175 0.001292
176 0.001406
177 0.001484
178 0.001291
179 0.000925
180 0.000957
181 0.000943
182 0.001015
183 0.001147
184 0.001164
185 0.001010
186 0.000918
187 0.000888
188 0.000608
189 0.000368
190 0.000137
191 0.000128
192 0.000304
193 0.000690
194 0.000819
195 0.000969
196 0.001147
197 0.001183
198 0.001287
199 0.001321
200 0.001530
201 0.001612
202 0.001623
203 0.001580
204 0.001758
205 0.001778
206 0.001604
207 0.001311
208 0.001283
209 0.001193
210 0.000825
211 0.000580
212 0.000545
213 0.000273
214 0.000044
215 0.000151
216 0.000020
217 0.000103
218 0.000317
219 0.000451
220 0.000902
221 0.001489
222 0.001804
223 0.002366
224 0.002934
225 0.003442
226 0.003811
227 0.004047
228 0.003983
229 0.003834
230 0.003639
231 0.003564
232 0.003483
233 0.003363
234 0.003015
235 0.002556
236 0.002220
237 0.001707
238 0.001156
239 0.000738
240 0.000766
241 0.000642
242 0.000589
243 0.000774
244 0.000631
245 0.000253
246 0.000109
247 0.000060
248 0.000182
249 0.000467
250 0.000657
251 0.000778
252 0.001183
253 0.001590
254 0.001924
255 0.002189
256 0.002428
257 0.002585
258 0.002457
259 0.002158
260 0.001872
261 0.001283
262 0.000496
263 0.000205
264 -0.000162
265 -0.000247
266 -0.000344
267 -0.000334
268 -0.000189
269 -0.000182
270 -0.000237
271 0.000164
272 0.000601
273 0.000894
274 0.001121
275 0.001127
276 0.001107
277 0.000950
278 0.000996
279 0.001230
280 0.001507
281 0.001788
282 0.001873
283 0.002057
284 0.002515
285 0.002633
286 0.002648
287 0.002421
288 0.002166
289 0.001715
290 0.001536
291 0.001404
292 0.001290
293 0.000989
294 0.000509
295 0.000096
296 -0.000152
297 -0.000290
298 -0.000517
299 -0.000504
300 -0.000324
301 0.000167
302 0.000400
303 0.000724
304 0.000957
305 0.000937
306 0.000884
307 0.000834
308 0.000784
309 0.000859
310 0.000734
311 0.000610
312 0.000320
313 0.000090
314 -0.000359
315 -0.000589
316 -0.000407
317 -0.000242
318 -0.000109
319 0.000023
320 0.000032
321 0.000289
322 0.000423
323 0.000554
324 0.000707
325 0.000851
326 0.001217
327 0.001758
328 0.002189
329 0.002618
330 0.002763
331 0.002898
332 0.003051
333 0.003162
334 0.002972
335 0.002652
336 0.001997
337 0.001356
338 0.000871
339 0.000700
340 0.000568
341 0.000445
342 0.000632
343 0.000724
344 0.000979
345 0.001152
346 0.001313
347 0.001263
348 0.001175
349 0.001282
350 0.001539
351 0.001764
352 0.001794
353 0.001577
354 0.001164
355 0.000912
356 0.000902
357 0.000949
358 0.000908
359 0.000872
360 0.000669
361 0.000640
362 0.000451
363 0.000113
364 -0.000309
365 -0.000637
366 -0.001141
367 -0.001647
368 -0.001930
369 -0.001984
370 -0.001853
371 -0.001742
372 -0.001654
373 -0.001307
374 -0.001029
375 -0.000759
376 -0.000389
377 0.000100
378 0.000425
379 0.000711
380 0.000943
381 0.001297
382 0.001587
383 0.001583
384 0.001627
385 0.001361
386 0.001154
387 0.001216
388 0.001216
389 0.001275
390 0.001297
391 0.001192
392 0.001198
393 0.001205
394 0.001061
395 0.000794
396 0.000261
397 -0.000254
398 -0.000377
399 -0.000532
400 -0.000283
401 0.000087
402 0.000369
403 0.000594
404 0.001106
405 0.001586
406 0.001959
407 0.002448
408 0.002787
409 0.003059
410 0.003024
411 0.002851
412 0.002581
413 0.002186
414 0.001529
415 0.001070
416 0.000835
417 0.000612
418 0.000507
419 0.000335
420 0.000240
421 0.000114
422 -0.000161
423 -0.000212
424 0.000025
425 0.000360
426 0.000560
427 0.000801
428 0.000915
429 0.001231
430 0.001288
431 0.001264
432 0.001523
433 0.001723
434 0.001754
435 0.002116
436 0.002402
437 0.002333
438 0.002039
439 0.001575
440 0.001341
441 0.001224
442 0.001380
443 0.001500
444 0.001732
445 0.001814
446 0.001591
447 0.001364
448 0.001365
449 0.001313
450 0.001273
451 0.001256
452 0.001067
453 0.001002
454 0.000820
455 0.000449
456 0.000255
457 0.000177
458 0.000281
459 0.000154
460 0.000168
461 0.000366
462 0.000228
463 -0.000007
464 -0.000214
465 -0.000330
466 -0.000332
467 -0.000039
468 0.000328
469 0.000400
470 0.000400
471 0.000458
472 0.000506
473 0.000716
474 0.000886
475 0.000997
476 0.001130
477 0.001094
478 0.001045
479 0.001039
480 0.001126
481 0.000966
482 0.000653
483 0.000407
484 0.000225
485 0.000040
486 -0.000166
487 -0.000724
488 -0.001042
489 -0.001057
490 -0.000837
491 -0.000599
492 -0.000196
493 0.000054
494 0.000226
495 0.000309
496 0.000724
497 0.000940
498 0.001302
499 0.001504
500 0.001604
501 0.001661
502 0.001540
503 0.001178
504 0.000724
505 0.000618
506 0.000694
507 0.000820
508 0.000948
509 0.001148
510 0.001258
511 0.001231
512 0.001255
513 0.001423
514 0.001587
515 0.001629
516 0.001585
517 0.001631
518 0.001532
519 0.001337
520 0.001251
521 0.001510
522 0.001767
523 0.001807
524 0.002116
525 0.002254
526 0.002369
527 0.002272
528 0.002306
529 0.002295
530 0.002180
531 0.002043
532 0.001830
533 0.001708
534 0.001569
535 0.001387
536 0.001440
537 0.001554
538 0.001750
539 0.001929
540 0.001927
541 0.001600
542 0.001431
543 0.001315
544 0.001399
545 0.001295
546 0.001204
547 0.000948
548 0.000499
549 0.000161
550 -0.000010
551 -0.000108
552 -0.000123
553 -0.000163
554 -0.000212
555 -0.000343
556 -0.000196
557 -0.000114
558 0.000004
559 0.000340
560 0.000587
561 0.000749
562 0.000914
563 0.001122
564 0.001408
565 0.001673
566 0.001819
567 0.001869
568 0.001814
569 0.001737
570 0.001632
571 0.001366
572 0.000891
573 0.000353
574 -0.000058
575 -0.000304
576 -0.000162
577 0.000013
578 0.000067
579 0.000030
580 0.000004
581 -0.000038
582 -0.000058
583 0.000033
584 0.000245
585 0.000700
586 0.000942
587 0.001118
588 0.001273
589 0.001084
590 0.000890
591 0.000740
592 0.000807
593 0.000843
594 0.000779
595 0.000577
596 0.000323
597 0.000027
598 -0.000177
599 -0.000222
600 0.000008
601 0.000103
602 0.000224
603 0.000418
604 0.000506
605 0.000646
606 0.000725
607 0.000870
608 0.000967
609 0.001199
610 0.001482
611 0.001716
612 0.001861
613 0.002048
614 0.002116
615 0.001929
616 0.001781
617 0.001716
618 0.001611
619 0.001373
620 0.001316
621 0.001173
622 0.001040
623 0.000784
624 0.000790
625 0.000857
626 0.000990
627 0.001154
628 0.001260
629 0.001510
630 0.001771
631 0.001936
632 0.002018
633 0.002340
634 0.002698
635 0.002778
636 0.002721
637 0.002651
638 0.002504
639 0.002182
640 0.001847
641 0.001569
642 0.001340
643 0.001006
644 0.000790
645 0.000606
646 0.000244
647 0.000026
648 0.000008
649 0.000081
650 0.000082
651 0.000150
652 0.000305
653 0.000401
654 0.000535
655 0.000661
656 0.000831
657 0.000914
658 0.001141
659 0.001376
660 0.001548
661 0.001803
662 0.001993
663 0.002020
664 0.001915
665 0.001940
666 0.001959
667 0.001905
668 0.001892
669 0.001888
670 0.001821
671 0.001635
672 0.001629
673 0.001614
674 0.001730
675 0.001777
676 0.001853
677 0.001882
678 0.001988
679 0.002184
680 0.002244
681 0.002258
682 0.002335
683 0.002414
684 0.002572
685 0.002709
686 0.002638
687 0.002414
688 0.002211
689 0.002170
690 0.002096
691 0.002114
692 0.002109
693 0.002031
694 0.002017
695 0.002003
696 0.001939
697 0.001841
698 0.001747
699 0.001615
700 0.001576
701 0.001628
702 0.001517
703 0.001475
704 0.001457
705 0.001365
706 0.001273
707 0.001176
708 0.001043
709 0.000834
710 0.000688
711 0.000687
712 0.000716
713 0.000749
714 0.000644
715 0.000593
716 0.000703
717 0.000946
718 0.001102
719 0.001277
720 0.001473
721 0.001566
722 0.001706
723 0.001721
724 0.001794
725 0.001895
726 0.002115
727 0.002113
728 0.002090
729 0.002011
730 0.001805
731 0.001641
732 0.001494
733 0.001428
734 0.001328
735 0.001303
736 0.001334
737 0.001274
738 0.001199
739 0.001099
740 0.001088
741 0.001021
742 0.000900
743 0.000796
744 0.000773
745 0.000862
746 0.001036
747 0.001140
748 0.001165
749 0.001161
750 0.001222
751 0.001283
752 0.001425
753 0.001684
754 0.001869
755 0.001913
756 0.001808
757 0.001661
758 0.001601
759 0.001568
760 0.001574
761 0.001562
762 0.001588
763 0.001486
764 0.001514
765 0.001588
766 0.001724
767 0.001827
768 0.001973
769 0.002056
770 0.002109
771 0.002107
772 0.002148
773 0.002132
774 0.002179
775 0.002135
776 0.001987
777 0.001844
778 0.001804
779 0.001782
780 0.001868
781 0.001884
782 0.001919
783 0.001873
784 0.001805
785 0.001780
786 0.001816
787 0.001972
788 0.002067
789 0.002149
790 0.002130
791 0.001987
792 0.001883
793 0.001849
794 0.001839
795 0.001762
796 0.001612
797 0.001445
798 0.001205
799 0.000907
800 0.000761
801 0.000616
802 0.000508
803 0.000435
804 0.000371
805 0.000282
806 0.000184
807 0.000129
808 0.000082
809 0.000078
