# i correlation
1 0.016074
2 0.013311
3 0.011281
4 0.009280
5 0.007710
6 0.006592
7 0.005848
8 0.005238
9 0.004532
10 0.003743
11 0.003166
12 0.002850
13 0.002609
14 0.002241
15 0.001894
16 0.001738
17 0.001809
18 0.002206
19 0.002598
20 0.002896
21 0.003089
22 0.003019
23 0.002857
24 0.002473
25 0.002043
26 0.001500
27 0.001198
28 0.000979
29 0.000797
30 0.000717
31 0.000907
32 0.000973
33 0.000921
34 0.000833
35 0.000487
36 0.000477
37 0.000707
38 0.000912
39 0.001296
40 0.001672
41 0.001906
42 0.002093
43 0.002450
44 0.002737
45 0.002696
46 0.002505
47 0.002185
48 0.001607
49 0.001362
50 0.001392
51 0.001558
52 0.001841
53 0.001712
54 0.001681
55 0.001680
56 0.001663
57 0.001826
58 0.002171
59 0.002337
60 0.002290
61 0.002406
62 0.002277
63 0.002015
64 0.001889
65 0.001890
66 0.001954
67 0.001681
68 0.001711
69 0.001819
70 0.001810
71 0.002080
72 0.002263
73 0.002469
74 0.002478
75 0.002479
76 0.002235
77 0.002109
78 0.002073
79 0.001807
80 0.001334
81 0.000932
82 0.000586
83 0.000445
84 0.000346
85 0.000119
86 -0.000222
87 -0.000511
88 -0.000794
89 -0.000861
90 -0.000725
91 -0.000522
92 -0.000313
93 -0.000095
94 -0.000023
95 0.000376
96 0.000768
97 0.001066
98 0.001065
99 0.000892
100 0.000594
101 0.000593
102 0.000545
103 0.000319
104 0.000244
105 0.000212
106 0.000142
107 -0.000018
108 -0.000122
109 -0.000016
110 0.000299
111 0.000578
112 0.000577
113 0.000628
114 0.000655
115 0.000798
116 0.001242
117 0.001594
118 0.001942
119 0.002481
120 0.002910
121 0.003032
122 0.002778
123 0.002521
124 0.002577
125 0.002349
126 0.002213
127 0.002034
128 0.001925
129 0.001837
130 0.001648
131 0.001328
132 0.001257
133 0.001204
134 0.001296
135 0.001392
136 0.001453
137 0.001656
138 0.001604
139 0.001644
140 0.001503
141 0.001430
142 0.001322
143 0.001006
144 0.000535
145 0.000177
146 -0.000278
147 -0.000627
148 -0.000716
149 -0.000879
150 -0.000864
151 -0.000653
152 -0.000524
153 -0.000414
154 -0.000028
155 0.000243
156 0.000421
157 0.000650
158 0.000986
159 0.001364
160 0.001373
161 0.001283
162 0.001409
163 0.001342
164 0.001215
165 0.001187
166 0.001117
167 0.001251
168 0.001346
169 0.001229
170 0.001224
171 0.001124
172 0.001202
173 0.001219
174 0.001019
175 0.000980
176 0.000914
177 0.000626
178 0.000554
179 0.001013
180 0.001395
181 0.001697
182 0.001969
183 0.001958
184 0.002016
185 0.002089
186 0.001989
187 0.001853
188 0.001896
189 0.001861
190 0.001593
191 0.001342
192 0.001166
193 0.001044
194 0.001013
195 0.000950
196 0.000651
197 0.000073
198 -0.000467
199 -0.000897
200 -0.001034
201 -0.001025
202 -0.001127
203 -0.000943
204 -0.000815
205 -0.000699
206 -0.000506
207 -0.000573
208 -0.000892
209 -0.000884
210 -0.000912
211 -0.000740
212 -0.000435
213 0.000030
214 0.000233
215 0.000102
216 0.000062
217 -0.000169
218 -0.000656
219 -0.000818
220 -0.001021
221 -0.001139
222 -0.001320
223 -0.001451
224 -0.001374
225 -0.001178
226 -0.001298
227 -0.001199
228 -0.001106
229 -0.000998
230 -0.000751
231 -0.000569
232 -0.000306
233 0.000109
234 0.000475
235 0.000517
236 0.000496
237 0.000484
238 0.000647
239 0.000573
240 0.000510
241 0.000187
242 -0.000201
243 -0.000367
244 -0.000305
245 -0.000226
246 0.000044
247 0.000436
248 0.000389
249 -0.000021
250 -0.000153
251 -0.000298
252 -0.000334
253 -0.000167
254 0.000032
255 -0.000059
256 -0.000079
257 -0.000053
258 0.000146
259 0.000124
260 0.000086
261 0.000197
262 -0.000074
263 -0.000424
264 -0.000745
265 -0.000762
266 -0.000827
267 -0.000918
268 -0.001000
269 -0.001199
270 -0.001322
271 -0.001312
272 -0.001270
273 -0.001151
274 -0.001021
275 -0.000928
276 -0.000997
277 -0.000860
278 -0.000569
279 -0.000156
280 0.000181
281 0.000257
282 0.000303
283 0.000268
284 0.000203
285 0.000185
286 0.000391
287 0.000460
288 0.000279
289 0.000289
290 0.000287
291 0.000221
292 -0.000022
293 -0.000167
294 -0.000208
295 -0.000566
296 -0.000730
297 -0.000947
298 -0.000908
299 -0.000761
300 -0.000584
301 -0.000433
302 -0.000312
303 -0.000082
304 -0.000012
305 0.000259
306 0.000557
307 0.000722
308 0.000774
309 0.000759
310 0.000740
311 0.000799
312 0.000830
313 0.000690
314 0.000464
315 0.000130
316 -0.000247
317 -0.000752
318 -0.000992
319 -0.001075
320 -0.001155
321 -0.001146
322 -0.001033
323 -0.001034
324 -0.001104
325 -0.001154
326 -0.001100
327 -0.001064
328 -0.001067
329 -0.000576
330 -0.000132
331 0.000226
332 0.000553
333 0.000583
334 0.000556
335 0.000540
336 0.000160
337 -0.000001
338 -0.000007
339 0.000046
340 0.000148
341 0.000366
342 0.000585
343 0.001000
344 0.001213
345 0.001286
346 0.001303
347 0.001074
348 0.000927
349 0.000938
350 0.000959
351 0.000965
352 0.001062
353 0.001036
354 0.001215
355 0.001279
356 0.001102
357 0.000998
358 0.001059
359 0.000929
360 0.000995
361 0.000934
362 0.001077
363 0.001188
364 0.001335
365 0.001391
366 0.001411
367 0.001432
368 0.001483
369 0.001537
370 0.001402
371 0.001441
372 0.001520
373 0.001478
374 0.001593
375 0.001792
376 0.001910
377 0.001977
378 0.001981
379 0.001917
380 0.001613
381 0.001566
382 0.001531
383 0.001402
384 0.001298
385 0.001141
386 0.001104
387 0.001002
388 0.000624
389 0.000403
390 0.000192
391 -0.000018
392 -0.000167
393 -0.000271
394 -0.000600
395 -0.000773
396 -0.000960
397 -0.001249
398 -0.001378
399 -0.001280
400 -0.000981
401 -0.000635
402 -0.000357
403 -0.000102
404 0.000195
405 0.000556
406 0.000968
407 0.001185
408 0.001351
409 0.001476
410 0.001495
411 0.001313
412 0.001300
413 0.001309
414 0.001198
415 0.001008
416 0.000932
417 0.001067
418 0.001197
419 0.001453
420 0.001779
421 0.001968
422 0.002284
423 0.002555
424 0.002826
425 0.002950
426 0.003090
427 0.003218
428 0.003193
429 0.003151
430 0.003164
431 0.002970
432 0.002575
433 0.002375
434 0.002002
435 0.001644
436 0.001367
437 0.001100
438 0.000898
439 0.000768
440 0.000900
441 0.001037
442 0.001156
443 0.001225
444 0.001232
445 0.001372
446 0.001267
447 0.001296
448 0.001392
449 0.001286
450 0.001175
451 0.001159
452 0.000977
453 0.000844
454 0.000665
455 0.000419
456 0.000105
457 -0.000312
458 -0.000519
459 -0.000446
460 -0.000379
461 -0.000008
462 0.000251
463 0.000469
464 0.000741
465 0.000823
466 0.001180
467 0.001506
468 0.001665
469 0.001648
470 0.001549
471 0.001339
472 0.000980
473 0.000808
474 0.001061
475 0.001136
476 0.000917
477 0.000727
478 0.000691
479 0.000589
480 0.000459
481 0.000290
482 0.000320
483 0.000443
484 0.000597
485 0.000811
486 0.001121
487 0.001382
488 0.001615
489 0.001624
490 0.001660
491 0.001657
492 0.001788
493 0.001725
494 0.001875
495 0.002163
496 0.002307
497 0.002603
498 0.002797
499 0.002796
500 0.002816
501 0.002863
502 0.002756
503 0.002749
504 0.002675
505 0.002561
506 0.002501
507 0.002307
508 0.002188
509 0.001851
510 0.001564
511 0.001421
512 0.001259
513 0.001220
514 0.001222
515 0.000983
516 0.000745
517 0.000504
518 0.000379
519 0.000662
520 0.000932
521 0.000878
522 0.000850
523 0.000687
524 0.000578
525 0.000620
526 0.000753
527 0.000863
528 0.001033
529 0.000975
530 0.000755
531 0.000471
532 0.000166
533 0.000071
534 0.000216
535 0.000458
536 0.000707
537 0.000853
538 0.000875
539 0.000920
540 0.000938
541 0.001041
542 0.001012
543 0.001080
544 0.001332
545 0.001656
546 0.001947
547 0.002111
548 0.002101
549 0.001969
550 0.001823
551 0.001854
552 0.001578
553 0.001295
554 0.001088
555 0.000695
556 0.000531
557 0.000364
558 0.000279
559 0.000480
560 0.000581
561 0.000462
562 0.000152
563 0.000046
564 0.000026
565 0.000024
566 -0.000042
567 -0.000054
568 0.000026
569 0.000021
570 -0.000188
571 -0.000243
572 -0.000251
573 -0.000273
574 -0.000471
575 -0.000518
576 -0.000587
577 -0.000762
578 -0.000939
579 -0.000985
580 -0.000940
581 -0.000900
582 -0.000849
583 -0.000891
584 -0.001038
585 -0.000867
586 -0.000862
587 -0.000634
588 -0.000324
589 -0.000208
590 -0.000044
591 0.000045
592 -0.000018
593 0.000081
594 0.000196
595 0.000228
596 0.000187
597 0.000317
598 0.000476
599 0.000512
600 0.000531
601 0.000476
602 0.000474
603 0.000684
604 0.000645
605 0.000628
606 0.000590
607 0.000570
608 0.000596
609 0.000643
610 0.000729
611 0.000594
612 0.000664
613 0.000464
614 0.000276
615 0.000364
616 0.000512
617 0.000668
618 0.000816
619 0.000943
620 0.001053
621 0.001252
622 0.001459
623 0.001660
624 0.001696
625 0.001939
626 0.001946
627 0.001569
628 0.001196
629 0.000977
630 0.000825
631 0.000549
632 0.000365
633 0.000254
634 0.000097
635 -0.000222
636 -0.000520
637 -0.000518
638 -0.000530
639 -0.000563
640 -0.000551
641 -0.000546
642 -0.000528
643 -0.000540
644 -0.000424
645 -0.000312
646 -0.000152
647 0.000068
648 0.000291
649 0.000553
650 0.000580
651 0.000439
652 0.000346
653 0.000384
654 0.000554
655 0.000727
656 0.000869
657 0.001064
658 0.001065
659 0.000934
660 0.000821
661 0.000790
662 0.000864
663 0.000745
664 0.000653
665 0.000558
666 0.000552
667 0.000506
668 0.000446
669 0.000278
670 0.000214
671 0.000150
672 0.000117
673 0.000116
674 -0.000042
675 -0.000207
676 -0.000288
677 -0.000438
678 -0.000431
679 -0.000459
680 -0.000163
681 0.000161
682 0.000203
683 0.000369
684 0.000470
685 0.000459
686 0.000417
687 0.000381
688 0.000256
689 0.000111
690 -0.000065
691 -0.000189
692 -0.000351
693 -0.000476
694 -0.000578
695 -0.000532
696 -0.000503
697 -0.000707
698 -0.000825
699 -0.000669
700 -0.000660
701 -0.000561
702 -0.000622
703 -0.000768
704 -0.000784
705 -0.000939
706 -0.001034
707 -0.000959
708 -0.000778
709 -0.000513
710 -0.000321
711 -0.000287
712 -0.000396
713 -0.000447
714 -0.000324
715 -0.000279
716 -0.000319
717 -0.000291
718 -0.000264
719 -0.000152
720 -0.000026
721 -0.000077
722 -0.000025
723 0.000091
724 0.000162
725 0.000303
726 0.000286
727 0.000382
728 0.000407
729 0.000396
730 0.000307
731 0.000286
732 0.000345
733 0.000261
734 0.000073
735 0.000019
736 -0.000125
737 -0.000442
738 -0.000735
739 -0.000837
740 -0.000874
741 -0.000803
742 -0.000799
743 -0.000976
744 -0.001047
745 -0.001137
746 -0.001372
747 -0.001524
748 -0.001621
749 -0.001631
750 -0.001566
751 -0.001551
752 -0.001529
753 -0.001385
754 -0.001199
755 -0.001095
756 -0.001064
757 -0.001104
758 -0.001092
759 -0.000973
760 -0.000781
761 -0.000762
762 -0.000616
763 -0.000596
764 -0.000576
765 -0.000544
766 -0.000488
767 -0.000462
768 -0.000426
769 -0.000375
770 -0.000342
771 -0.000432
772 -0.000634
773 -0.000733
774 -0.000641
775 -0.000588
776 -0.000568
777 -0.000385
778 -0.000263
779 -0.000151
780 -0.000114
781 0.000013
782 0.000247
783 0.000493
784 0.000619
785 0.000786
786 0.000924
787 0.000939
788 0.000980
789 0.000928
790 0.000848
791 0.000804
792 0.000748
793 0.000711
794 0.000754
795 0.000596
796 0.000416
797 0.000384
798 0.000373
799 0.000267
800 0.000280
801 0.000270
802 0.000162
803 0.000083
804 0.000031
805 0.000030
806 0.000130
807 0.000238
808 0.000156
809 0.000122
