# i correlation
1 0.019843
2 0.017208
3 0.015246
4 0.013585
5 0.012097
6 0.011090
7 0.010233
8 0.009452
9 0.009050
10 0.008698
11 0.008316
12 0.007548
13 0.006979
14 0.006414
15 0.006039
16 0.006017
17 0.006177
18 0.005963
19 0.005826
20 0.005626
21 0.005716
22 0.005384
23 0.005029
24 0.004650
25 0.004357
26 0.004734
27 0.005000
28 0.005113
29 0.004817
30 0.004574
31 0.004576
32 0.004586
33 0.004462
34 0.004028
35 0.003792
36 0.003669
37 0.003686
38 0.003931
39 0.003908
40 0.004020
41 0.003881
42 0.003746
43 0.003837
44 0.003778
45 0.003965
46 0.004071
47 0.003969
48 0.004329
49 0.004467
50 0.004482
51 0.004345
52 0.004245
53 0.004049
54 0.003970
55 0.003817
56 0.003683
57 0.003557
58 0.003423
59 0.003744
60 0.003754
61 0.003793
62 0.003883
63 0.003883
64 0.004004
65 0.003892
66 0.003933
67 0.004202
68 0.004247
69 0.004176
70 0.004012
71 0.003932
72 0.003787
73 0.003444
74 0.003282
75 0.003311
76 0.003416
77 0.003252
78 0.003438
79 0.003796
80 0.003991
81 0.004078
82 0.003889
83 0.003495
84 0.003122
85 0.003128
86 0.003091
87 0.002994
88 0.002958
89 0.002922
90 0.002606
91 0.002415
92 0.002222
93 0.002265
94 0.002130
95 0.002069
96 0.002031
97 0.002202
98 0.002333
99 0.002616
100 0.002851
101 0.002568
102 0.002506
103 0.002355
104 0.002152
105 0.002255
106 0.002286
107 0.002491
108 0.003040
109 0.003706
110 0.004270
111 0.004736
112 0.005090
113 0.005026
114 0.005301
115 0.005718
116 0.005836
117 0.005442
118 0.005189
119 0.005113
120 0.004739
121 0.004526
122 0.004492
123 0.004121
124 0.003715
125 0.003638
126 0.003644
127 0.003632
128 0.003525
129 0.003488
130 0.003290
131 0.003544
132 0.003547
133 0.003537
134 0.003260
135 0.003207
136 0.003300
137 0.003497
138 0.003973
139 0.004522
140 0.004945
141 0.005082
142 0.005286
143 0.005413
144 0.005222
145 0.005129
146 0.005117
147 0.005155
148 0.005581
149 0.005789
150 0.005972
151 0.005649
152 0.005461
153 0.005407
154 0.005501
155 0.005596
156 0.005804
157 0.006179
158 0.006497
159 0.006745
160 0.006863
161 0.006884
162 0.006727
163 0.006419
164 0.006294
165 0.006169
166 0.006088
167 0.006158
168 0.006198
169 0.006205
170 0.006064
171 0.005986
172 0.006095
173 0.006205
174 0.006468
175 0.006651
176 0.006606
177 0.006439
178 0.006392
179 0.005974
180 0.005593
181 0.005516
182 0.005210
183 0.005158
184 0.005006
185 0.005057
186 0.005434
187 0.005414
188 0.005497
189 0.005586
190 0.005825
191 0.005879
192 0.005642
193 0.005514
194 0.005439
195 0.005399
196 0.005458
197 0.005371
198 0.005125
199 0.005003
200 0.005083
201 0.005007
202 0.004867
203 0.004702
204 0.004565
205 0.004268
206 0.003956
207 0.004105
208 0.004043
209 0.004082
210 0.003976
211 0.003694
212 0.003406
213 0.003042
214 0.002701
215 0.002143
216 0.001867
217 0.001792
218 0.002254
219 0.002479
220 0.002508
221 0.002587
222 0.002660
223 0.002644
224 0.002806
225 0.002769
226 0.002849
227 0.003088
228 0.003224
229 0.003458
230 0.003576
231 0.003609
232 0.003463
233 0.003076
234 0.002798
235 0.002546
236 0.002452
237 0.002445
238 0.002698
239 0.002793
240 0.002683
241 0.002604
242 0.002687
243 0.002478
244 0.002300
245 0.002299
246 0.002165
247 0.002014
248 0.001993
249 0.002326
250 0.002828
251 0.002973
252 0.002958
253 0.002955
254 0.003272
255 0.003746
256 0.003660
257 0.003692
258 0.004011
259 0.004167
260 0.004003
261 0.003845
262 0.003390
263 0.002892
264 0.002793
265 0.002578
266 0.002129
267 0.001665
268 0.001675
269 0.001623
270 0.001783
271 0.002038
272 0.002313
273 0.002242
274 0.001968
275 0.001949
276 0.001817
277 0.001788
278 0.001881
279 0.001890
280 0.001911
281 0.002248
282 0.002559
283 0.002776
284 0.002796
285 0.002867
286 0.002993
287 0.002689
288 0.002453
289 0.002459
290 0.002217
291 0.001843
292 0.001732
293 0.001624
294 0.001569
295 0.001317
296 0.001370
297 0.001345
298 0.001493
299 0.001695
300 0.002170
301 0.002390
302 0.002392
303 0.002662
304 0.002859
305 0.003192
306 0.003641
307 0.004015
308 0.003985
309 0.003911
310 0.003894
311 0.003817
312 0.003836
313 0.003919
314 0.003982
315 0.003870
316 0.003964
317 0.004248
318 0.004458
319 0.004496
320 0.004381
321 0.004225
322 0.004055
323 0.004097
324 0.004273
325 0.004240
326 0.004228
327 0.004306
328 0.004341
329 0.004258
330 0.004007
331 0.003814
332 0.003797
333 0.003863
334 0.004146
335 0.004356
336 0.004496
337 0.004494
338 0.004382
339 0.004236
340 0.004065
341 0.003828
342 0.003661
343 0.003571
344 0.003659
345 0.003924
346 0.003807
347 0.003657
348 0.003367
349 0.003285
350 0.003466
351 0.003430
352 0.003423
353 0.003377
354 0.003276
355 0.003096
356 0.003043
357 0.003053
358 0.002886
359 0.002722
360 0.002782
361 0.003131
362 0.003129
363 0.003149
364 0.003464
365 0.003677
366 0.003754
367 0.003814
368 0.003692
369 0.003804
370 0.004212
371 0.004565
372 0.004906
373 0.005038
374 0.004924
375 0.004651
376 0.004518
377 0.004362
378 0.004238
379 0.003757
380 0.003721
381 0.003576
382 0.003582
383 0.003516
384 0.003465
385 0.003548
386 0.003589
387 0.003600
388 0.003350
389 0.003001
390 0.002578
391 0.002114
392 0.001772
393 0.001884
394 0.001821
395 0.001854
396 0.001875
397 0.002069
398 0.002243
399 0.002490
400 0.002483
401 0.002349
402 0.002097
403 0.001972
404 0.002220
405 0.002179
406 0.001922
407 0.001644
408 0.001666
409 0.001641
410 0.001497
411 0.001401
412 0.001600
413 0.001896
414 0.001983
415 0.002293
416 0.002564
417 0.002698
418 0.002642
419 0.002539
420 0.002437
421 0.002205
422 0.002146
423 0.002149
424 0.001921
425 0.002109
426 0.002143
427 0.002044
428 0.001852
429 0.001805
430 0.001464
431 0.001205
432 0.001419
433 0.001520
434 0.001370
435 0.001237
436 0.001461
437 0.001383
438 0.001323
439 0.001308
440 0.001199
441 0.000991
442 0.000721
443 0.000460
444 0.000494
445 0.000579
446 0.000706
447 0.000630
448 0.000528
449 0.000627
450 0.000737
451 0.000743
452 0.001001
453 0.001288
454 0.001518
455 0.001648
456 0.001782
457 0.001873
458 0.002063
459 0.002069
460 0.002003
461 0.002003
462 0.001896
463 0.001796
464 0.001722
465 0.001738
466 0.001519
467 0.001297
468 0.001110
469 0.000995
470 0.000852
471 0.000797
472 0.001036
473 0.001205
474 0.001279
475 0.001649
476 0.001872
477 0.001966
478 0.002131
479 0.002363
480 0.002566
481 0.002748
482 0.003173
483 0.003387
484 0.003547
485 0.003572
486 0.003846
487 0.003718
488 0.003581
489 0.003605
490 0.003487
491 0.003196
492 0.003267
493 0.003521
494 0.003566
495 0.003538
496 0.003441
497 0.003311
498 0.003110
499 0.002869
500 0.002751
501 0.002757
502 0.002637
503 0.002761
504 0.003124
505 0.003198
506 0.003042
507 0.002967
508 0.002996
509 0.002950
510 0.002953
511 0.002907
512 0.002751
513 0.002759
514 0.002806
515 0.002933
516 0.002767
517 0.002486
518 0.002208
519 0.002129
520 0.002269
521 0.002191
522 0.002084
523 0.002043
524 0.002038
525 0.002181
526 0.002286
527 0.002401
528 0.002521
529 0.002347
530 0.002287
531 0.002368
532 0.002501
533 0.002486
534 0.002613
535 0.002815
536 0.002779
537 0.002832
538 0.002857
539 0.002883
540 0.002471
541 0.002310
542 0.002101
543 0.001939
544 0.001938
545 0.001977
546 0.002026
547 0.002044
548 0.002021
549 0.001663
550 0.001351
551 0.001095
552 0.001075
553 0.001066
554 0.001251
555 0.001392
556 0.001492
557 0.001468
558 0.001576
559 0.001385
560 0.001284
561 0.001374
562 0.001390
563 0.001473
564 0.001679
565 0.002036
566 0.002308
567 0.002428
568 0.002532
569 0.002525
570 0.002312
571 0.002314
572 0.002397
573 0.002518
574 0.002789
575 0.003107
576 0.003182
577 0.003253
578 0.003059
579 0.002765
580 0.002335
581 0.001802
582 0.001330
583 0.001087
584 0.001031
585 0.000850
586 0.000668
587 0.000548
588 0.000400
589 0.000402
590 0.000410
591 0.000418
592 0.000449
593 0.000477
594 0.000776
595 0.000937
596 0.000961
597 0.000834
598 0.000801
599 0.000584
600 0.000470
601 0.000399
602 0.000247
603 0.000177
604 0.000309
605 0.000388
606 0.000562
607 0.000491
608 0.000261
609 -0.000073
610 -0.000396
611 -0.000543
612 -0.000707
613 -0.000685
614 -0.000697
615 -0.000579
616 -0.000663
617 -0.000573
618 -0.000631
619 -0.000777
620 -0.000663
621 -0.000650
622 -0.000462
623 -0.000269
624 -0.000115
625 -0.000078
626 -0.000104
627 -0.000246
628 -0.000466
629 -0.000623
630 -0.000817
631 -0.000812
632 -0.000736
633 -0.000835
634 -0.000838
635 -0.000762
636 -0.000556
637 -0.000527
638 -0.000553
639 -0.000450
640 -0.000473
641 -0.000420
642 -0.000183
643 0.000156
644 0.000485
645 0.000813
646 0.001055
647 0.001152
648 0.001312
649 0.001283
650 0.001476
651 0.001605
652 0.001510
653 0.001635
654 0.001880
655 0.002132
656 0.002379
657 0.002502
658 0.002556
659 0.002490
660 0.002230
661 0.001997
662 0.001732
663 0.001669
664 0.001547
665 0.001391
666 0.001202
667 0.000939
668 0.000784
669 0.000649
670 0.000624
671 0.000632
672 0.000631
673 0.000418
674 0.000400
675 0.000258
676 0.000245
677 0.000371
678 0.000369
679 0.000435
680 0.000466
681 0.000464
682 0.000531
683 0.000600
684 0.000664
685 0.000787
686 0.000834
687 0.000957
688 0.001078
689 0.001002
690 0.000849
691 0.000825
692 0.000625
693 0.000616
694 0.000752
695 0.000751
696 0.000708
697 0.000621
698 0.000494
699 0.000400
700 0.000267
701 0.000132
702 0.000034
703 0.000017
704 0.000191
705 0.000354
706 0.000587
707 0.000682
708 0.000790
709 0.000880
710 0.000937
711 0.001060
712 0.001069
713 0.000985
714 0.001011
715 0.001107
716 0.001093
717 0.001185
718 0.001192
719 0.000973
720 0.000891
721 0.000810
722 0.000828
723 0.000906
724 0.000891
725 0.001033
726 0.001043
727 0.000981
728 0.000781
729 0.000562
730 0.000368
731 0.000117
732 -0.000011
733 -0.000001
734 0.000004
735 0.000070
736 0.000152
737 0.000183
738 0.000266
739 0.000460
740 0.000429
741 0.000370
742 0.000302
743 0.000327
744 0.000520
745 0.000546
746 0.000520
747 0.000602
748 0.000462
749 0.000227
750 0.000097
751 -0.000072
752 -0.000274
753 -0.000373
754 -0.000335
755 -0.000367
756 -0.000346
757 -0.000381
758 -0.000346
759 -0.000295
760 -0.000264
761 -0.000138
762 -0.000036
763 0.000077
764 0.000162
765 0.000449
766 0.000550
767 0.000534
768 0.000476
769 0.000417
770 0.000393
771 0.000341
772 0.000291
773 0.000295
774 0.000315
775 0.000242
776 0.000178
777 0.000216
778 0.000072
779 -0.000010
780 -0.000112
781 -0.000170
782 -0.000103
783 -0.000163
784 -0.000128
785 -0.000077
786 -0.000016
787 0.000032
788 -0.000004
789 0.000014
790 -0.000019
791 -0.000137
792 -0.000248
793 -0.000274
794 -0.000342
795 -0.000345
796 -0.000279
797 -0.000234
798 -0.000101
799 -0.000106
800 -0.000134
801 -0.000209
802 -0.000265
803 -0.000213
804 -0.000207
805 -0.000110
806 0.000015
807 0.000078
808 0.000072
809 0.000093
