# i correlation
1 0.022828
2 0.019781
3 0.017266
4 0.015001
5 0.013187
6 0.011979
7 0.011183
8 0.010260
9 0.009340
10 0.008231
11 0.007294
12 0.006261
13 0.005525
14 0.004916
15 0.004695
16 0.004869
17 0.004784
18 0.004625
19 0.004535
20 0.004378
21 0.003979
22 0.003679
23 0.003264
24 0.002970
25 0.002596
26 0.002298
27 0.001984
28 0.001952
29 0.002186
30 0.002316
31 0.002423
32 0.002639
33 0.002756
34 0.002955
35 0.003126
36 0.003422
37 0.003169
38 0.003016
39 0.002783
40 0.002047
41 0.001458
42 0.001111
43 0.000533
44 -0.000073
45 -0.000411
46 -0.000610
47 -0.000814
48 -0.000882
49 -0.000810
50 -0.000589
51 -0.000657
52 -0.000831
53 -0.000779
54 -0.000827
55 -0.000609
56 -0.000419
57 -0.000515
58 -0.000277
59 0.000109
60 0.000494
61 0.000626
62 0.000568
63 0.000531
64 0.000838
65 0.001108
66 0.001221
67 0.001165
68 0.000901
69 0.000854
70 0.000747
71 0.000902
72 0.000539
73 0.000105
74 -0.000130
75 -0.000433
76 -0.000867
77 -0.001101
78 -0.001192
79 -0.001176
80 -0.000715
81 -0.000228
82 -0.000074
83 -0.000047
84 0.000066
85 0.000163
86 0.000685
87 0.000993
88 0.001022
89 0.001042
90 0.000852
91 0.000169
92 -0.000371
93 -0.001122
94 -0.001625
95 -0.001501
96 -0.001392
97 -0.001144
98 -0.001006
99 -0.000723
100 -0.000751
101 -0.001105
102 -0.001481
103 -0.001759
104 -0.002241
105 -0.002348
106 -0.002079
107 -0.001976
108 -0.002004
109 -0.001987
110 -0.002053
111 -0.002267
112 -0.002481
113 -0.002604
114 -0.002785
115 -0.002813
116 -0.002765
117 -0.002506
118 -0.002276
119 -0.001941
120 -0.001580
121 -0.001027
122 -0.000309
123 0.000070
124 0.000363
125 0.000825
126 0.001064
127 0.001027
128 0.001063
129 0.000914
130 0.000614
131 0.000753
132 0.000959
133 0.000867
134 0.000465
135 0.000522
136 0.000459
137 0.000564
138 0.000690
139 0.001040
140 0.001324
141 0.001515
142 0.001656
143 0.001469
144 0.001235
145 0.001278
146 0.001158
147 0.001020
148 0.000941
149 0.000811
150 0.000442
151 0.000479
152 0.000705
153 0.000727
154 0.000381
155 0.000527
156 0.000643
157 0.000662
158 0.000708
159 0.000730
160 0.000832
161 0.001459
162 0.001789
163 0.001756
164 0.001857
165 0.001931
166 0.002031
167 0.001771
168 0.001520
169 0.001160
170 0.000799
171 0.000323
172 -0.000123
173 -0.000368
174 -0.000585
175 -0.000468
176 -0.000581
177 -0.000661
178 -0.000879
179 -0.001376
180 -0.001875
181 -0.002004
182 -0.002079
183 -0.002255
184 -0.002342
185 -0.002286
186 -0.001788
187 -0.001057
188 -0.000786
189 -0.000962
190 -0.000988
191 -0.000811
192 -0.000657
193 -0.000365
194 0.000173
195 0.000678
196 0.000911
197 0.001279
198 0.001729
199 0.001918
200 0.001948
201 0.001955
202 0.002122
203 0.002316
204 0.002355
205 0.002530
206 0.002660
207 0.002685
208 0.002596
209 0.002594
210 0.002343
211 0.002360
212 0.002644
213 0.002656
214 0.002844
215 0.002370
216 0.001738
217 0.001253
218 0.000907
219 0.000654
220 0.000696
221 0.000986
222 0.001367
223 0.001529
224 0.001360
225 0.001284
226 0.001247
227 0.001357
228 0.001338
229 0.001364
230 0.001664
231 0.001782
232 0.001843
233 0.001963
234 0.002029
235 0.002024
236 0.001770
237 0.001624
238 0.001457
239 0.001275
240 0.001023
241 0.000977
242 0.000644
243 0.000221
244 -0.000137
245 -0.000456
246 -0.000623
247 -0.000428
248 0.000244
249 0.000648
250 0.001174
251 0.001655
252 0.001944
253 0.002061
254 0.002227
255 0.002137
256 0.002237
257 0.002623
258 0.002834
259 0.002951
260 0.002785
261 0.002873
262 0.002881
263 0.002776
264 0.003060
265 0.003276
266 0.002973
267 0.002783
268 0.002633
269 0.002333
270 0.002184
271 0.001870
272 0.001973
273 0.002375
274 0.002643
275 0.002455
276 0.002123
277 0.001778
278 0.001513
279 0.001174
280 0.000979
281 0.000733
282 0.000442
283 0.000363
284 0.000301
285 0.000268
286 0.000412
287 0.000520
288 0.000675
289 0.000870
290 0.001084
291 0.001060
292 0.000786
293 0.000838
294 0.001054
295 0.000979
296 0.000980
297 0.001024
298 0.001049
299 0.000826
300 0.000809
301 0.000751
302 0.000518
303 0.000377
304 0.000524
305 0.000366
306 0.000168
307 0.000103
308 0.000020
309 -0.000069
310 -0.000231
311 -0.000483
312 -0.000685
313 -0.000686
314 -0.000604
315 -0.000613
316 -0.000712
317 -0.000733
318 -0.000950
319 -0.000827
320 -0.000592
321 -0.000205
322 0.000455
323 0.001079
324 0.001321
325 0.001412
326 0.001629
327 0.001849
328 0.002059
329 0.002352
330 0.002580
331 0.002685
332 0.002653
333 0.002669
334 0.002658
335 0.002682
336 0.002727
337 0.002837
338 0.003210
339 0.003631
340 0.003821
341 0.003544
342 0.003075
343 0.002898
344 0.002823
345 0.002808
346 0.002853
347 0.002925
348 0.002938
349 0.002765
350 0.002372
351 0.002114
352 0.001871
353 0.001701
354 0.001672
355 0.001777
356 0.001672
357 0.001535
358 0.001361
359 0.001384
360 0.001516
361 0.001584
362 0.001771
363 0.002182
364 0.002466
365 0.002549
366 0.002232
367 0.002031
368 0.001867
369 0.001729
370 0.001661
371 0.001797
372 0.001938
373 0.002132
374 0.002497
375 0.002734
376 0.002776
377 0.002548
378 0.002396
379 0.002184
380 0.002044
381 0.001777
382 0.001632
383 0.001469
384 0.001119
385 0.000901
386 0.000774
387 0.000847
388 0.000869
389 0.000910
390 0.000942
391 0.000799
392 0.000480
393 0.000367
394 0.000255
395 0.000210
396 0.000394
397 0.000481
398 0.000417
399 0.000417
400 0.000654
401 0.000520
402 0.000282
403 0.000228
404 0.000238
405 0.000314
406 0.000406
407 0.000742
408 0.000919
409 0.001310
410 0.001648
411 0.001745
412 0.001827
413 0.001762
414 0.001711
415 0.001400
416 0.001097
417 0.000757
418 0.000367
419 0.000084
420 -0.000270
421 -0.000550
422 -0.000629
423 -0.000469
424 -0.000555
425 -0.000410
426 -0.000049
427 0.000155
428 0.000387
429 0.000603
430 0.000460
431 -0.000005
432 -0.000384
433 -0.000818
434 -0.001076
435 -0.001008
436 -0.000888
437 -0.001171
438 -0.001578
439 -0.001883
440 -0.002391
441 -0.002886
442 -0.003020
443 -0.003020
444 -0.002788
445 -0.002456
446 -0.002156
447 -0.002048
448 -0.002126
449 -0.002250
450 -0.002579
451 -0.002644
452 -0.002683
453 -0.002856
454 -0.002915
455 -0.002727
456 -0.002654
457 -0.002728
458 -0.002882
459 -0.002780
460 -0.002313
461 -0.001862
462 -0.001244
463 -0.000946
464 -0.000652
465 -0.000406
466 -0.000082
467 0.000063
468 0.000266
469 0.000300
470 0.000475
471 0.000763
472 0.000930
473 0.001077
474 0.001066
475 0.001052
476 0.000904
477 0.000635
478 0.000701
479 0.000719
480 0.000634
481 0.000595
482 0.000597
483 0.000550
484 0.000606
485 0.000767
486 0.000810
487 0.001000
488 0.001171
489 0.001137
490 0.001173
491 0.001076
492 0.001098
493 0.001134
494 0.001265
495 0.001511
496 0.001645
497 0.001712
498 0.001720
499 0.001596
500 0.001526
501 0.001286
502 0.001005
503 0.000844
504 0.000827
505 0.000554
506 0.000314
507 0.000175
508 0.000057
509 0.000050
510 0.000075
511 0.000204
512 0.000087
513 -0.000003
514 -0.000008
515 0.000119
516 0.000341
517 0.000451
518 0.000559
519 0.000373
520 0.000158
521 -0.000029
522 -0.000093
523 -0.000292
524 -0.000354
525 -0.000291
526 0.000005
527 0.000158
528 0.000113
529 0.000042
530 -0.000269
531 -0.000347
532 -0.000440
533 -0.000421
534 -0.000265
535 0.000116
536 0.000379
537 0.000568
538 0.000633
539 0.000474
540 0.000460
541 0.000495
542 0.000641
543 0.000758
544 0.000862
545 0.000850
546 0.000708
547 0.000601
548 0.000383
549 0.000243
550 0.000140
551 0.000171
552 0.000412
553 0.000509
554 0.000621
555 0.000682
556 0.000582
557 0.000405
558 0.000279
559 0.000108
560 -0.000101
561 -0.000227
562 -0.000257
563 -0.000462
564 -0.000580
565 -0.000552
566 -0.000847
567 -0.001268
568 -0.001531
569 -0.001666
570 -0.001690
571 -0.001556
572 -0.001440
573 -0.001304
574 -0.001131
575 -0.000897
576 -0.000785
577 -0.000652
578 -0.000588
579 -0.000554
580 -0.000597
581 -0.000664
582 -0.000637
583 -0.000655
584 -0.000636
585 -0.000599
586 -0.000632
587 -0.000534
588 -0.000442
589 -0.000438
590 -0.000535
591 -0.000642
592 -0.000817
593 -0.001028
594 -0.001102
595 -0.001100
596 -0.000974
597 -0.000893
598 -0.000855
599 -0.001005
600 -0.001029
601 -0.000949
602 -0.000907
603 -0.000830
604 -0.000722
605 -0.000663
606 -0.000732
607 -0.000736
608 -0.000681
609 -0.000631
610 -0.000708
611 -0.000768
612 -0.000669
613 -0.000439
614 -0.000251
615 -0.000190
616 -0.000266
617 -0.000298
618 -0.000398
619 -0.000581
620 -0.000780
621 -0.000814
622 -0.000763
623 -0.000766
624 -0.000787
625 -0.000800
626 -0.000771
627 -0.000850
628 -0.000899
629 -0.001047
630 -0.001139
631 -0.001300
632 -0.001431
633 -0.001471
634 -0.001568
635 -0.001520
636 -0.001408
637 -0.001122
638 -0.000904
639 -0.000587
640 -0.000379
641 -0.000245
642 -0.000123
643 -0.000114
644 -0.000154
645 -0.000388
646 -0.000590
647 -0.000844
648 -0.001028
649 -0.001097
650 -0.001265
651 -0.001425
652 -0.001755
653 -0.002087
654 -0.002306
655 -0.002506
656 -0.002757
657 -0.002901
658 -0.003041
659 -0.003023
660 -0.002783
661 -0.002482
662 -0.002116
663 -0.001846
664 -0.001732
665 -0.001599
666 -0.001495
667 -0.001384
668 -0.001180
669 -0.000805
670 -0.000441
671 -0.000136
672 0.000174
673 0.000588
674 0.000942
675 0.001119
676 0.001340
677 0.001614
678 0.001843
679 0.002117
680 0.002293
681 0.002332
682 0.002469
683 0.002546
684 0.002691
685 0.002710
686 0.002692
687 0.002644
688 0.002493
689 0.002332
690 0.002225
691 0.001999
692 0.001719
693 0.001512
694 0.001344
695 0.001217
696 0.001114
697 0.001235
698 0.001233
699 0.001247
700 0.001137
701 0.001148
702 0.001179
703 0.001325
704 0.001568
705 0.001613
706 0.001600
707 0.001457
708 0.001306
709 0.001208
710 0.001214
711 0.001174
712 0.001119
713 0.000956
714 0.000808
715 0.000617
716 0.000408
717 0.000275
718 0.000302
719 0.000317
720 0.000227
721 0.000167
722 0.000101
723 0.000044
724 -0.000110
725 -0.000192
726 -0.000193
727 -0.000092
728 -0.000085
729 -0.000106
730 -0.000157
731 -0.000236
732 -0.000410
733 -0.000456
734 -0.000373
735 -0.000230
736 -0.000096
737 -0.000051
738 0.000049
739 0.000114
740 0.000282
741 0.000377
742 0.000456
743 0.000541
744 0.000621
745 0.000830
746 0.001030
747 0.001098
748 0.001105
749 0.001075
750 0.001050
751 0.001064
752 0.001174
753 0.001242
754 0.001250
755 0.001279
756 0.001222
757 0.001237
758 0.001217
759 0.001253
760 0.001214
761 0.001093
762 0.001034
763 0.001009
764 0.001043
765 0.001063
766 0.001102
767 0.001120
768 0.001144
769 0.001070
770 0.001009
771 0.000793
772 0.000561
773 0.000268
774 0.000129
775 0.000073
776 0.000093
777 0.000055
778 -0.000077
779 -0.000187
780 -0.000448
781 -0.000754
782 -0.000984
783 -0.001082
784 -0.001151
785 -0.001204
786 -0.001272
787 -0.001307
788 -0.001388
789 -0.001453
790 -0.001552
791 -0.001573
792 -0.001569
793 -0.001585
794 -0.001519
795 -0.001396
796 -0.001267
797 -0.001193
798 -0.001087
799 -0.001042
800 -0.000976
801 -0.000916
802 -0.000888
803 -0.000943
804 -0.000936
805 -0.000849
806 -0.000759
807 -0.000737
808 -0.000794
809 -0.000856
