# i correlation
1 0.014633
2 0.011917
3 0.009897
4 0.008240
5 0.007055
6 0.005953
7 0.005475
8 0.005246
9 0.004927
10 0.004200
11 0.003787
12 0.003335
13 0.002417
14 0.001814
15 0.001201
16 0.000530
17 -0.000103
18 -0.000381
19 -0.000645
20 -0.000854
21 -0.001009
22 -0.001119
23 -0.001204
24 -0.001628
25 -0.001774
26 -0.001897
27 -0.001479
28 -0.000943
29 -0.000908
30 -0.000802
31 -0.000615
32 -0.000679
33 -0.000606
34 -0.000749
35 -0.000679
36 -0.000468
37 0.000041
38 -0.000096
39 -0.000172
40 0.000065
41 -0.000456
42 -0.000522
43 -0.000520
44 -0.000844
45 -0.000816
46 -0.001031
47 -0.000870
48 -0.000676
49 -0.000376
50 -0.000031
51 0.000493
52 0.000886
53 0.000797
54 0.000715
55 0.000757
56 0.000524
57 0.000233
58 0.000307
59 0.000527
60 0.000811
61 0.000831
62 0.000716
63 0.000426
64 0.000222
65 0.000239
66 0.000114
67 0.000363
68 0.000363
69 0.000534
70 0.000540
71 0.000270
72 -0.000360
73 -0.000897
74 -0.001307
75 -0.001693
76 -0.002354
77 -0.002756
78 -0.002783
79 -0.002617
80 -0.002441
81 -0.002843
82 -0.002935
83 -0.002719
84 -0.002889
85 -0.003038
86 -0.003302
87 -0.003438
88 -0.003281
89 -0.003070
90 -0.002707
91 -0.002352
92 -0.001854
93 -0.001484
94 -0.001219
95 -0.000965
96 -0.000998
97 -0.001020
98 -0.000491
99 -0.000327
100 -0.000111
101 0.000220
102 0.000178
103 0.000164
104 0.000116
105 0.000050
106 0.000174
107 0.000561
108 0.000821
109 0.000760
110 0.000686
111 0.000630
112 0.000416
113 0.000001
114 -0.000620
115 -0.001015
116 -0.001236
117 -0.001310
118 -0.001372
119 -0.000965
120 -0.000483
121 -0.000251
122 -0.000228
123 -0.000293
124 -0.000481
125 -0.000645
126 -0.000783
127 -0.000727
128 -0.000624
129 -0.000546
130 -0.000227
131 0.000190
132 0.000459
133 0.000755
134 0.000775
135 0.000933
136 0.000679
137 0.000378
138 0.000554
139 0.000348
140 0.000466
141 0.000287
142 0.000158
143 0.000368
144 0.000310
145 0.000381
146 0.000413
147 0.000314
148 0.000375
149 0.000237
150 0.000184
151 0.000211
152 0.000717
153 0.001038
154 0.001088
155 0.000799
156 0.000595
157 0.000625
158 0.000582
159 0.000659
160 0.000623
161 0.000966
162 0.001189
163 0.001604
164 0.001940
165 0.002149
166 0.002201
167 0.002093
168 0.002167
169 0.002099
170 0.001954
171 0.001728
172 0.001568
173 0.001749
174 0.001489
175 0.001417
176 0.001091
177 0.000790
178 0.000386
179 -0.000070
180 -0.000071
181 -0.000153
182 -0.000354
183 -0.000855
184 -0.001247
185 -0.001467
186 -0.001747
187 -0.002088
188 -0.002118
189 -0.001962
190 -0.001875
191 -0.001843
192 -0.001785
193 -0.002155
194 -0.002264
195 -0.002449
196 -0.002622
197 -0.002775
198 -0.002680
199 -0.002197
200 -0.002067
201 -0.001834
202 -0.001772
203 -0.001804
204 -0.001595
205 -0.001465
206 -0.001472
207 -0.001501
208 -0.001409
209 -0.001655
210 -0.001474
211 -0.001721
212 -0.002047
213 -0.002130
214 -0.002124
215 -0.001915
216 -0.001692
217 -0.001546
218 -0.001331
219 -0.001050
220 -0.000957
221 -0.001010
222 -0.000664
223 -0.000144
224 0.000195
225 0.000334
226 0.000434
227 0.000749
228 0.000961
229 0.001149
230 0.001082
231 0.001178
232 0.001380
233 0.001382
234 0.001449
235 0.001338
236 0.001629
237 0.001831
238 0.002287
239 0.002308
240 0.002032
241 0.002160
242 0.002119
243 0.002075
244 0.001914
245 0.001456
246 0.001096
247 0.000862
248 0.000422
249 -0.000107
250 -0.000475
251 -0.000797
252 -0.000877
253 -0.001004
254 -0.001138
255 -0.001239
256 -0.001392
257 -0.001484
258 -0.001655
259 -0.001486
260 -0.001296
261 -0.001217
262 -0.001527
263 -0.001706
264 -0.001722
265 -0.001542
266 -0.001149
267 -0.000942
268 -0.000773
269 -0.000604
270 -0.000675
271 -0.000897
272 -0.001018
273 -0.001078
274 -0.000989
275 -0.000704
276 -0.000385
277 -0.000349
278 -0.000269
279 -0.000079
280 0.000049
281 0.000287
282 0.000270
283 0.000298
284 0.000567
285 0.000746
286 0.000892
287 0.000972
288 0.000980
289 0.000927
290 0.000964
291 0.000884
292 0.000865
293 0.001079
294 0.001306
295 0.001263
296 0.001192
297 0.001204
298 0.000973
299 0.000923
300 0.000612
301 0.000060
302 -0.000238
303 -0.000186
304 -0.000360
305 -0.000476
306 -0.000842
307 -0.000992
308 -0.000698
309 -0.000614
310 -0.000757
311 -0.000827
312 -0.000595
313 -0.000488
314 -0.000622
315 -0.000653
316 -0.000569
317 -0.000457
318 -0.000605
319 -0.000774
320 -0.001255
321 -0.001440
322 -0.001785
323 -0.001989
324 -0.001898
325 -0.001728
326 -0.001572
327 -0.001204
328 -0.001123
329 -0.001272
330 -0.001349
331 -0.001567
332 -0.001652
333 -0.001756
334 -0.001765
335 -0.001585
336 -0.001332
337 -0.001204
338 -0.001368
339 -0.001373
340 -0.001527
341 -0.001591
342 -0.001344
343 -0.001144
344 -0.001112
345 -0.000861
346 -0.000400
347 -0.000148
348 0.000151
349 -0.000059
350 -0.000069
351 -0.000125
352 -0.000209
353 -0.000361
354 -0.000276
355 0.000046
356 0.000132
357 0.000227
358 0.000357
359 0.000418
360 0.000398
361 0.000204
362 0.000240
363 0.000132
364 0.000278
365 0.000243
366 0.000326
367 0.000521
368 0.000612
369 0.000690
370 0.000646
371 0.000597
372 0.000425
373 0.000370
374 0.000422
375 0.000215
376 0.000160
377 0.000280
378 0.000191
379 0.000332
380 0.000344
381 0.000177
382 0.000036
383 0.000187
384 0.000324
385 0.000320
386 0.000519
387 0.000653
388 0.001017
389 0.001088
390 0.000961
391 0.000986
392 0.001136
393 0.001116
394 0.001027
395 0.001314
396 0.001456
397 0.001639
398 0.001701
399 0.001606
400 0.001603
401 0.001361
402 0.001176
403 0.000932
404 0.001032
405 0.001082
406 0.001352
407 0.001624
408 0.001661
409 0.001903
410 0.001597
411 0.001695
412 0.001535
413 0.001408
414 0.001251
415 0.000998
416 0.000914
417 0.001044
418 0.001084
419 0.001135
420 0.001356
421 0.001398
422 0.001404
423 0.001254
424 0.000938
425 0.000955
426 0.000837
427 0.000665
428 0.000697
429 0.000704
430 0.000413
431 0.000297
432 0.000086
433 -0.000113
434 -0.000278
435 -0.000179
436 0.000012
437 0.000252
438 0.000347
439 0.000233
440 0.000278
441 0.000108
442 -0.000110
443 -0.000337
444 -0.000686
445 -0.001064
446 -0.001088
447 -0.001305
448 -0.001218
449 -0.000983
450 -0.000932
451 -0.001047
452 -0.001363
453 -0.001599
454 -0.001803
455 -0.002177
456 -0.002279
457 -0.002034
458 -0.001551
459 -0.001216
460 -0.000866
461 -0.000586
462 -0.000293
463 -0.000255
464 -0.000200
465 0.000025
466 0.000229
467 0.000544
468 0.000934
469 0.001131
470 0.000979
471 0.000941
472 0.000861
473 0.000775
474 0.000602
475 0.000531
476 0.000500
477 0.000471
478 0.000283
479 0.000112
480 0.000131
481 0.000133
482 -0.000062
483 -0.000454
484 -0.000866
485 -0.001068
486 -0.001038
487 -0.001150
488 -0.001237
489 -0.001226
490 -0.001231
491 -0.001252
492 -0.001425
493 -0.001492
494 -0.001373
495 -0.001241
496 -0.001213
497 -0.001155
498 -0.000964
499 -0.000876
500 -0.000615
501 -0.000646
502 -0.000576
503 -0.000657
504 -0.000352
505 -0.000143
506 -0.000322
507 -0.000143
508 -0.000145
509 -0.000050
510 -0.000093
511 -0.000225
512 -0.000285
513 -0.000180
514 -0.000304
515 -0.000463
516 -0.000337
517 -0.000065
518 0.000171
519 0.000464
520 0.000927
521 0.001392
522 0.001608
523 0.001681
524 0.001584
525 0.001413
526 0.001328
527 0.001529
528 0.001779
529 0.001858
530 0.001831
531 0.001859
532 0.002205
533 0.002465
534 0.002348
535 0.002473
536 0.002504
537 0.002471
538 0.002210
539 0.001746
540 0.001486
541 0.001381
542 0.001287
543 0.000885
544 0.000799
545 0.000517
546 0.000335
547 0.000379
548 0.000137
549 0.000023
550 -0.000054
551 -0.000276
552 -0.000264
553 -0.000285
554 -0.000299
555 -0.000250
556 -0.000198
557 -0.000081
558 -0.000004
559 0.000218
560 0.000502
561 0.000638
562 0.000531
563 0.000434
564 0.000368
565 0.000603
566 0.000663
567 0.000547
568 0.000603
569 0.000882
570 0.001095
571 0.001192
572 0.001287
573 0.001467
574 0.001553
575 0.001607
576 0.001332
577 0.001114
578 0.000866
579 0.000601
580 0.000563
581 0.000625
582 0.000561
583 0.000408
584 0.000448
585 0.000241
586 0.000067
587 0.000013
588 0.000019
589 0.000170
590 0.000224
591 0.000157
592 0.000138
593 0.000199
594 0.000328
595 0.000419
596 0.000457
597 0.000396
598 0.000310
599 0.000194
600 0.000081
601 -0.000042
602 0.000159
603 0.000294
604 0.000199
605 0.000142
606 0.000166
607 0.000230
608 0.000188
609 -0.000208
610 -0.000421
611 -0.000351
612 -0.000319
613 -0.000404
614 -0.000537
615 -0.000492
616 -0.000506
617 -0.000585
618 -0.000953
619 -0.001329
620 -0.001616
621 -0.001717
622 -0.001901
623 -0.002192
624 -0.002189
625 -0.002085
626 -0.001853
627 -0.001331
628 -0.000866
629 -0.000475
630 -0.000188
631 -0.000124
632 -0.000176
633 -0.000127
634 -0.000040
635 0.000133
636 0.000220
637 0.000121
638 0.000299
639 0.000394
640 0.000597
641 0.000689
642 0.000815
643 0.000875
644 0.000708
645 0.000604
646 0.000206
647 0.000023
648 -0.000150
649 -0.000414
650 -0.000408
651 -0.000552
652 -0.000587
653 -0.000641
654 -0.000800
655 -0.000859
656 -0.000977
657 -0.001114
658 -0.001141
659 -0.001119
660 -0.001235
661 -0.001205
662 -0.001162
663 -0.001021
664 -0.000843
665 -0.000749
666 -0.000531
667 -0.000192
668 -0.000023
669 0.000002
670 0.000092
671 -0.000024
672 -0.000127
673 -0.000062
674 -0.000101
675 -0.000113
676 -0.000216
677 -0.000332
678 -0.000254
679 -0.000237
680 -0.000141
681 -0.000041
682 0.000079
683 -0.000107
684 -0.000470
685 -0.000610
686 -0.000692
687 -0.000646
688 -0.000700
689 -0.000868
690 -0.000757
691 -0.000833
692 -0.000825
693 -0.000830
694 -0.000917
695 -0.000890
696 -0.000768
697 -0.000721
698 -0.000610
699 -0.000596
700 -0.000700
701 -0.000562
702 -0.000416
703 -0.000187
704 -0.000054
705 0.000147
706 0.000159
707 0.000090
708 0.000102
709 0.000042
710 0.000117
711 0.000012
712 -0.000040
713 0.000011
714 -0.000112
715 -0.000181
716 -0.000319
717 -0.000467
718 -0.000493
719 -0.000516
720 -0.000710
721 -0.000861
722 -0.000845
723 -0.000815
724 -0.000811
725 -0.000803
726 -0.000753
727 -0.000594
728 -0.000349
729 -0.000267
730 -0.000136
731 -0.000205
732 -0.000154
733 -0.000012
734 0.000095
735 0.000221
736 0.000400
737 0.000482
738 0.000690
739 0.000740
740 0.000606
741 0.000686
742 0.000620
743 0.000526
744 0.000321
745 0.000185
746 0.000163
747 0.000089
748 0.000137
749 0.000253
750 0.000344
751 0.000222
752 0.000092
753 0.000039
754 -0.000142
755 -0.000165
756 -0.000256
757 -0.000238
758 -0.000252
759 -0.000177
760 -0.000002
761 0.000205
762 0.000253
763 0.000373
764 0.000400
765 0.000539
766 0.000583
767 0.000564
768 0.000611
769 0.000568
770 0.000635
771 0.000681
772 0.000740
773 0.000849
774 0.000890
775 0.000892
776 0.000861
777 0.000835
778 0.000813
779 0.000771
780 0.000774
781 0.000820
782 0.000708
783 0.000703
784 0.000660
785 0.000598
786 0.000624
787 0.000426
788 0.000460
789 0.000376
790 0.000370
791 0.000390
792 0.000349
793 0.000504
794 0.000568
795 0.000537
796 0.000450
797 0.000460
798 0.000470
799 0.000390
800 0.000322
801 0.000287
802 0.000283
803 0.000320
804 0.000347
805 0.000326
806 0.000295
807 0.000229
808 0.000206
809 0.000158
