# i correlation
1 0.017671
2 0.014992
3 0.012784
4 0.011465
5 0.010277
6 0.009271
7 0.008598
8 0.007834
9 0.006780
10 0.005626
11 0.004823
12 0.004160
13 0.003795
14 0.003711
15 0.003786
16 0.003606
17 0.003400
18 0.003188
19 0.003197
20 0.003157
21 0.003074
22 0.003066
23 0.002834
24 0.002635
25 0.002246
26 0.002068
27 0.001933
28 0.001856
29 0.002058
30 0.002608
31 0.002925
32 0.002863
33 0.002892
34 0.002820
35 0.002940
36 0.003189
37 0.003451
38 0.003423
39 0.003281
40 0.003409
41 0.003180
42 0.002595
43 0.002076
44 0.001672
45 0.001654
46 0.001638
47 0.001232
48 0.000993
49 0.000938
50 0.000771
51 0.000749
52 0.000829
53 0.000877
54 0.001254
55 0.001331
56 0.001345
57 0.001257
58 0.001320
59 0.001041
60 0.001114
61 0.001148
62 0.000999
63 0.000829
64 0.000790
65 0.000831
66 0.000830
67 0.000805
68 0.000716
69 0.000891
70 0.001038
71 0.001300
72 0.001292
73 0.001447
74 0.001274
75 0.001232
76 0.001218
77 0.000790
78 0.000501
79 -0.000082
80 -0.000287
81 -0.000675
82 -0.001162
83 -0.001482
84 -0.001559
85 -0.001597
86 -0.001420
87 -0.001547
88 -0.001508
89 -0.001576
90 -0.001520
91 -0.001418
92 -0.001357
93 -0.001295
94 -0.001236
95 -0.001232
96 -0.001291
97 -0.001312
98 -0.001197
99 -0.001179
100 -0.000887
101 -0.000467
102 0.000071
103 0.000460
104 0.000773
105 0.001138
106 0.001520
107 0.001741
108 0.001760
109 0.001818
110 0.002380
111 0.002843
112 0.003095
113 0.003323
114 0.003362
115 0.003562
116 0.003508
117 0.003594
118 0.003389
119 0.002872
120 0.002438
121 0.002331
122 0.001883
123 0.001481
124 0.001190
125 0.001111
126 0.000905
127 0.000742
128 0.000425
129 0.000168
130 0.000182
131 0.000155
132 0.000208
133 0.000154
134 0.000264
135 0.000459
136 0.000466
137 0.000581
138 0.000759
139 0.000939
140 0.001201
141 0.001390
142 0.001392
143 0.001414
144 0.001453
145 0.001293
146 0.001216
147 0.001439
148 0.001438
149 0.001187
150 0.001079
151 0.001320
152 0.001302
153 0.000996
154 0.000738
155 0.000702
156 0.001048
157 0.001345
158 0.001277
159 0.001398
160 0.001667
161 0.002150
162 0.002348
163 0.002274
164 0.002262
165 0.002044
166 0.001883
167 0.001698
168 0.001616
169 0.001805
170 0.001991
171 0.002284
172 0.002379
173 0.002197
174 0.001866
175 0.001550
176 0.001417
177 0.001481
178 0.001909
179 0.002220
180 0.002427
181 0.002612
182 0.002781
183 0.002676
184 0.002303
185 0.002032
186 0.002106
187 0.002232
188 0.002643
189 0.002503
190 0.002219
191 0.001885
192 0.001703
193 0.001791
194 0.001641
195 0.001563
196 0.001619
197 0.001739
198 0.001521
199 0.001177
200 0.000690
201 0.000621
202 0.000902
203 0.001327
204 0.001567
205 0.001626
206 0.001470
207 0.001290
208 0.001320
209 0.001531
210 0.001770
211 0.001947
212 0.002068
213 0.002154
214 0.002054
215 0.002072
216 0.002186
217 0.002433
218 0.002687
219 0.002616
220 0.002470
221 0.002012
222 0.001498
223 0.001382
224 0.001412
225 0.001364
226 0.001172
227 0.001359
228 0.001280
229 0.001033
230 0.000859
231 0.000816
232 0.000781
233 0.000861
234 0.000706
235 0.000863
236 0.000630
237 0.000380
238 0.000230
239 0.000149
240 0.000139
241 -0.000024
242 0.000414
243 0.000627
244 0.000487
245 0.000202
246 -0.000040
247 0.000011
248 -0.000038
249 -0.000018
250 0.000025
251 0.000053
252 -0.000214
253 -0.000581
254 -0.000679
255 -0.000569
256 -0.000604
257 -0.000474
258 -0.000156
259 0.000030
260 -0.000124
261 -0.000146
262 -0.000131
263 -0.000176
264 -0.000266
265 -0.000508
266 -0.000385
267 -0.000408
268 -0.000225
269 -0.000079
270 -0.000012
271 -0.000059
272 0.000177
273 0.000400
274 0.000477
275 0.000447
276 0.000681
277 0.000588
278 0.000387
279 0.000041
280 -0.000275
281 -0.000165
282 0.000106
283 0.000349
284 0.000393
285 0.000252
286 -0.000058
287 -0.000542
288 -0.000792
289 -0.000875
290 -0.001067
291 -0.001229
292 -0.001361
293 -0.001486
294 -0.001725
295 -0.001953
296 -0.002048
297 -0.001957
298 -0.001794
299 -0.001496
300 -0.001255
301 -0.001263
302 -0.001610
303 -0.001613
304 -0.001529
305 -0.001501
306 -0.001645
307 -0.001836
308 -0.001932
309 -0.001955
310 -0.002203
311 -0.002143
312 -0.002124
313 -0.001824
314 -0.001792
315 -0.001794
316 -0.001896
317 -0.002083
318 -0.002213
319 -0.002187
320 -0.002115
321 -0.001980
322 -0.001583
323 -0.001112
324 -0.000990
325 -0.000999
326 -0.001052
327 -0.001152
328 -0.001031
329 -0.000782
330 -0.000347
331 0.000079
332 0.000318
333 0.000572
334 0.000885
335 0.000952
336 0.000884
337 0.000811
338 0.000839
339 0.000589
340 0.000241
341 0.000034
342 0.000031
343 -0.000042
344 0.000106
345 0.000333
346 0.000108
347 -0.000076
348 -0.000389
349 -0.000365
350 -0.000262
351 -0.000462
352 -0.000500
353 -0.000467
354 -0.000510
355 -0.000639
356 -0.000721
357 -0.000751
358 -0.000721
359 -0.000722
360 -0.000579
361 -0.000367
362 -0.000189
363 -0.000234
364 -0.000089
365 0.000202
366 0.000422
367 0.000387
368 0.000237
369 0.000154
370 -0.000060
371 -0.000080
372 -0.000226
373 -0.000251
374 -0.000167
375 0.000098
376 0.000245
377 0.000215
378 0.000097
379 0.000003
380 0.000050
381 -0.000083
382 -0.000101
383 -0.000129
384 -0.000105
385 0.000009
386 0.000330
387 0.000748
388 0.000810
389 0.000932
390 0.001050
391 0.001368
392 0.001618
393 0.001930
394 0.002163
395 0.002427
396 0.002540
397 0.002435
398 0.002429
399 0.002815
400 0.002704
401 0.002568
402 0.002434
403 0.002190
404 0.001848
405 0.001753
406 0.001933
407 0.002270
408 0.002270
409 0.001962
410 0.001706
411 0.001584
412 0.001471
413 0.001470
414 0.001416
415 0.001458
416 0.001490
417 0.001364
418 0.001114
419 0.000776
420 0.000537
421 0.000405
422 0.000192
423 0.000152
424 0.000065
425 -0.000003
426 -0.000029
427 -0.000080
428 -0.000146
429 -0.000145
430 0.000092
431 0.000089
432 0.000001
433 -0.000020
434 -0.000075
435 -0.000005
436 0.000169
437 0.000374
438 0.000643
439 0.000714
440 0.000756
441 0.000749
442 0.000712
443 0.000804
444 0.001170
445 0.001479
446 0.001703
447 0.002027
448 0.002117
449 0.002137
450 0.002023
451 0.002021
452 0.002072
453 0.002130
454 0.002102
455 0.002210
456 0.002159
457 0.001908
458 0.001516
459 0.001241
460 0.001136
461 0.001084
462 0.001175
463 0.001223
464 0.001210
465 0.001088
466 0.000916
467 0.000729
468 0.000477
469 0.000307
470 0.000358
471 0.000295
472 0.000319
473 0.000201
474 0.000126
475 0.000271
476 0.000349
477 0.000413
478 0.000340
479 0.000474
480 0.000639
481 0.000632
482 0.000586
483 0.000547
484 0.000737
485 0.000993
486 0.001074
487 0.001144
488 0.001023
489 0.000753
490 0.000437
491 0.000045
492 -0.000132
493 -0.000198
494 -0.000416
495 -0.000570
496 -0.000748
497 -0.000951
498 -0.001232
499 -0.001253
500 -0.001165
501 -0.000775
502 -0.000401
503 -0.000076
504 0.000096
505 0.000051
506 0.000096
507 -0.000052
508 0.000118
509 0.000107
510 0.000206
511 0.000141
512 0.000018
513 -0.000077
514 -0.000197
515 -0.000390
516 -0.000402
517 -0.000279
518 -0.000118
519 -0.000055
520 0.000006
521 0.000037
522 0.000051
523 0.000016
524 0.000060
525 0.000087
526 0.000154
527 0.000138
528 0.000012
529 -0.000199
530 -0.000223
531 -0.000306
532 -0.000282
533 -0.000306
534 -0.000421
535 -0.000592
536 -0.000696
537 -0.000901
538 -0.000917
539 -0.000953
540 -0.000801
541 -0.000629
542 -0.000446
543 -0.000293
544 -0.000324
545 -0.000477
546 -0.000342
547 -0.000268
548 -0.000079
549 0.000122
550 0.000454
551 0.000756
552 0.000809
553 0.000949
554 0.000960
555 0.001164
556 0.001289
557 0.001433
558 0.001757
559 0.001994
560 0.002115
561 0.002056
562 0.002118
563 0.001945
564 0.001808
565 0.001659
566 0.001520
567 0.001253
568 0.001075
569 0.000927
570 0.000847
571 0.000796
572 0.000885
573 0.001042
574 0.001125
575 0.001118
576 0.001178
577 0.001394
578 0.001539
579 0.001632
580 0.001776
581 0.001927
582 0.001983
583 0.001807
584 0.001662
585 0.001563
586 0.001466
587 0.001532
588 0.001575
589 0.001613
590 0.001671
591 0.001699
592 0.001710
593 0.001734
594 0.001707
595 0.001834
596 0.002072
597 0.002242
598 0.002319
599 0.002228
600 0.002139
601 0.001969
602 0.001863
603 0.001685
604 0.001632
605 0.001673
606 0.001660
607 0.001585
608 0.001502
609 0.001421
610 0.001451
611 0.001502
612 0.001398
613 0.001419
614 0.001447
615 0.001464
616 0.001629
617 0.001739
618 0.001813
619 0.001758
620 0.001739
621 0.001427
622 0.001267
623 0.001243
624 0.001194
625 0.001010
626 0.000939
627 0.000918
628 0.000733
629 0.000483
630 0.000183
631 -0.000152
632 -0.000437
633 -0.000653
634 -0.000617
635 -0.000587
636 -0.000564
637 -0.000552
638 -0.000601
639 -0.000860
640 -0.001163
641 -0.001278
642 -0.001167
643 -0.001011
644 -0.000865
645 -0.000756
646 -0.000619
647 -0.000568
648 -0.000435
649 -0.000289
650 -0.000100
651 0.000137
652 -0.000013
653 -0.000086
654 -0.000156
655 -0.000358
656 -0.000423
657 -0.000379
658 -0.000255
659 -0.000189
660 -0.000161
661 -0.000084
662 -0.000032
663 0.000143
664 0.000386
665 0.000834
666 0.001109
667 0.001315
668 0.001548
669 0.001722
670 0.001828
671 0.001808
672 0.001669
673 0.001585
674 0.001418
675 0.001335
676 0.001140
677 0.001014
678 0.000871
679 0.000604
680 0.000436
681 0.000332
682 0.000359
683 0.000401
684 0.000416
685 0.000303
686 0.000158
687 0.000058
688 0.000085
689 0.000314
690 0.000351
691 0.000366
692 0.000391
693 0.000377
694 0.000496
695 0.000331
696 0.000141
697 0.000107
698 0.000093
699 0.000179
700 0.000285
701 0.000308
702 0.000420
703 0.000409
704 0.000248
705 0.000095
706 0.000024
707 0.000005
708 -0.000082
709 -0.000261
710 -0.000422
711 -0.000532
712 -0.000589
713 -0.000609
714 -0.000721
715 -0.000834
716 -0.000949
717 -0.001076
718 -0.001030
719 -0.000829
720 -0.000500
721 -0.000171
722 0.000143
723 0.000414
724 0.000678
725 0.000874
726 0.000920
727 0.000884
728 0.000918
729 0.001081
730 0.001151
731 0.001173
732 0.001045
733 0.000847
734 0.000650
735 0.000467
736 0.000251
737 0.000174
738 0.000160
739 0.000115
740 0.000066
741 0.000093
742 0.000119
743 0.000230
744 0.000339
745 0.000306
746 0.000311
747 0.000197
748 0.000137
749 0.000005
750 -0.000187
751 -0.000340
752 -0.000465
753 -0.000560
754 -0.000728
755 -0.000895
756 -0.001103
757 -0.001146
758 -0.001112
759 -0.000984
760 -0.000833
761 -0.000553
762 -0.000305
763 -0.000117
764 -0.000022
765 0.000054
766 0.000069
767 0.000157
768 0.000169
769 0.000195
770 0.000123
771 -0.000006
772 -0.000219
773 -0.000399
774 -0.000522
775 -0.000625
776 -0.000677
777 -0.000666
778 -0.000558
779 -0.000510
780 -0.000413
781 -0.000325
782 -0.000184
783 -0.000069
784 0.000131
785 0.000352
786 0.000606
787 0.000614
788 0.000611
789 0.000569
790 0.000531
791 0.000463
792 0.000301
793 0.000227
794 0.000106
795 0.000010
796 -0.000154
797 -0.000294
798 -0.000336
799 -0.000410
800 -0.000424
801 -0.000441
802 -0.000403
803 -0.000348
804 -0.000327
805 -0.000307
806 -0.000279
807 -0.000303
808 -0.000316
809 -0.000297
