# i correlation
1 0.016292
2 0.013733
3 0.011810
4 0.010240
5 0.008942
6 0.007963
7 0.007150
8 0.006436
9 0.005678
10 0.005558
11 0.005300
12 0.004928
13 0.004787
14 0.004568
15 0.004333
16 0.003540
17 0.003006
18 0.002727
19 0.002562
20 0.002680
21 0.002997
22 0.002840
23 0.002620
24 0.002406
25 0.002082
26 0.001408
27 0.001441
28 0.001405
29 0.001271
30 0.001150
31 0.001141
32 0.001171
33 0.001094
34 0.000997
35 0.000986
36 0.000916
37 0.000750
38 0.000462
39 0.000810
40 0.001229
41 0.001433
42 0.001813
43 0.002223
44 0.002100
45 0.002257
46 0.002263
47 0.002628
48 0.002856
49 0.002695
50 0.002517
51 0.002431
52 0.002077
53 0.001710
54 0.001414
55 0.001351
56 0.001172
57 0.000855
58 0.000456
59 0.000377
60 0.000634
61 0.000899
62 0.001110
63 0.001286
64 0.001363
65 0.001316
66 0.001361
67 0.001433
68 0.001253
69 0.001225
70 0.001546
71 0.001838
72 0.001951
73 0.001882
74 0.001947
75 0.002057
76 0.002060
77 0.001878
78 0.001695
79 0.001458
80 0.001494
81 0.001312
82 0.000846
83 0.001050
84 0.001276
85 0.001471
86 0.001196
87 0.000917
88 0.000988
89 0.000993
90 0.000985
91 0.001070
92 0.000947
93 0.000757
94 0.000703
95 0.000709
96 0.000840
97 0.000826
98 0.001122
99 0.001404
100 0.001387
101 0.001538
102 0.001806
103 0.002039
104 0.002066
105 0.001718
106 0.001592
107 0.001281
108 0.001127
109 0.000868
110 0.000709
111 0.000398
112 0.000244
113 0.000074
114 -0.000306
115 -0.000947
116 -0.001199
117 -0.001241
118 -0.001385
119 -0.001230
120 -0.001138
121 -0.001018
122 -0.001025
123 -0.000738
124 -0.000651
125 -0.000724
126 -0.000641
127 -0.000712
128 -0.000807
129 -0.001387
130 -0.001888
131 -0.001849
132 -0.001803
133 -0.001576
134 -0.001313
135 -0.001353
136 -0.001166
137 -0.001196
138 -0.001209
139 -0.001041
140 -0.000572
141 -0.000058
142 0.000217
143 0.000371
144 0.000541
145 0.000710
146 0.001120
147 0.001415
148 0.001709
149 0.001888
150 0.001957
151 0.001941
152 0.001832
153 0.001703
154 0.001597
155 0.001808
156 0.001808
157 0.001577
158 0.001290
159 0.000773
160 0.000323
161 0.000112
162 -0.000230
163 -0.000481
164 -0.000392
165 -0.000388
166 -0.000423
167 -0.000535
168 -0.000337
169 -0.000200
170 -0.000281
171 -0.000179
172 -0.000058
173 0.000321
174 0.000484
175 0.000525
176 0.000797
177 0.000920
178 0.000746
179 0.000909
180 0.000969
181 0.001080
182 0.001189
183 0.001563
184 0.001707
185 0.001565
186 0.001496
187 0.001628
188 0.001582
189 0.001608
190 0.001275
191 0.000990
192 0.000605
193 0.000550
194 0.000656
195 0.000812
196 0.000958
197 0.001264
198 0.001103
199 0.000759
200 0.000588
201 0.000477
202 0.000049
203 -0.000538
204 -0.001017
205 -0.001372
206 -0.001546
207 -0.001404
208 -0.001240
209 -0.001292
210 -0.001656
211 -0.001632
212 -0.001277
213 -0.001478
214 -0.001689
215 -0.001933
216 -0.001950
217 -0.001919
218 -0.001717
219 -0.001412
220 -0.001056
221 -0.001032
222 -0.000674
223 -0.000642
224 -0.000679
225 -0.000549
226 -0.000245
227 -0.000205
228 -0.000148
229 0.000330
230 0.000945
231 0.001182
232 0.001258
233 0.001071
234 0.000705
235 0.000571
236 0.000520
237 0.000262
238 -0.000251
239 -0.000437
240 -0.000266
241 0.000002
242 0.000331
243 0.000830
244 0.001383
245 0.001540
246 0.001351
247 0.001400
248 0.001358
249 0.001164
250 0.001046
251 0.000874
252 0.000542
253 0.000212
254 0.000202
255 0.000302
256 0.000374
257 0.000722
258 0.000818
259 0.001014
260 0.001271
261 0.001127
262 0.001135
263 0.001239
264 0.000997
265 0.000828
266 0.000434
267 0.000129
268 -0.000143
269 -0.000097
270 -0.000067
271 -0.000250
272 -0.000138
273 -0.000131
274 0.000039
275 0.000247
276 0.000361
277 0.000700
278 0.001084
279 0.001146
280 0.001358
281 0.001191
282 0.001211
283 0.001236
284 0.001151
285 0.001252
286 0.001323
287 0.001424
288 0.001251
289 0.000980
290 0.000981
291 0.000997
292 0.001119
293 0.001174
294 0.000818
295 0.000592
296 0.000482
297 0.000602
298 0.000365
299 0.000272
300 0.000125
301 -0.000099
302 -0.000216
303 -0.000426
304 -0.000586
305 -0.000718
306 -0.000798
307 -0.000753
308 -0.001006
309 -0.001523
310 -0.001677
311 -0.001773
312 -0.002030
313 -0.002437
314 -0.002566
315 -0.002999
316 -0.003378
317 -0.003529
318 -0.003531
319 -0.003385
320 -0.003054
321 -0.002652
322 -0.002058
323 -0.001491
324 -0.001239
325 -0.001107
326 -0.000898
327 -0.000578
328 -0.000485
329 -0.000212
330 -0.000206
331 -0.000038
332 0.000122
333 0.000349
334 0.000644
335 0.000911
336 0.000898
337 0.000861
338 0.000822
339 0.000763
340 0.000660
341 0.000468
342 0.000471
343 0.000408
344 0.000308
345 0.000219
346 0.000248
347 0.000267
348 0.000252
349 0.000284
350 0.000479
351 0.000534
352 0.000338
353 0.000344
354 0.000317
355 0.000175
356 -0.000049
357 -0.000199
358 -0.000239
359 -0.000444
360 -0.000692
361 -0.001012
362 -0.001182
363 -0.001162
364 -0.001353
365 -0.001689
366 -0.001700
367 -0.001714
368 -0.001636
369 -0.001614
370 -0.001393
371 -0.001215
372 -0.001295
373 -0.001088
374 -0.001151
375 -0.001319
376 -0.001149
377 -0.000949
378 -0.000661
379 -0.000564
380 -0.000382
381 -0.000245
382 -0.000023
383 0.000131
384 0.000249
385 0.000342
386 0.000327
387 0.000198
388 0.000151
389 -0.000161
390 -0.000276
391 -0.000098
392 -0.000257
393 -0.000372
394 -0.000294
395 -0.000355
396 -0.000373
397 -0.000079
398 0.000161
399 0.000290
400 0.000271
401 0.000419
402 0.000472
403 0.000771
404 0.000580
405 0.000536
406 0.000628
407 0.000724
408 0.000868
409 0.000997
410 0.000919
411 0.000709
412 0.000595
413 0.000665
414 0.000661
415 0.000497
416 0.000459
417 0.000319
418 0.000464
419 0.000357
420 0.000286
421 0.000405
422 0.000348
423 0.000515
424 0.000879
425 0.001149
426 0.001370
427 0.001589
428 0.001660
429 0.001606
430 0.001891
431 0.002472
432 0.002662
433 0.002827
434 0.002994
435 0.002818
436 0.002655
437 0.002581
438 0.002652
439 0.002388
440 0.002213
441 0.001925
442 0.001883
443 0.001850
444 0.001800
445 0.001792
446 0.001880
447 0.001676
448 0.001878
449 0.001847
450 0.001728
451 0.001675
452 0.001577
453 0.001362
454 0.001320
455 0.001205
456 0.001120
457 0.001013
458 0.000893
459 0.000839
460 0.000544
461 0.000344
462 0.000058
463 0.000010
464 -0.000243
465 -0.000387
466 -0.000331
467 -0.000334
468 -0.000406
469 -0.000182
470 -0.000125
471 -0.000027
472 0.000047
473 0.000237
474 0.000467
475 0.000667
476 0.000677
477 0.000785
478 0.000699
479 0.000944
480 0.001155
481 0.001339
482 0.001346
483 0.001206
484 0.001073
485 0.000939
486 0.000929
487 0.000833
488 0.000712
489 0.000618
490 0.000588
491 0.000620
492 0.000673
493 0.000559
494 0.000492
495 0.000255
496 0.000043
497 -0.000317
498 -0.000506
499 -0.000399
500 -0.000151
501 -0.000077
502 0.000151
503 0.000139
504 0.000139
505 0.000221
506 0.000418
507 0.000771
508 0.001099
509 0.001210
510 0.001312
511 0.001419
512 0.001333
513 0.001274
514 0.001193
515 0.001055
516 0.000899
517 0.000683
518 0.000467
519 0.000598
520 0.000773
521 0.000979
522 0.001290
523 0.001627
524 0.001652
525 0.001451
526 0.001298
527 0.001219
528 0.001182
529 0.001200
530 0.001240
531 0.001376
532 0.001398
533 0.001496
534 0.001843
535 0.002216
536 0.002324
537 0.002164
538 0.001841
539 0.001468
540 0.000989
541 0.000651
542 0.000384
543 0.000191
544 0.000220
545 -0.000018
546 -0.000200
547 -0.000287
548 -0.000488
549 -0.000607
550 -0.000513
551 -0.000511
552 -0.000476
553 -0.000434
554 -0.000280
555 -0.000129
556 0.000028
557 0.000078
558 0.000004
559 -0.000022
560 -0.000211
561 -0.000606
562 -0.000864
563 -0.001005
564 -0.001115
565 -0.001124
566 -0.001175
567 -0.001189
568 -0.001340
569 -0.001409
570 -0.001235
571 -0.001006
572 -0.000917
573 -0.000875
574 -0.000641
575 -0.000361
576 -0.000347
577 -0.000233
578 -0.000088
579 0.000106
580 0.000356
581 0.000530
582 0.000735
583 0.000955
584 0.001118
585 0.001214
586 0.001377
587 0.001396
588 0.001173
589 0.000948
590 0.000867
591 0.000776
592 0.000746
593 0.000643
594 0.000682
595 0.000606
596 0.000600
597 0.000546
598 0.000724
599 0.001049
600 0.001236
601 0.001322
602 0.001416
603 0.001394
604 0.001434
605 0.001442
606 0.001415
607 0.001459
608 0.001423
609 0.001337
610 0.001113
611 0.001000
612 0.000783
613 0.000650
614 0.000805
615 0.001037
616 0.000944
617 0.000852
618 0.000718
619 0.000634
620 0.000673
621 0.000709
622 0.000750
623 0.000702
624 0.000582
625 0.000718
626 0.000867
627 0.001175
628 0.001244
629 0.001259
630 0.001280
631 0.001084
632 0.000910
633 0.000887
634 0.000869
635 0.000776
636 0.000697
637 0.000423
638 0.000221
639 0.000104
640 0.000001
641 0.000080
642 0.000150
643 0.000334
644 0.000342
645 0.000164
646 0.000119
647 0.000127
648 0.000064
649 0.000059
650 0.000117
651 0.000076
652 -0.000262
653 -0.000618
654 -0.000687
655 -0.000669
656 -0.000426
657 -0.000024
658 0.000236
659 0.000226
660 0.000238
661 0.000232
662 0.000271
663 0.000415
664 0.000570
665 0.000562
666 0.000665
667 0.000726
668 0.000899
669 0.001010
670 0.001245
671 0.001426
672 0.001431
673 0.001363
674 0.001258
675 0.001292
676 0.001310
677 0.001484
678 0.001691
679 0.001671
680 0.001623
681 0.001710
682 0.001732
683 0.001752
684 0.001745
685 0.001608
686 0.001493
687 0.001503
688 0.001529
689 0.001675
690 0.001700
691 0.001757
692 0.001696
693 0.001657
694 0.001605
695 0.001482
696 0.001366
697 0.001179
698 0.001137
699 0.001169
700 0.001144
701 0.001072
702 0.000986
703 0.000944
704 0.000827
705 0.000839
706 0.000757
707 0.000521
708 0.000502
709 0.000465
710 0.000506
711 0.000750
712 0.000876
713 0.000908
714 0.000952
715 0.000852
716 0.000692
717 0.000601
718 0.000521
719 0.000501
720 0.000475
721 0.000484
722 0.000377
723 0.000350
724 0.000274
725 0.000220
726 0.000217
727 0.000094
728 0.000028
729 -0.000045
730 -0.000093
731 -0.000042
732 0.000189
733 0.000330
734 0.000379
735 0.000492
736 0.000496
737 0.000362
738 0.000131
739 0.000006
740 -0.000156
741 -0.000202
742 -0.000123
743 -0.000163
744 -0.000130
745 -0.000193
746 -0.000265
747 -0.000348
748 -0.000436
749 -0.000600
750 -0.000718
751 -0.000690
752 -0.000741
753 -0.000651
754 -0.000489
755 -0.000363
756 -0.000212
757 -0.000249
758 -0.000331
759 -0.000504
760 -0.000574
761 -0.000675
762 -0.000644
763 -0.000623
764 -0.000631
765 -0.000628
766 -0.000547
767 -0.000420
768 -0.000452
769 -0.000541
770 -0.000608
771 -0.000567
772 -0.000522
773 -0.000488
774 -0.000491
775 -0.000495
776 -0.000460
777 -0.000405
778 -0.000383
779 -0.000442
780 -0.000606
781 -0.000747
782 -0.000834
783 -0.000773
784 -0.000764
785 -0.000726
786 -0.000759
787 -0.000768
788 -0.000777
789 -0.000822
790 -0.000924
791 -0.000857
792 -0.000869
793 -0.000926
794 -0.000863
795 -0.000879
796 -0.000883
797 -0.000835
798 -0.000839
799 -0.000870
800 -0.000974
801 -0.000973
802 -0.000998
803 -0.001088
804 -0.001081
805 -0.001155
806 -0.001127
807 -0.001133
808 -0.001155
809 -0.001253
