# i correlation
1 0.016787
2 0.013837
3 0.011487
4 0.009364
5 0.007428
6 0.006024
7 0.005046
8 0.004210
9 0.003440
10 0.002836
11 0.002488
12 0.002351
13 0.002020
14 0.001895
15 0.001942
16 0.001758
17 0.001755
18 0.002183
19 0.002473
20 0.002770
21 0.002798
22 0.002979
23 0.003218
24 0.003329
25 0.002910
26 0.002605
27 0.002554
28 0.002443
29 0.002564
30 0.002664
31 0.002502
32 0.002221
33 0.001951
34 0.001846
35 0.001882
36 0.001937
37 0.001998
38 0.002144
39 0.001777
40 0.001223
41 0.001010
42 0.000947
43 0.000659
44 0.000603
45 0.000576
46 0.000430
47 0.000312
48 0.000209
49 0.000040
50 -0.000094
51 0.000154
52 0.000211
53 0.000669
54 0.001014
55 0.001531
56 0.001459
57 0.001602
58 0.001811
59 0.001990
60 0.002041
61 0.002257
62 0.002295
63 0.001817
64 0.001279
65 0.000621
66 0.000104
67 -0.000201
68 -0.000323
69 -0.000623
70 -0.000582
71 -0.000444
72 -0.000436
73 -0.000296
74 -0.000190
75 -0.000010
76 -0.000089
77 -0.000007
78 0.000068
79 0.000063
80 0.000187
81 0.000292
82 0.000500
83 0.000643
84 0.001012
85 0.001287
86 0.001326
87 0.000933
88 0.000805
89 0.001029
90 0.001042
91 0.000727
92 0.000597
93 0.000676
94 0.000452
95 0.000236
96 0.000234
97 0.000429
98 0.000410
99 0.000196
100 0.000057
101 -0.000231
102 -0.000790
103 -0.001058
104 -0.000932
105 -0.000571
106 -0.000329
107 -0.000183
108 0.000177
109 0.000530
110 0.000717
111 0.000649
112 0.000854
113 0.001048
114 0.001129
115 0.001277
116 0.001224
117 0.001247
118 0.001475
119 0.001868
120 0.002181
121 0.002226
122 0.002355
123 0.002458
124 0.002532
125 0.002416
126 0.002309
127 0.002127
128 0.001828
129 0.001157
130 0.000512
131 -0.000060
132 -0.000247
133 -0.000635
134 -0.001050
135 -0.001242
136 -0.001474
137 -0.001357
138 -0.001127
139 -0.000796
140 -0.000997
141 -0.001121
142 -0.000840
143 -0.000643
144 -0.000437
145 -0.000650
146 -0.000988
147 -0.001207
148 -0.001200
149 -0.001214
150 -0.000887
151 -0.000648
152 -0.000435
153 -0.000742
154 -0.000755
155 -0.000807
156 -0.000624
157 -0.000485
158 -0.000458
159 -0.000449
160 -0.000477
161 -0.000427
162 -0.000161
163 -0.000144
164 -0.000439
165 -0.000787
166 -0.001098
167 -0.001506
168 -0.001629
169 -0.001635
170 -0.001711
171 -0.001684
172 -0.001760
173 -0.001911
174 -0.001845
175 -0.001734
176 -0.001717
177 -0.001517
178 -0.001668
179 -0.001632
180 -0.001346
181 -0.001404
182 -0.001671
183 -0.001912
184 -0.002279
185 -0.002098
186 -0.001730
187 -0.001524
188 -0.001243
189 -0.000649
190 -0.000185
191 -0.000126
192 0.000039
193 0.000104
194 0.000056
195 0.000101
196 0.000072
197 0.000159
198 0.000308
199 0.000357
200 0.000299
201 -0.000025
202 -0.000415
203 -0.000420
204 -0.000447
205 -0.000478
206 -0.000712
207 -0.000767
208 -0.001091
209 -0.001482
210 -0.001526
211 -0.001372
212 -0.001164
213 -0.000871
214 -0.000875
215 -0.000921
216 -0.000759
217 -0.000600
218 -0.000555
219 -0.000701
220 -0.000648
221 -0.000747
222 -0.000829
223 -0.000842
224 -0.000920
225 -0.001010
226 -0.001249
227 -0.001237
228 -0.001344
229 -0.001744
230 -0.002081
231 -0.002237
232 -0.002365
233 -0.002491
234 -0.002171
235 -0.001619
236 -0.000875
237 -0.000365
238 0.000080
239 0.000114
240 0.000120
241 0.000283
242 0.000485
243 0.000618
244 0.000400
245 0.000217
246 0.000067
247 -0.000014
248 -0.000227
249 -0.000386
250 -0.000239
251 -0.000194
252 -0.000034
253 -0.000154
254 -0.000326
255 -0.000517
256 -0.001158
257 -0.001728
258 -0.001985
259 -0.002082
260 -0.001983
261 -0.001653
262 -0.001426
263 -0.001511
264 -0.001166
265 -0.000671
266 -0.000192
267 0.000061
268 -0.000302
269 -0.000637
270 -0.000782
271 -0.000990
272 -0.000965
273 -0.000746
274 -0.000429
275 -0.000128
276 -0.000149
277 -0.000165
278 -0.000201
279 -0.000314
280 -0.000297
281 -0.000228
282 -0.000018
283 0.000056
284 0.000187
285 0.000332
286 0.000092
287 -0.000148
288 -0.000340
289 -0.000239
290 -0.000289
291 -0.000562
292 -0.000966
293 -0.000952
294 -0.000896
295 -0.000881
296 -0.000875
297 -0.000720
298 -0.000511
299 -0.000566
300 -0.000324
301 0.000136
302 0.000441
303 0.000432
304 0.000501
305 0.000422
306 0.000207
307 -0.000072
308 -0.000299
309 -0.000229
310 -0.000413
311 -0.000571
312 -0.000585
313 -0.000487
314 -0.000557
315 -0.000881
316 -0.001213
317 -0.001229
318 -0.001258
319 -0.001250
320 -0.001073
321 -0.000537
322 -0.000181
323 0.000089
324 0.000295
325 0.000671
326 0.000853
327 0.000921
328 0.000974
329 0.000807
330 0.000510
331 0.000362
332 0.000470
333 0.000507
334 0.000529
335 0.000534
336 0.000535
337 0.000254
338 -0.000408
339 -0.000780
340 -0.001052
341 -0.001332
342 -0.001437
343 -0.001277
344 -0.001105
345 -0.000988
346 -0.000836
347 -0.000679
348 -0.000524
349 -0.000552
350 -0.000520
351 -0.000439
352 -0.000416
353 -0.000534
354 -0.000799
355 -0.000734
356 -0.000650
357 -0.000338
358 -0.000308
359 0.000026
360 0.000231
361 0.000439
362 0.000769
363 0.001101
364 0.001395
365 0.001577
366 0.001845
367 0.001621
368 0.001144
369 0.000654
370 0.000488
371 0.000088
372 -0.000183
373 -0.000391
374 -0.000541
375 -0.000570
376 -0.000706
377 -0.000749
378 -0.000652
379 -0.000201
380 0.000109
381 0.000154
382 0.000162
383 0.000303
384 0.000338
385 0.000484
386 0.000535
387 0.000713
388 0.000733
389 0.000739
390 0.000926
391 0.000992
392 0.001031
393 0.001264
394 0.001653
395 0.001835
396 0.001642
397 0.001325
398 0.001351
399 0.001318
400 0.000928
401 0.000524
402 0.000437
403 0.000446
404 0.000355
405 0.000244
406 0.000302
407 0.000546
408 0.000655
409 0.000639
410 0.000782
411 0.000593
412 0.000402
413 0.000152
414 0.000342
415 0.000501
416 0.000663
417 0.001102
418 0.001477
419 0.001417
420 0.001105
421 0.001154
422 0.001067
423 0.001081
424 0.001129
425 0.001213
426 0.001278
427 0.001388
428 0.001467
429 0.001398
430 0.001256
431 0.001161
432 0.001246
433 0.001337
434 0.001396
435 0.001310
436 0.001312
437 0.001270
438 0.001223
439 0.000945
440 0.001040
441 0.001351
442 0.001372
443 0.001263
444 0.001246
445 0.001318
446 0.001279
447 0.001361
448 0.001227
449 0.000979
450 0.000925
451 0.001052
452 0.001191
453 0.001396
454 0.001606
455 0.001513
456 0.001594
457 0.001406
458 0.001124
459 0.000966
460 0.000672
461 0.000471
462 0.000375
463 0.000396
464 0.000433
465 0.000633
466 0.000775
467 0.000793
468 0.000550
469 0.000461
470 0.000432
471 0.000621
472 0.000832
473 0.000957
474 0.000817
475 0.000666
476 0.000531
477 0.000506
478 0.000783
479 0.001052
480 0.001161
481 0.001256
482 0.001184
483 0.001196
484 0.000978
485 0.001008
486 0.001009
487 0.000978
488 0.001203
489 0.001642
490 0.002074
491 0.002299
492 0.002495
493 0.002526
494 0.002175
495 0.001809
496 0.001377
497 0.000748
498 0.000338
499 -0.000077
500 -0.000292
501 -0.000415
502 -0.000426
503 -0.000147
504 -0.000086
505 0.000206
506 0.000144
507 0.000154
508 0.000257
509 0.000523
510 0.000464
511 0.000545
512 0.000555
513 0.000651
514 0.000714
515 0.000656
516 0.000641
517 0.000659
518 0.000758
519 0.000731
520 0.000739
521 0.000851
522 0.001129
523 0.001231
524 0.001345
525 0.001387
526 0.001468
527 0.001628
528 0.001521
529 0.001414
530 0.001226
531 0.000748
532 0.000315
533 0.000010
534 0.000030
535 0.000041
536 0.000005
537 -0.000067
538 -0.000156
539 -0.000174
540 -0.000236
541 -0.000245
542 -0.000093
543 -0.000048
544 -0.000073
545 -0.000081
546 0.000002
547 0.000125
548 0.000012
549 -0.000065
550 0.000096
551 0.000160
552 0.000190
553 0.000127
554 -0.000008
555 -0.000243
556 -0.000234
557 -0.000303
558 -0.000411
559 -0.000342
560 -0.000072
561 -0.000070
562 0.000015
563 -0.000119
564 -0.000036
565 -0.000007
566 0.000084
567 0.000110
568 0.000292
569 0.000356
570 0.000329
571 0.000344
572 0.000414
573 0.000628
574 0.000527
575 0.000441
576 0.000396
577 0.000352
578 0.000374
579 0.000480
580 0.000664
581 0.000482
582 0.000250
583 0.000126
584 0.000072
585 0.000047
586 0.000031
587 0.000048
588 0.000180
589 0.000339
590 0.000310
591 0.000321
592 0.000295
593 0.000109
594 -0.000113
595 -0.000171
596 -0.000334
597 -0.000320
598 -0.000067
599 -0.000127
600 -0.000179
601 -0.000115
602 -0.000089
603 -0.000183
604 -0.000221
605 -0.000258
606 -0.000376
607 -0.000438
608 -0.000651
609 -0.000939
610 -0.001064
611 -0.001201
612 -0.001388
613 -0.001385
614 -0.001379
615 -0.001099
616 -0.000933
617 -0.000824
618 -0.000735
619 -0.000768
620 -0.000941
621 -0.001071
622 -0.001106
623 -0.001106
624 -0.001240
625 -0.001213
626 -0.001347
627 -0.001320
628 -0.001181
629 -0.001078
630 -0.000963
631 -0.000926
632 -0.000937
633 -0.000999
634 -0.001046
635 -0.001104
636 -0.001064
637 -0.000963
638 -0.001070
639 -0.001165
640 -0.001201
641 -0.001219
642 -0.001184
643 -0.001272
644 -0.001180
645 -0.001172
646 -0.001112
647 -0.001110
648 -0.000986
649 -0.001048
650 -0.001093
651 -0.001176
652 -0.001225
653 -0.001192
654 -0.001157
655 -0.001176
656 -0.001322
657 -0.001236
658 -0.001235
659 -0.001141
660 -0.000928
661 -0.000866
662 -0.000847
663 -0.000984
664 -0.001152
665 -0.001375
666 -0.001529
667 -0.001667
668 -0.001604
669 -0.001356
670 -0.001227
671 -0.001120
672 -0.001034
673 -0.001017
674 -0.000927
675 -0.001061
676 -0.001136
677 -0.001099
678 -0.000902
679 -0.000641
680 -0.000384
681 -0.000171
682 -0.000035
683 0.000233
684 0.000458
685 0.000563
686 0.000592
687 0.000502
688 0.000537
689 0.000480
690 0.000452
691 0.000389
692 0.000353
693 0.000355
694 0.000142
695 0.000020
696 -0.000160
697 -0.000342
698 -0.000234
699 -0.000123
700 -0.000029
701 0.000051
702 0.000016
703 -0.000012
704 -0.000072
705 -0.000188
706 -0.000350
707 -0.000466
708 -0.000311
709 -0.000247
710 -0.000253
711 -0.000180
712 0.000055
713 0.000214
714 0.000378
715 0.000614
716 0.000893
717 0.000966
718 0.000972
719 0.001025
720 0.000954
721 0.000936
722 0.000905
723 0.000814
724 0.000516
725 0.000236
726 -0.000133
727 -0.000362
728 -0.000532
729 -0.000753
730 -0.000828
731 -0.000802
732 -0.000780
733 -0.000791
734 -0.000842
735 -0.000863
736 -0.000768
737 -0.000637
738 -0.000561
739 -0.000454
740 -0.000346
741 -0.000251
742 -0.000167
743 -0.000018
744 0.000039
745 0.000091
746 0.000135
747 0.000056
748 -0.000115
749 -0.000293
750 -0.000512
751 -0.000699
752 -0.000833
753 -0.000965
754 -0.001037
755 -0.001015
756 -0.001045
757 -0.001019
758 -0.000912
759 -0.000877
760 -0.000791
761 -0.000843
762 -0.000954
763 -0.000970
764 -0.001028
765 -0.001003
766 -0.000881
767 -0.000664
768 -0.000562
769 -0.000527
770 -0.000529
771 -0.000649
772 -0.000729
773 -0.000729
774 -0.000800
775 -0.000787
776 -0.000642
777 -0.000488
778 -0.000266
779 -0.000147
780 -0.000037
781 -0.000031
782 -0.000177
783 -0.000237
784 -0.000299
785 -0.000433
786 -0.000512
787 -0.000426
788 -0.000323
789 -0.000218
790 -0.000032
791 0.000163
792 0.000277
793 0.000355
794 0.000469
795 0.000389
796 0.000342
797 0.000360
798 0.000362
799 0.000370
800 0.000350
801 0.000241
802 0.000184
803 0.000079
804 0.000081
805 0.000000
806 -0.000068
807 -0.000041
808 0.000013
809 0.000003
