# i correlation
1 0.014222
2 0.011625
3 0.009715
4 0.008326
5 0.007112
6 0.006276
7 0.005207
8 0.004768
9 0.004243
10 0.003817
11 0.003394
12 0.003099
13 0.002724
14 0.002572
15 0.002047
16 0.001335
17 0.000904
18 0.000694
19 0.000718
20 0.000740
21 0.000392
22 0.000484
23 0.000537
24 0.000719
25 0.000916
26 0.001047
27 0.001130
28 0.002044
29 0.002492
30 0.002463
31 0.002528
32 0.002700
33 0.002919
34 0.003267
35 0.003322
36 0.003266
37 0.003112
38 0.003108
39 0.002931
40 0.002419
41 0.001967
42 0.001751
43 0.001599
44 0.001510
45 0.001118
46 0.000532
47 -0.000132
48 -0.000497
49 -0.000880
50 -0.000794
51 -0.000747
52 -0.000674
53 -0.000840
54 -0.000979
55 -0.001351
56 -0.001257
57 -0.001210
58 -0.001300
59 -0.001440
60 -0.001461
61 -0.001733
62 -0.001835
63 -0.001917
64 -0.002020
65 -0.002134
66 -0.001805
67 -0.001257
68 -0.000783
69 -0.000337
70 0.000435
71 0.001087
72 0.001634
73 0.001825
74 0.002181
75 0.002225
76 0.002215
77 0.001888
78 0.001626
79 0.001607
80 0.002110
81 0.002328
82 0.002301
83 0.001858
84 0.001488
85 0.001633
86 0.001919
87 0.001853
88 0.001553
89 0.001131
90 0.000902
91 0.000658
92 0.000573
93 0.000282
94 0.000172
95 0.000319
96 0.000627
97 0.000420
98 0.000334
99 0.000241
100 0.000531
101 0.000574
102 0.000875
103 0.001057
104 0.001261
105 0.001534
106 0.001714
107 0.001900
108 0.002187
109 0.002257
110 0.002536
111 0.002621
112 0.002197
113 0.002086
114 0.002207
115 0.002378
116 0.002592
117 0.002560
118 0.002542
119 0.002673
120 0.003166
121 0.002977
122 0.002863
123 0.002614
124 0.002544
125 0.002537
126 0.002346
127 0.001992
128 0.001847
129 0.001678
130 0.001683
131 0.001817
132 0.001613
133 0.001498
134 0.001319
135 0.001038
136 0.000864
137 0.000699
138 0.000685
139 0.001002
140 0.001223
141 0.001252
142 0.001482
143 0.001451
144 0.001580
145 0.001436
146 0.001268
147 0.000990
148 0.000943
149 0.000969
150 0.001205
151 0.001256
152 0.001360
153 0.001703
154 0.002056
155 0.002153
156 0.002317
157 0.002628
158 0.002851
159 0.002910
160 0.002761
161 0.002669
162 0.002544
163 0.002301
164 0.001763
165 0.001160
166 0.000968
167 0.000960
168 0.000924
169 0.000770
170 0.000585
171 0.000350
172 0.000190
173 -0.000092
174 -0.000298
175 -0.000319
176 -0.000227
177 -0.000006
178 0.000045
179 -0.000358
180 -0.000590
181 -0.000861
182 -0.000855
183 -0.000916
184 -0.000982
185 -0.001029
186 -0.000872
187 -0.000650
188 -0.000217
189 0.000121
190 0.000596
191 0.001027
192 0.001443
193 0.001487
194 0.001633
195 0.001913
196 0.002302
197 0.002205
198 0.001963
199 0.001897
200 0.001966
201 0.002065
202 0.001848
203 0.001612
204 0.000919
205 0.000573
206 0.000452
207 0.000333
208 -0.000003
209 0.000161
210 0.000381
211 0.000687
212 0.000791
213 0.000939
214 0.000857
215 0.000747
216 0.000774
217 0.000394
218 0.000320
219 0.000020
220 0.000060
221 0.000163
222 0.000392
223 0.000338
224 0.000556
225 0.000809
226 0.001001
227 0.001005
228 0.001321
229 0.001822
230 0.002347
231 0.002629
232 0.002900
233 0.003004
234 0.003035
235 0.002827
236 0.002767
237 0.002630
238 0.002461
239 0.002264
240 0.002146
241 0.001920
242 0.001924
243 0.001412
244 0.001444
245 0.001288
246 0.001148
247 0.001114
248 0.001002
249 0.000738
250 0.000389
251 -0.000035
252 -0.000258
253 -0.000389
254 -0.000590
255 -0.000768
256 -0.000910
257 -0.000905
258 -0.000907
259 -0.000937
260 -0.001198
261 -0.001202
262 -0.001160
263 -0.001038
264 -0.000697
265 -0.000367
266 -0.000279
267 -0.000111
268 0.000179
269 0.000344
270 0.000619
271 0.000529
272 0.000297
273 0.000289
274 0.000174
275 0.000232
276 0.000409
277 0.000435
278 0.000306
279 0.000082
280 -0.000189
281 -0.000232
282 -0.000130
283 0.000005
284 -0.000119
285 -0.000444
286 -0.000707
287 -0.000764
288 -0.000751
289 -0.000925
290 -0.001275
291 -0.001580
292 -0.001279
293 -0.001033
294 -0.001112
295 -0.001272
296 -0.001088
297 -0.001068
298 -0.000976
299 -0.001020
300 -0.001116
301 -0.001334
302 -0.001114
303 -0.000660
304 -0.000342
305 -0.000138
306 0.000114
307 0.000494
308 0.000854
309 0.000861
310 0.000724
311 0.000895
312 0.000903
313 0.000809
314 0.000609
315 0.000538
316 0.000571
317 0.000430
318 0.000387
319 0.000351
320 0.000557
321 0.000675
322 0.000778
323 0.000455
324 0.000163
325 -0.000162
326 -0.000418
327 -0.000365
328 -0.000291
329 -0.000251
330 -0.000327
331 -0.000375
332 -0.000233
333 -0.000026
334 0.000409
335 0.000683
336 0.000973
337 0.000987
338 0.000841
339 0.000622
340 0.000455
341 0.000264
342 0.000232
343 0.000090
344 0.000007
345 0.000011
346 0.000045
347 0.000115
348 0.000011
349 0.000280
350 0.000652
351 0.000694
352 0.000875
353 0.001056
354 0.000798
355 0.000659
356 0.000578
357 0.000458
358 0.000284
359 0.000371
360 0.000316
361 0.000030
362 0.000046
363 0.000101
364 0.000230
365 0.000327
366 0.000260
367 0.000281
368 0.000424
369 0.000283
370 0.000226
371 0.000006
372 -0.000071
373 0.000046
374 0.000145
375 0.000078
376 -0.000136
377 -0.000472
378 -0.000282
379 0.000077
380 0.000211
381 0.000315
382 0.000345
383 0.000154
384 0.000257
385 0.000317
386 0.000241
387 0.000324
388 0.000683
389 0.000896
390 0.000974
391 0.001132
392 0.001295
393 0.001367
394 0.001145
395 0.000988
396 0.000935
397 0.000654
398 0.000502
399 0.000621
400 0.000625
401 0.000528
402 0.000403
403 0.000600
404 0.000806
405 0.000703
406 0.000644
407 0.000728
408 0.000781
409 0.001001
410 0.001267
411 0.001104
412 0.001054
413 0.000824
414 0.000624
415 0.000277
416 0.000047
417 -0.000171
418 -0.000420
419 -0.000712
420 -0.000841
421 -0.000808
422 -0.000649
423 -0.000416
424 0.000020
425 0.000147
426 0.000179
427 0.000160
428 -0.000092
429 -0.000299
430 -0.000603
431 -0.000605
432 -0.000532
433 -0.000405
434 -0.000362
435 -0.000369
436 -0.000192
437 0.000063
438 0.000290
439 0.000461
440 0.000471
441 0.000193
442 0.000172
443 0.000044
444 -0.000104
445 -0.000229
446 -0.000367
447 -0.000454
448 -0.000599
449 -0.000780
450 -0.000892
451 -0.001024
452 -0.001177
453 -0.001269
454 -0.001176
455 -0.001043
456 -0.000988
457 -0.001155
458 -0.001324
459 -0.001332
460 -0.000954
461 -0.000745
462 -0.000521
463 -0.000583
464 -0.000304
465 -0.000081
466 0.000266
467 0.000411
468 0.000471
469 0.000312
470 0.000458
471 0.000467
472 0.000440
473 0.000543
474 0.000698
475 0.000542
476 0.000479
477 0.000286
478 0.000377
479 0.000639
480 0.000737
481 0.000695
482 0.000793
483 0.000712
484 0.000821
485 0.000758
486 0.000596
487 0.000166
488 -0.000148
489 -0.000449
490 -0.000577
491 -0.000645
492 -0.000664
493 -0.000460
494 -0.000207
495 0.000063
496 0.000388
497 0.000378
498 0.000560
499 0.001040
500 0.001030
501 0.000704
502 0.000352
503 0.000163
504 0.000251
505 0.000351
506 0.000422
507 0.000573
508 0.000813
509 0.000947
510 0.001175
511 0.001111
512 0.001345
513 0.001562
514 0.001635
515 0.001276
516 0.000966
517 0.000536
518 0.000453
519 0.000164
520 -0.000038
521 -0.000224
522 -0.000257
523 -0.000265
524 -0.000182
525 -0.000329
526 -0.000483
527 -0.000552
528 -0.000666
529 -0.000728
530 -0.000591
531 -0.000613
532 -0.000495
533 -0.000484
534 -0.000449
535 -0.000381
536 -0.000258
537 -0.000228
538 -0.000132
539 -0.000419
540 -0.000336
541 -0.000028
542 0.000277
543 0.000360
544 0.000566
545 0.000626
546 0.000751
547 0.000767
548 0.000747
549 0.000720
550 0.000813
551 0.000827
552 0.001111
553 0.001286
554 0.001304
555 0.001203
556 0.001232
557 0.001109
558 0.000907
559 0.000787
560 0.000803
561 0.000577
562 0.000553
563 0.000363
564 0.000360
565 0.000372
566 0.000651
567 0.000692
568 0.000847
569 0.000979
570 0.000925
571 0.000779
572 0.000637
573 0.000399
574 0.000325
575 0.000462
576 0.000610
577 0.000560
578 0.000363
579 0.000374
580 0.000653
581 0.001234
582 0.001464
583 0.001349
584 0.001365
585 0.001382
586 0.001367
587 0.001259
588 0.001175
589 0.001102
590 0.001124
591 0.001100
592 0.001066
593 0.001011
594 0.001094
595 0.001226
596 0.001108
597 0.000783
598 0.000484
599 0.000268
600 0.000257
601 0.000367
602 0.000381
603 0.000347
604 0.000641
605 0.000756
606 0.000835
607 0.000652
608 0.000391
609 0.000245
610 0.000317
611 0.000240
612 0.000172
613 0.000095
614 0.000227
615 0.000376
616 0.000369
617 0.000280
618 0.000425
619 0.000437
620 0.000539
621 0.000461
622 0.000335
623 0.000445
624 0.000653
625 0.000680
626 0.000674
627 0.000521
628 0.000456
629 0.000425
630 0.000292
631 -0.000016
632 0.000005
633 0.000213
634 0.000328
635 0.000292
636 0.000377
637 0.000457
638 0.000489
639 0.000452
640 0.000547
641 0.000412
642 0.000356
643 0.000494
644 0.000462
645 0.000364
646 0.000302
647 0.000118
648 0.000061
649 0.000016
650 -0.000196
651 -0.000452
652 -0.000455
653 -0.000597
654 -0.000665
655 -0.000667
656 -0.000608
657 -0.000466
658 -0.000340
659 -0.000575
660 -0.000736
661 -0.000770
662 -0.000606
663 -0.000467
664 -0.000477
665 -0.000451
666 -0.000366
667 -0.000206
668 0.000047
669 0.000074
670 -0.000041
671 0.000025
672 0.000116
673 0.000145
674 0.000171
675 0.000035
676 0.000087
677 0.000304
678 0.000356
679 0.000329
680 0.000307
681 0.000267
682 0.000179
683 -0.000113
684 -0.000254
685 -0.000360
686 -0.000360
687 -0.000363
688 -0.000282
689 -0.000221
690 -0.000199
691 -0.000082
692 0.000070
693 0.000131
694 0.000172
695 0.000234
696 0.000537
697 0.000764
698 0.000877
699 0.001007
700 0.001120
701 0.001109
702 0.001184
703 0.001137
704 0.001208
705 0.001257
706 0.001415
707 0.001502
708 0.001695
709 0.001905
710 0.002107
711 0.002150
712 0.002213
713 0.002186
714 0.002133
715 0.001986
716 0.001777
717 0.001585
718 0.001486
719 0.001322
720 0.001188
721 0.001113
722 0.001030
723 0.001046
724 0.001094
725 0.001086
726 0.001084
727 0.000919
728 0.000849
729 0.000872
730 0.000865
731 0.000873
732 0.001008
733 0.001025
734 0.001042
735 0.001054
736 0.001025
737 0.001006
738 0.000982
739 0.000883
740 0.000779
741 0.000737
742 0.000776
743 0.000997
744 0.001189
745 0.001138
746 0.001090
747 0.000977
748 0.000932
749 0.000889
750 0.000756
751 0.000641
752 0.000649
753 0.000721
754 0.000691
755 0.000530
756 0.000415
757 0.000283
758 0.000223
759 0.000225
760 0.000152
761 -0.000050
762 -0.000091
763 -0.000108
764 -0.000155
765 -0.000190
766 -0.000194
767 -0.000214
768 -0.000207
769 -0.000245
770 -0.000292
771 -0.000298
772 -0.000251
773 -0.000173
774 -0.000050
775 -0.000000
776 0.000015
777 0.000045
778 0.000015
779 -0.000082
780 -0.000134
781 -0.000207
782 -0.000123
783 -0.000177
784 -0.000186
785 -0.000244
786 -0.000247
787 -0.000128
788 0.000163
789 0.000300
790 0.000352
791 0.000420
792 0.000460
793 0.000490
794 0.000551
795 0.000506
796 0.000447
797 0.000357
798 0.000265
799 0.000218
800 0.000220
801 0.000220
802 0.000345
803 0.000453
804 0.000524
805 0.000597
806 0.000733
807 0.000772
808 0.000675
809 0.000561
