# i correlation
1 0.017308
2 0.014361
3 0.011728
4 0.009668
5 0.007978
6 0.006438
7 0.005286
8 0.004264
9 0.003440
10 0.002697
11 0.002176
12 0.001483
13 0.000898
14 0.000174
15 -0.000164
16 -0.000121
17 0.000191
18 0.000367
19 0.000380
20 0.000442
21 0.000862
22 0.001190
23 0.001253
24 0.001231
25 0.001060
26 0.001104
27 0.001313
28 0.001594
29 0.001661
30 0.001466
31 0.001123
32 0.000909
33 0.000879
34 0.001065
35 0.000961
36 0.000501
37 0.000097
38 -0.000294
39 -0.000921
40 -0.001659
41 -0.002209
42 -0.002821
43 -0.002991
44 -0.002889
45 -0.002789
46 -0.002363
47 -0.001856
48 -0.001495
49 -0.001172
50 -0.000822
51 -0.000357
52 0.000102
53 0.000167
54 0.000233
55 0.000329
56 0.000565
57 0.000525
58 0.000293
59 0.000335
60 0.000600
61 0.000567
62 0.000452
63 0.000353
64 0.000421
65 0.000349
66 0.000205
67 0.000334
68 0.000406
69 0.000552
70 0.000526
71 0.000482
72 0.000486
73 0.000403
74 0.000278
75 0.000355
76 0.000506
77 0.000436
78 0.000189
79 -0.000243
80 -0.000423
81 -0.000486
82 -0.000544
83 -0.000533
84 -0.000602
85 -0.000228
86 0.000090
87 0.000408
88 0.000582
89 0.000647
90 0.000378
91 -0.000317
92 -0.000964
93 -0.001418
94 -0.001641
95 -0.001754
96 -0.001962
97 -0.002285
98 -0.002254
99 -0.002202
100 -0.001990
101 -0.001729
102 -0.001574
103 -0.001062
104 -0.000924
105 -0.000561
106 -0.000352
107 -0.000330
108 -0.000431
109 -0.000430
110 -0.000699
111 -0.001082
112 -0.001741
113 -0.001937
114 -0.002158
115 -0.001968
116 -0.001550
117 -0.001287
118 -0.001046
119 -0.001206
120 -0.001232
121 -0.001105
122 -0.000798
123 -0.000695
124 -0.000297
125 -0.000216
126 -0.000562
127 -0.000380
128 -0.000150
129 0.000139
130 -0.000205
131 -0.000364
132 -0.000322
133 -0.000134
134 0.000037
135 0.000168
136 0.000529
137 0.000803
138 0.000827
139 0.000782
140 0.000852
141 0.000804
142 0.000788
143 0.000600
144 0.000352
145 0.000309
146 0.000487
147 0.000456
148 0.000315
149 0.000134
150 0.000082
151 -0.000147
152 -0.000204
153 -0.000109
154 -0.000027
155 0.000041
156 0.000144
157 0.000264
158 0.000317
159 0.000335
160 0.000144
161 -0.000052
162 -0.000065
163 -0.000142
164 -0.000679
165 -0.001259
166 -0.001547
167 -0.002024
168 -0.002261
169 -0.002577
170 -0.002585
171 -0.002499
172 -0.002573
173 -0.002306
174 -0.002172
175 -0.001824
176 -0.001647
177 -0.001417
178 -0.001193
179 -0.001083
180 -0.000878
181 -0.000401
182 -0.000149
183 0.000310
184 0.000697
185 0.000769
186 0.000543
187 0.000367
188 0.000069
189 -0.000013
190 -0.000030
191 0.000095
192 0.000586
193 0.001065
194 0.001457
195 0.001497
196 0.001614
197 0.001753
198 0.002215
199 0.002337
200 0.002619
201 0.002745
202 0.002730
203 0.002730
204 0.002824
205 0.003103
206 0.003377
207 0.003504
208 0.003369
209 0.003176
210 0.003135
211 0.003437
212 0.003783
213 0.003889
214 0.003779
215 0.003443
216 0.003201
217 0.002933
218 0.002583
219 0.002318
220 0.001777
221 0.001188
222 0.000911
223 0.001029
224 0.000901
225 0.000946
226 0.000652
227 0.000578
228 0.000652
229 0.000649
230 0.000623
231 0.000598
232 0.000288
233 0.000294
234 0.000310
235 0.000357
236 0.000292
237 0.000314
238 0.000366
239 0.000301
240 0.000218
241 0.000143
242 0.000042
243 -0.000388
244 -0.000702
245 -0.000877
246 -0.000713
247 -0.000827
248 -0.000869
249 -0.000650
250 -0.000511
251 -0.000646
252 -0.000830
253 -0.001100
254 -0.001526
255 -0.002140
256 -0.002291
257 -0.002028
258 -0.001800
259 -0.001586
260 -0.001477
261 -0.001286
262 -0.000988
263 -0.000542
264 -0.000365
265 -0.000463
266 -0.000588
267 -0.000623
268 -0.000629
269 -0.000671
270 -0.000815
271 -0.000830
272 -0.000699
273 -0.000506
274 -0.000291
275 -0.000114
276 0.000025
277 0.000012
278 -0.000114
279 -0.000160
280 -0.000247
281 0.000019
282 -0.000015
283 0.000168
284 0.000235
285 0.000153
286 0.000041
287 -0.000047
288 -0.000252
289 -0.000460
290 -0.000495
291 -0.000632
292 -0.000945
293 -0.001388
294 -0.001703
295 -0.001922
296 -0.002164
297 -0.002223
298 -0.001956
299 -0.001597
300 -0.001158
301 -0.000663
302 -0.000218
303 -0.000059
304 -0.000199
305 -0.000155
306 -0.000130
307 -0.000381
308 -0.000410
309 -0.000426
310 -0.000328
311 -0.000317
312 -0.000322
313 -0.000309
314 -0.000505
315 -0.000670
316 -0.000876
317 -0.000830
318 -0.000726
319 -0.000515
320 -0.000307
321 -0.000302
322 -0.000471
323 -0.000470
324 -0.000725
325 -0.000969
326 -0.001202
327 -0.001335
328 -0.001452
329 -0.001438
330 -0.001174
331 -0.001359
332 -0.001468
333 -0.001297
334 -0.000891
335 -0.000685
336 -0.000557
337 -0.000561
338 -0.000410
339 -0.000213
340 0.000072
341 0.000361
342 0.000289
343 0.000077
344 0.000150
345 -0.000041
346 -0.000249
347 -0.000288
348 -0.000340
349 -0.000120
350 -0.000197
351 -0.000136
352 0.000005
353 -0.000027
354 -0.000291
355 -0.000525
356 -0.001024
357 -0.001507
358 -0.001942
359 -0.002384
360 -0.002783
361 -0.003028
362 -0.002830
363 -0.002810
364 -0.002906
365 -0.003031
366 -0.002784
367 -0.002316
368 -0.001929
369 -0.001929
370 -0.001800
371 -0.001551
372 -0.001368
373 -0.001187
374 -0.001185
375 -0.001278
376 -0.001468
377 -0.001684
378 -0.001839
379 -0.001826
380 -0.001888
381 -0.001899
382 -0.002194
383 -0.002435
384 -0.002401
385 -0.002166
386 -0.001965
387 -0.001726
388 -0.001572
389 -0.001374
390 -0.000939
391 -0.000819
392 -0.000684
393 -0.000743
394 -0.000777
395 -0.000983
396 -0.000867
397 -0.000743
398 -0.000589
399 -0.000597
400 -0.000311
401 0.000074
402 0.000301
403 0.000584
404 0.000823
405 0.001046
406 0.001345
407 0.001631
408 0.001989
409 0.002248
410 0.002545
411 0.002771
412 0.003118
413 0.002977
414 0.002768
415 0.002510
416 0.002246
417 0.001835
418 0.001595
419 0.001579
420 0.001536
421 0.001465
422 0.001125
423 0.001190
424 0.001221
425 0.001266
426 0.001114
427 0.000868
428 0.000773
429 0.000600
430 0.000516
431 0.000455
432 0.000140
433 -0.000292
434 -0.000641
435 -0.000858
436 -0.000784
437 -0.000531
438 -0.000190
439 0.000044
440 0.000219
441 0.000334
442 0.000464
443 0.000231
444 0.000159
445 0.000148
446 0.000005
447 0.000091
448 0.000253
449 0.000202
450 0.000249
451 0.000132
452 0.000126
453 -0.000028
454 0.000135
455 0.000111
456 0.000133
457 0.000214
458 0.000342
459 0.000472
460 0.000542
461 0.000745
462 0.001019
463 0.001127
464 0.000982
465 0.000704
466 0.000597
467 0.000503
468 0.000322
469 -0.000027
470 -0.000449
471 -0.000777
472 -0.000878
473 -0.000789
474 -0.000896
475 -0.000729
476 -0.000399
477 -0.000170
478 -0.000345
479 -0.000371
480 -0.000313
481 -0.000244
482 -0.000220
483 0.000126
484 0.000372
485 0.000512
486 0.000662
487 0.000645
488 0.000887
489 0.000962
490 0.001015
491 0.001061
492 0.001035
493 0.000856
494 0.000621
495 0.000343
496 0.000166
497 -0.000046
498 -0.000369
499 -0.000608
500 -0.000832
501 -0.000782
502 -0.000797
503 -0.000741
504 -0.000855
505 -0.001213
506 -0.001548
507 -0.001896
508 -0.002085
509 -0.002151
510 -0.002020
511 -0.001793
512 -0.001579
513 -0.001244
514 -0.000928
515 -0.000662
516 -0.000697
517 -0.000596
518 -0.000511
519 -0.000450
520 -0.000527
521 -0.000409
522 -0.000362
523 -0.000378
524 -0.000451
525 -0.000258
526 -0.000081
527 0.000035
528 0.000081
529 -0.000259
530 -0.000446
531 -0.000599
532 -0.000682
533 -0.000741
534 -0.000628
535 -0.000583
536 -0.000333
537 -0.000084
538 0.000014
539 0.000323
540 0.000521
541 0.000708
542 0.000700
543 0.000665
544 0.000513
545 0.000352
546 0.000174
547 0.000314
548 0.000752
549 0.001272
550 0.001495
551 0.001499
552 0.001434
553 0.001199
554 0.000805
555 0.000614
556 0.000472
557 0.000312
558 0.000183
559 -0.000106
560 -0.000182
561 -0.000289
562 -0.000408
563 -0.000481
564 -0.000589
565 -0.000677
566 -0.000683
567 -0.000699
568 -0.000674
569 -0.000469
570 -0.000324
571 -0.000118
572 -0.000028
573 0.000019
574 -0.000065
575 -0.000340
576 -0.000721
577 -0.001041
578 -0.001195
579 -0.001210
580 -0.001356
581 -0.001514
582 -0.001627
583 -0.001748
584 -0.001689
585 -0.001800
586 -0.001632
587 -0.001436
588 -0.001526
589 -0.001812
590 -0.001882
591 -0.001615
592 -0.001474
593 -0.001278
594 -0.001269
595 -0.001260
596 -0.001134
597 -0.001153
598 -0.001154
599 -0.001159
600 -0.001004
601 -0.000682
602 -0.000455
603 -0.000127
604 0.000457
605 0.000777
606 0.000912
607 0.000854
608 0.001114
609 0.001331
610 0.001535
611 0.001632
612 0.001816
613 0.002062
614 0.002129
615 0.002018
616 0.001955
617 0.001878
618 0.001682
619 0.001520
620 0.001482
621 0.001625
622 0.001615
623 0.001539
624 0.001404
625 0.001636
626 0.001841
627 0.001738
628 0.001626
629 0.001469
630 0.001458
631 0.001505
632 0.001333
633 0.001001
634 0.000801
635 0.000630
636 0.000414
637 0.000334
638 0.000412
639 0.000620
640 0.000693
641 0.000635
642 0.000746
643 0.001006
644 0.001120
645 0.001038
646 0.000982
647 0.000939
648 0.000809
649 0.000694
650 0.000577
651 0.000301
652 -0.000096
653 -0.000428
654 -0.000434
655 -0.000478
656 -0.000565
657 -0.000603
658 -0.000828
659 -0.000941
660 -0.000948
661 -0.000971
662 -0.001121
663 -0.001331
664 -0.001471
665 -0.001416
666 -0.001393
667 -0.001259
668 -0.001151
669 -0.000931
670 -0.000882
671 -0.000873
672 -0.000813
673 -0.000491
674 -0.000211
675 -0.000050
676 -0.000039
677 0.000002
678 0.000135
679 0.000267
680 0.000296
681 0.000240
682 0.000040
683 -0.000233
684 -0.000407
685 -0.000416
686 -0.000377
687 -0.000191
688 -0.000110
689 0.000122
690 0.000434
691 0.000723
692 0.000698
693 0.000581
694 0.000460
695 0.000401
696 0.000514
697 0.000611
698 0.000739
699 0.000540
700 0.000370
701 0.000307
702 0.000431
703 0.000506
704 0.000402
705 0.000033
706 -0.000174
707 -0.000387
708 -0.000569
709 -0.000617
710 -0.000737
711 -0.000738
712 -0.000776
713 -0.000789
714 -0.000668
715 -0.000512
716 -0.000513
717 -0.000546
718 -0.000660
719 -0.000512
720 -0.000305
721 -0.000177
722 -0.000232
723 -0.000385
724 -0.000448
725 -0.000384
726 -0.000193
727 -0.000173
728 -0.000319
729 -0.000332
730 -0.000278
731 -0.000204
732 -0.000201
733 -0.000203
734 -0.000117
735 -0.000072
736 -0.000074
737 -0.000159
738 -0.000311
739 -0.000430
740 -0.000492
741 -0.000438
742 -0.000234
743 -0.000028
744 0.000096
745 0.000214
746 0.000228
747 0.000210
748 0.000160
749 0.000181
750 0.000444
751 0.000506
752 0.000534
753 0.000619
754 0.000695
755 0.000697
756 0.000597
757 0.000471
758 0.000357
759 0.000309
760 0.000301
761 0.000226
762 0.000303
763 0.000458
764 0.000658
765 0.000749
766 0.000782
767 0.000850
768 0.000783
769 0.000601
770 0.000410
771 0.000280
772 0.000275
773 0.000179
774 0.000201
775 0.000196
776 0.000296
777 0.000267
778 0.000329
779 0.000392
780 0.000298
781 0.000090
782 -0.000110
783 -0.000258
784 -0.000325
785 -0.000380
786 -0.000430
787 -0.000397
788 -0.000359
789 -0.000298
790 -0.000371
791 -0.000327
792 -0.000342
793 -0.000433
794 -0.000445
795 -0.000660
796 -0.000743
797 -0.000742
798 -0.000678
799 -0.000627
800 -0.000580
801 -0.000617
802 -0.000576
803 -0.000524
804 -0.000470
805 -0.000472
806 -0.000380
807 -0.000267
808 -0.000365
809 -0.000247
