# i correlation
1 0.015833
2 0.013473
3 0.011701
4 0.010170
5 0.008593
6 0.007553
7 0.006465
8 0.005767
9 0.005262
10 0.004661
11 0.004114
12 0.003525
13 0.003146
14 0.002881
15 0.002633
16 0.002706
17 0.002520
18 0.002387
19 0.002262
20 0.002112
21 0.001994
22 0.002064
23 0.002332
24 0.002456
25 0.002511
26 0.002314
27 0.002416
28 0.002273
29 0.002417
30 0.002342
31 0.002226
32 0.002175
33 0.002346
34 0.002642
35 0.002785
36 0.002781
37 0.002785
38 0.002971
39 0.002997
40 0.002815
41 0.002653
42 0.002236
43 0.001519
44 0.000989
45 0.000679
46 0.000536
47 0.000719
48 0.000983
49 0.001219
50 0.001414
51 0.001522
52 0.001549
53 0.001338
54 0.001331
55 0.001021
56 0.000715
57 0.000682
58 0.000743
59 0.000667
60 0.000494
61 0.000292
62 -0.000045
63 -0.000276
64 -0.000264
65 -0.000112
66 0.000042
67 0.000235
68 0.000672
69 0.001074
70 0.001406
71 0.001485
72 0.001586
73 0.001792
74 0.001988
75 0.002200
76 0.002657
77 0.002602
78 0.002652
79 0.002800
80 0.002943
81 0.002623
82 0.002445
83 0.002059
84 0.001770
85 0.001477
86 0.001549
87 0.001826
88 0.001827
89 0.001752
90 0.001594
91 0.001359
92 0.001007
93 0.000497
94 -0.000035
95 0.000037
96 0.000330
97 0.000313
98 0.000598
99 0.001091
100 0.001587
101 0.001948
102 0.001907
103 0.001996
104 0.002137
105 0.001906
106 0.001648
107 0.001380
108 0.000794
109 0.000284
110 -0.000170
111 -0.000676
112 -0.000928
113 -0.001125
114 -0.001404
115 -0.001793
116 -0.002164
117 -0.002428
118 -0.002501
119 -0.002832
120 -0.003014
121 -0.003341
122 -0.003430
123 -0.003487
124 -0.003442
125 -0.003324
126 -0.002885
127 -0.002442
128 -0.002042
129 -0.001610
130 -0.001148
131 -0.000832
132 -0.000823
133 -0.000909
134 -0.000560
135 -0.000627
136 -0.000701
137 -0.000770
138 -0.000766
139 -0.000574
140 -0.000347
141 -0.000271
142 -0.000146
143 -0.000226
144 -0.000560
145 -0.000733
146 -0.001182
147 -0.001590
148 -0.001654
149 -0.001421
150 -0.001354
151 -0.001320
152 -0.001255
153 -0.001349
154 -0.001404
155 -0.001222
156 -0.001204
157 -0.001380
158 -0.001172
159 -0.001203
160 -0.001363
161 -0.001287
162 -0.001418
163 -0.001683
164 -0.001715
165 -0.001454
166 -0.001179
167 -0.000610
168 -0.000089
169 0.000394
170 0.000751
171 0.000837
172 0.000930
173 0.000963
174 0.001084
175 0.001347
176 0.001553
177 0.001648
178 0.001542
179 0.001372
180 0.001359
181 0.001295
182 0.001118
183 0.001111
184 0.000943
185 0.000759
186 0.000832
187 0.000558
188 0.000403
189 0.000315
190 0.000278
191 0.000256
192 0.000300
193 0.000016
194 -0.000461
195 -0.001066
196 -0.001363
197 -0.001812
198 -0.002309
199 -0.002182
200 -0.001963
201 -0.001814
202 -0.001679
203 -0.001492
204 -0.001417
205 -0.001212
206 -0.001067
207 -0.000621
208 -0.000370
209 0.000055
210 0.000335
211 0.000190
212 0.000055
213 0.000062
214 0.000107
215 -0.000046
216 -0.000046
217 -0.000179
218 -0.000293
219 -0.000365
220 -0.000527
221 -0.000679
222 -0.000905
223 -0.000888
224 -0.000875
225 -0.000731
226 -0.000402
227 -0.000220
228 -0.000212
229 -0.000366
230 -0.000225
231 -0.000209
232 -0.000269
233 -0.000567
234 -0.000666
235 -0.000781
236 -0.000892
237 -0.001077
238 -0.001022
239 -0.001072
240 -0.000916
241 -0.000728
242 -0.000601
243 -0.000295
244 -0.000015
245 -0.000089
246 0.000026
247 0.000233
248 0.000308
249 0.000368
250 0.000474
251 0.000292
252 -0.000084
253 -0.000122
254 -0.000170
255 -0.000342
256 -0.000334
257 -0.000127
258 -0.000047
259 0.000008
260 0.000093
261 0.000285
262 0.000637
263 0.000648
264 0.000553
265 0.000603
266 0.000721
267 0.000717
268 0.001007
269 0.001235
270 0.001297
271 0.001289
272 0.001423
273 0.001562
274 0.001281
275 0.001031
276 0.000969
277 0.000846
278 0.000918
279 0.000999
280 0.001056
281 0.001149
282 0.001473
283 0.001708
284 0.001636
285 0.001584
286 0.001553
287 0.001490
288 0.001305
289 0.001100
290 0.000748
291 0.000453
292 0.000273
293 -0.000137
294 -0.000520
295 -0.000602
296 -0.000814
297 -0.000952
298 -0.001155
299 -0.001249
300 -0.001089
301 -0.000756
302 -0.000730
303 -0.000547
304 -0.000310
305 -0.000050
306 0.000488
307 0.000867
308 0.001038
309 0.001078
310 0.001502
311 0.001741
312 0.001850
313 0.001910
314 0.002154
315 0.002072
316 0.001980
317 0.001827
318 0.001570
319 0.001250
320 0.001104
321 0.000746
322 0.000637
323 0.000814
324 0.000554
325 0.000086
326 0.000024
327 -0.000204
328 -0.000630
329 -0.000825
330 -0.000752
331 -0.000699
332 -0.000943
333 -0.001313
334 -0.001423
335 -0.001479
336 -0.001633
337 -0.001581
338 -0.001488
339 -0.001214
340 -0.001053
341 -0.001026
342 -0.000931
343 -0.000901
344 -0.000827
345 -0.000722
346 -0.000670
347 -0.000673
348 -0.000483
349 -0.000258
350 0.000002
351 0.000123
352 0.000190
353 0.000076
354 -0.000071
355 -0.000106
356 -0.000040
357 0.000188
358 0.000511
359 0.000601
360 0.000800
361 0.001022
362 0.001222
363 0.001206
364 0.001074
365 0.001111
366 0.001034
367 0.000818
368 0.000815
369 0.001098
370 0.001046
371 0.001106
372 0.001107
373 0.000889
374 0.000719
375 0.000538
376 0.000277
377 0.000152
378 0.000009
379 -0.000250
380 -0.000487
381 -0.000363
382 -0.000204
383 -0.000029
384 0.000202
385 0.000397
386 0.000646
387 0.000767
388 0.000882
389 0.000740
390 0.000836
391 0.000774
392 0.000896
393 0.000962
394 0.000894
395 0.000789
396 0.000796
397 0.000404
398 0.000305
399 0.000352
400 0.000224
401 -0.000152
402 -0.000303
403 -0.000490
404 -0.000919
405 -0.001180
406 -0.001300
407 -0.001467
408 -0.001735
409 -0.001865
410 -0.001691
411 -0.001525
412 -0.001495
413 -0.001330
414 -0.001258
415 -0.001228
416 -0.001084
417 -0.000764
418 -0.000576
419 -0.000295
420 -0.000308
421 -0.000270
422 -0.000232
423 -0.000275
424 -0.000458
425 -0.000753
426 -0.000971
427 -0.001037
428 -0.001285
429 -0.001464
430 -0.001491
431 -0.001520
432 -0.001860
433 -0.002109
434 -0.002383
435 -0.002354
436 -0.002290
437 -0.001985
438 -0.001790
439 -0.001667
440 -0.001492
441 -0.001217
442 -0.001107
443 -0.001102
444 -0.001153
445 -0.000922
446 -0.000795
447 -0.000652
448 -0.000700
449 -0.000556
450 -0.000460
451 -0.000484
452 -0.000517
453 -0.000271
454 -0.000039
455 0.000120
456 0.000328
457 0.000703
458 0.001040
459 0.001390
460 0.001604
461 0.001611
462 0.001458
463 0.001181
464 0.001207
465 0.001253
466 0.001210
467 0.000989
468 0.000881
469 0.000852
470 0.000877
471 0.000883
472 0.000958
473 0.000765
474 0.000709
475 0.000863
476 0.001021
477 0.000847
478 0.000751
479 0.000601
480 0.000434
481 0.000374
482 0.000286
483 0.000181
484 0.000173
485 0.000080
486 -0.000052
487 -0.000011
488 -0.000084
489 0.000008
490 0.000036
491 0.000121
492 0.000282
493 0.000366
494 0.000257
495 0.000190
496 0.000128
497 0.000177
498 0.000196
499 0.000378
500 0.000633
501 0.000602
502 0.000306
503 0.000007
504 -0.000212
505 -0.000465
506 -0.000567
507 -0.000716
508 -0.000933
509 -0.000998
510 -0.001056
511 -0.001140
512 -0.001304
513 -0.001307
514 -0.001436
515 -0.001436
516 -0.001494
517 -0.001446
518 -0.001278
519 -0.001186
520 -0.001072
521 -0.001030
522 -0.000985
523 -0.000853
524 -0.000741
525 -0.000578
526 -0.000166
527 0.000382
528 0.000590
529 0.000819
530 0.000995
531 0.001106
532 0.001089
533 0.001170
534 0.000997
535 0.001014
536 0.001092
537 0.001094
538 0.000979
539 0.000958
540 0.000984
541 0.001086
542 0.001148
543 0.000978
544 0.000884
545 0.000868
546 0.000788
547 0.000606
548 0.000612
549 0.000671
550 0.000821
551 0.001125
552 0.001136
553 0.001174
554 0.001170
555 0.001178
556 0.001090
557 0.001064
558 0.001173
559 0.001194
560 0.001222
561 0.001313
562 0.001322
563 0.001378
564 0.001457
565 0.001456
566 0.001310
567 0.001265
568 0.001067
569 0.000957
570 0.000677
571 0.000533
572 0.000398
573 0.000310
574 0.000294
575 0.000173
576 0.000261
577 0.000262
578 0.000343
579 0.000255
580 0.000212
581 0.000009
582 -0.000254
583 -0.000522
584 -0.000741
585 -0.000832
586 -0.000857
587 -0.000826
588 -0.000593
589 -0.000328
590 -0.000352
591 -0.000430
592 -0.000385
593 -0.000324
594 -0.000337
595 -0.000401
596 -0.000273
597 -0.000233
598 -0.000159
599 0.000022
600 0.000164
601 0.000221
602 0.000352
603 0.000401
604 0.000184
605 0.000202
606 0.000103
607 -0.000048
608 -0.000115
609 -0.000173
610 -0.000273
611 -0.000411
612 -0.000454
613 -0.000378
614 -0.000404
615 -0.000341
616 -0.000335
617 -0.000387
618 -0.000293
619 -0.000130
620 -0.000266
621 -0.000384
622 -0.000433
623 -0.000342
624 -0.000417
625 -0.000501
626 -0.000409
627 -0.000302
628 -0.000113
629 -0.000084
630 -0.000033
631 0.000085
632 0.000288
633 0.000381
634 0.000549
635 0.000567
636 0.000522
637 0.000543
638 0.000551
639 0.000472
640 0.000344
641 0.000241
642 0.000139
643 0.000021
644 -0.000199
645 -0.000255
646 -0.000238
647 -0.000216
648 -0.000321
649 -0.000421
650 -0.000453
651 -0.000449
652 -0.000394
653 -0.000425
654 -0.000450
655 -0.000412
656 -0.000431
657 -0.000404
658 -0.000547
659 -0.000783
660 -0.000917
661 -0.000907
662 -0.001023
663 -0.001080
664 -0.001091
665 -0.001076
666 -0.001084
667 -0.000949
668 -0.000808
669 -0.000720
670 -0.000715
671 -0.000733
672 -0.000720
673 -0.000745
674 -0.000813
675 -0.000750
676 -0.000637
677 -0.000587
678 -0.000623
679 -0.000766
680 -0.000889
681 -0.000961
682 -0.001146
683 -0.001403
684 -0.001502
685 -0.001509
686 -0.001532
687 -0.001576
688 -0.001721
689 -0.001808
690 -0.001933
691 -0.002079
692 -0.002042
693 -0.002004
694 -0.002058
695 -0.002074
696 -0.001991
697 -0.001934
698 -0.001910
699 -0.001934
700 -0.001873
701 -0.001764
702 -0.001668
703 -0.001549
704 -0.001422
705 -0.001372
706 -0.001299
707 -0.001168
708 -0.001079
709 -0.001113
710 -0.001145
711 -0.001207
712 -0.001246
713 -0.001244
714 -0.001206
715 -0.001420
716 -0.001551
717 -0.001677
718 -0.001825
719 -0.001910
720 -0.001975
721 -0.002020
722 -0.002035
723 -0.001925
724 -0.002079
725 -0.001968
726 -0.001848
727 -0.001696
728 -0.001537
729 -0.001455
730 -0.001406
731 -0.001405
732 -0.001381
733 -0.001364
734 -0.001241
735 -0.001345
736 -0.001414
737 -0.001246
738 -0.001272
739 -0.001425
740 -0.001637
741 -0.001628
742 -0.001664
743 -0.001618
744 -0.001645
745 -0.001675
746 -0.001801
747 -0.001792
748 -0.001776
749 -0.001935
750 -0.002015
751 -0.002070
752 -0.002080
753 -0.002003
754 -0.001901
755 -0.001788
756 -0.001783
757 -0.001740
758 -0.001805
759 -0.001855
760 -0.001906
761 -0.001849
762 -0.001807
763 -0.001907
764 -0.001868
765 -0.001770
766 -0.001730
767 -0.001676
768 -0.001522
769 -0.001537
770 -0.001542
771 -0.001525
772 -0.001539
773 -0.001490
774 -0.001508
775 -0.001564
776 -0.001485
777 -0.001286
778 -0.001179
779 -0.001084
780 -0.001055
781 -0.000951
782 -0.000824
783 -0.000759
784 -0.000737
785 -0.000801
786 -0.000907
787 -0.001016
788 -0.001008
789 -0.001026
790 -0.001040
791 -0.001063
792 -0.001065
793 -0.001012
794 -0.001036
795 -0.001014
796 -0.001022
797 -0.001008
798 -0.000922
799 -0.000739
800 -0.000662
801 -0.000506
802 -0.000332
803 -0.000101
804 0.000076
805 0.000212
806 0.000298
807 0.000405
808 0.000411
809 0.000450
