# i correlation
1 0.018767
2 0.016149
3 0.013722
4 0.011580
5 0.010076
6 0.008930
7 0.007766
8 0.006819
9 0.006001
10 0.005352
11 0.004655
12 0.004302
13 0.003520
14 0.003225
15 0.003191
16 0.003180
17 0.002946
18 0.002733
19 0.002319
20 0.002023
21 0.001952
22 0.002295
23 0.002515
24 0.002849
25 0.002837
26 0.002995
27 0.003037
28 0.002936
29 0.002801
30 0.002563
31 0.002218
32 0.002089
33 0.002244
34 0.002534
35 0.002553
36 0.002618
37 0.002533
38 0.002461
39 0.002493
40 0.002225
41 0.002221
42 0.002087
43 0.001792
44 0.001587
45 0.001458
46 0.001514
47 0.001580
48 0.001438
49 0.001226
50 0.001191
51 0.001344
52 0.001566
53 0.001819
54 0.001919
55 0.001888
56 0.001857
57 0.001605
58 0.001154
59 0.000981
60 0.001026
61 0.001033
62 0.001342
63 0.001272
64 0.001183
65 0.000915
66 0.000772
67 0.000661
68 0.000623
69 0.000530
70 0.000605
71 0.000560
72 0.000488
73 -0.000011
74 -0.000280
75 -0.000577
76 -0.000734
77 -0.000879
78 -0.000749
79 -0.000760
80 -0.000500
81 -0.000849
82 -0.000948
83 -0.001304
84 -0.001691
85 -0.002020
86 -0.001913
87 -0.002098
88 -0.002212
89 -0.002094
90 -0.002063
91 -0.001845
92 -0.001305
93 -0.000855
94 -0.000315
95 -0.000210
96 0.000078
97 0.000137
98 0.000267
99 -0.000114
100 -0.000472
101 -0.000629
102 -0.000784
103 -0.000768
104 -0.000521
105 -0.000760
106 -0.000714
107 -0.000813
108 -0.000665
109 -0.000509
110 -0.000373
111 -0.000681
112 -0.000850
113 -0.000598
114 -0.000325
115 -0.000324
116 -0.000134
117 -0.000227
118 -0.000235
119 -0.000062
120 0.000212
121 0.000222
122 0.000260
123 0.000213
124 -0.000001
125 -0.000137
126 -0.000247
127 -0.000585
128 -0.000798
129 -0.001016
130 -0.001095
131 -0.000910
132 -0.000688
133 -0.000744
134 -0.000819
135 -0.001124
136 -0.001444
137 -0.001907
138 -0.002445
139 -0.002609
140 -0.002787
141 -0.002805
142 -0.002580
143 -0.002367
144 -0.002447
145 -0.002260
146 -0.001942
147 -0.001827
148 -0.001434
149 -0.001328
150 -0.001068
151 -0.000883
152 -0.000834
153 -0.000829
154 -0.000715
155 -0.000515
156 -0.000465
157 -0.000359
158 -0.000103
159 -0.000079
160 0.000044
161 -0.000047
162 -0.000133
163 -0.000076
164 -0.000110
165 -0.000141
166 0.000086
167 0.000184
168 0.000440
169 0.000664
170 0.000783
171 0.000747
172 0.000644
173 0.000824
174 0.000937
175 0.001203
176 0.001727
177 0.002065
178 0.002169
179 0.002181
180 0.002000
181 0.001714
182 0.001459
183 0.001225
184 0.001280
185 0.001438
186 0.001641
187 0.001806
188 0.001914
189 0.001879
190 0.001843
191 0.001656
192 0.001684
193 0.002093
194 0.002250
195 0.002537
196 0.002329
197 0.002096
198 0.001838
199 0.001324
200 0.001066
201 0.001024
202 0.001450
203 0.002006
204 0.002142
205 0.002358
206 0.002227
207 0.002076
208 0.001932
209 0.001971
210 0.001954
211 0.001778
212 0.001919
213 0.001981
214 0.001953
215 0.001835
216 0.001713
217 0.001764
218 0.001775
219 0.001791
220 0.001667
221 0.001403
222 0.001192
223 0.001195
224 0.001207
225 0.001177
226 0.000881
227 0.000461
228 0.000337
229 0.000374
230 0.000437
231 0.000389
232 0.000363
233 0.000168
234 0.000181
235 0.000313
236 0.000414
237 0.000550
238 0.000472
239 0.000299
240 0.000175
241 0.000083
242 0.000206
243 0.000060
244 -0.000010
245 -0.000108
246 -0.000224
247 -0.000382
248 -0.000461
249 -0.000200
250 -0.000232
251 -0.000173
252 -0.000014
253 0.000052
254 0.000009
255 0.000037
256 0.000085
257 0.000170
258 0.000099
259 0.000057
260 -0.000095
261 -0.000276
262 -0.000141
263 -0.000102
264 -0.000071
265 0.000263
266 0.000278
267 0.000338
268 0.000206
269 0.000213
270 0.000082
271 -0.000062
272 -0.000297
273 -0.000400
274 -0.000538
275 -0.000580
276 -0.000817
277 -0.000984
278 -0.001293
279 -0.001611
280 -0.001960
281 -0.002137
282 -0.002595
283 -0.003014
284 -0.003346
285 -0.003328
286 -0.003173
287 -0.002718
288 -0.002121
289 -0.001558
290 -0.001184
291 -0.000820
292 -0.000693
293 -0.000688
294 -0.000766
295 -0.000863
296 -0.000742
297 -0.001035
298 -0.001178
299 -0.000803
300 -0.000768
301 -0.000738
302 -0.000922
303 -0.000868
304 -0.000684
305 -0.000699
306 -0.000754
307 -0.000957
308 -0.000897
309 -0.000651
310 -0.000569
311 -0.000407
312 -0.000279
313 -0.000385
314 -0.000480
315 -0.000329
316 -0.000448
317 -0.000484
318 -0.000701
319 -0.001079
320 -0.001356
321 -0.001230
322 -0.001143
323 -0.000985
324 -0.001003
325 -0.001120
326 -0.001077
327 -0.000935
328 -0.000837
329 -0.000460
330 -0.000475
331 -0.000585
332 -0.000544
333 -0.000655
334 -0.000776
335 -0.000906
336 -0.001230
337 -0.001356
338 -0.001442
339 -0.001430
340 -0.001604
341 -0.001652
342 -0.002000
343 -0.002290
344 -0.002511
345 -0.002366
346 -0.002456
347 -0.002469
348 -0.002493
349 -0.002514
350 -0.002310
351 -0.001766
352 -0.001336
353 -0.000845
354 -0.000777
355 -0.000530
356 -0.000173
357 -0.000017
358 -0.000006
359 0.000108
360 0.000073
361 0.000235
362 0.000191
363 0.000295
364 0.000299
365 0.000284
366 0.000101
367 0.000276
368 0.000659
369 0.000859
370 0.001246
371 0.001629
372 0.001948
373 0.001991
374 0.001813
375 0.001755
376 0.001447
377 0.001522
378 0.001364
379 0.001263
380 0.001006
381 0.000749
382 0.000540
383 0.000410
384 0.000228
385 0.000220
386 0.000183
387 0.000324
388 0.000369
389 0.000360
390 0.000195
391 -0.000108
392 -0.000342
393 -0.000474
394 -0.000386
395 -0.000274
396 -0.000284
397 0.000008
398 0.000189
399 0.000340
400 0.000619
401 0.000933
402 0.001168
403 0.001357
404 0.001382
405 0.001374
406 0.001278
407 0.001209
408 0.001078
409 0.001309
410 0.001458
411 0.001411
412 0.001563
413 0.001685
414 0.001522
415 0.001359
416 0.001045
417 0.000833
418 0.000668
419 0.000799
420 0.000918
421 0.001050
422 0.001325
423 0.001869
424 0.002161
425 0.002618
426 0.002755
427 0.002840
428 0.002763
429 0.002624
430 0.002451
431 0.002561
432 0.002487
433 0.002432
434 0.002209
435 0.002163
436 0.001849
437 0.001617
438 0.001341
439 0.001382
440 0.001469
441 0.001565
442 0.001592
443 0.001503
444 0.001279
445 0.001105
446 0.000828
447 0.000795
448 0.000893
449 0.001033
450 0.001047
451 0.001287
452 0.001079
453 0.000744
454 0.000648
455 0.000585
456 0.000327
457 0.000526
458 0.000607
459 0.000600
460 0.000666
461 0.000536
462 0.000424
463 0.000354
464 0.000384
465 0.000517
466 0.000787
467 0.001128
468 0.001304
469 0.001529
470 0.001340
471 0.001221
472 0.001195
473 0.001169
474 0.001345
475 0.001598
476 0.001788
477 0.001703
478 0.001559
479 0.001354
480 0.001284
481 0.001539
482 0.001626
483 0.001724
484 0.001874
485 0.001948
486 0.001876
487 0.001834
488 0.001615
489 0.001382
490 0.001107
491 0.001134
492 0.000872
493 0.000743
494 0.000476
495 0.000191
496 0.000019
497 -0.000083
498 -0.000171
499 -0.000180
500 -0.000555
501 -0.000772
502 -0.000926
503 -0.000851
504 -0.000788
505 -0.000591
506 -0.000615
507 -0.000685
508 -0.000877
509 -0.001123
510 -0.001365
511 -0.001482
512 -0.001638
513 -0.001600
514 -0.001573
515 -0.001525
516 -0.001651
517 -0.001610
518 -0.001357
519 -0.000963
520 -0.000521
521 -0.000253
522 -0.000019
523 0.000203
524 0.000403
525 0.000639
526 0.000749
527 0.000991
528 0.000913
529 0.000951
530 0.000875
531 0.000640
532 0.000337
533 0.000138
534 0.000062
535 -0.000118
536 -0.000308
537 -0.000279
538 -0.000251
539 -0.000413
540 -0.000424
541 -0.000548
542 -0.000787
543 -0.000976
544 -0.000990
545 -0.000867
546 -0.000566
547 -0.000420
548 -0.000199
549 -0.000018
550 -0.000197
551 -0.000202
552 -0.000204
553 -0.000273
554 -0.000207
555 -0.000111
556 0.000027
557 0.000234
558 0.000604
559 0.000672
560 0.000730
561 0.000972
562 0.001053
563 0.001182
564 0.001350
565 0.001641
566 0.001848
567 0.001924
568 0.001795
569 0.001474
570 0.001168
571 0.000789
572 0.000345
573 0.000235
574 0.000193
575 0.000108
576 -0.000123
577 -0.000271
578 -0.000502
579 -0.000796
580 -0.000752
581 -0.000797
582 -0.000761
583 -0.000718
584 -0.000790
585 -0.000743
586 -0.000810
587 -0.000868
588 -0.000933
589 -0.000865
590 -0.000587
591 -0.000327
592 -0.000227
593 -0.000209
594 -0.000221
595 -0.000221
596 -0.000202
597 -0.000104
598 -0.000230
599 -0.000191
600 -0.000060
601 0.000022
602 0.000008
603 0.000019
604 -0.000096
605 -0.000094
606 -0.000157
607 -0.000082
608 0.000020
609 0.000059
610 -0.000114
611 -0.000282
612 -0.000407
613 -0.000486
614 -0.000422
615 -0.000462
616 -0.000471
617 -0.000323
618 -0.000183
619 0.000006
620 0.000128
621 0.000277
622 0.000392
623 0.000364
624 0.000251
625 0.000173
626 0.000248
627 0.000422
628 0.000670
629 0.000876
630 0.000971
631 0.000905
632 0.000855
633 0.000870
634 0.000838
635 0.000808
636 0.000613
637 0.000524
638 0.000513
639 0.000368
640 0.000279
641 0.000185
642 0.000287
643 0.000485
644 0.000962
645 0.001383
646 0.001581
647 0.001723
648 0.001457
649 0.001105
650 0.000901
651 0.000739
652 0.000676
653 0.000586
654 0.000523
655 0.000501
656 0.000479
657 0.000438
658 0.000305
659 0.000163
660 0.000329
661 0.000528
662 0.000951
663 0.001262
664 0.001419
665 0.001404
666 0.001405
667 0.001228
668 0.001249
669 0.001413
670 0.001367
671 0.001301
672 0.001226
673 0.000917
674 0.000733
675 0.000521
676 0.000435
677 0.000370
678 0.000432
679 0.000377
680 0.000353
681 0.000336
682 0.000166
683 -0.000039
684 -0.000146
685 -0.000199
686 -0.000239
687 -0.000275
688 -0.000241
689 -0.000234
690 -0.000081
691 0.000050
692 0.000094
693 0.000250
694 0.000395
695 0.000314
696 0.000221
697 0.000082
698 -0.000061
699 -0.000025
700 0.000113
701 0.000136
702 0.000004
703 -0.000219
704 -0.000411
705 -0.000619
706 -0.000789
707 -0.001006
708 -0.001243
709 -0.001416
710 -0.001684
711 -0.001822
712 -0.001941
713 -0.002018
714 -0.002063
715 -0.002066
716 -0.001954
717 -0.001719
718 -0.001624
719 -0.001645
720 -0.001711
721 -0.001773
722 -0.001801
723 -0.001732
724 -0.001594
725 -0.001405
726 -0.001398
727 -0.001254
728 -0.001205
729 -0.001167
730 -0.001282
731 -0.001272
732 -0.001181
733 -0.001035
734 -0.000822
735 -0.000552
736 -0.000383
737 -0.000367
738 -0.000400
739 -0.000402
740 -0.000326
741 -0.000278
742 -0.000213
743 -0.000148
744 -0.000216
745 -0.000417
746 -0.000613
747 -0.000844
748 -0.001000
749 -0.001185
750 -0.001268
751 -0.001310
752 -0.001394
753 -0.001578
754 -0.001604
755 -0.001548
756 -0.001508
757 -0.001610
758 -0.001578
759 -0.001526
760 -0.001489
761 -0.001477
762 -0.001446
763 -0.001449
764 -0.001478
765 -0.001624
766 -0.001719
767 -0.001849
768 -0.001997
769 -0.002169
770 -0.002178
771 -0.002265
772 -0.002222
773 -0.002309
774 -0.002334
775 -0.002467
776 -0.002448
777 -0.002539
778 -0.002434
779 -0.002411
780 -0.002316
781 -0.002377
782 -0.002358
783 -0.002401
784 -0.002314
785 -0.002228
786 -0.002098
787 -0.001862
788 -0.001702
789 -0.001619
790 -0.001477
791 -0.001487
792 -0.001488
793 -0.001449
794 -0.001398
795 -0.001321
796 -0.001253
797 -0.001114
798 -0.001015
799 -0.001020
800 -0.001014
801 -0.001109
802 -0.001164
803 -0.001106
804 -0.001143
805 -0.001133
806 -0.001186
807 -0.001307
808 -0.001391
809 -0.001437
