# i correlation
1 0.021782
2 0.018763
3 0.016543
4 0.015039
5 0.013370
6 0.012057
7 0.010942
8 0.010118
9 0.009244
10 0.008490
11 0.007735
12 0.007146
13 0.006867
14 0.006834
15 0.006730
16 0.006295
17 0.005951
18 0.005634
19 0.005230
20 0.004833
21 0.004779
22 0.004850
23 0.004792
24 0.005166
25 0.005409
26 0.005281
27 0.005320
28 0.005214
29 0.004889
30 0.004560
31 0.004355
32 0.004328
33 0.004392
34 0.004316
35 0.004442
36 0.004757
37 0.005010
38 0.004573
39 0.003827
40 0.003321
41 0.003137
42 0.003183
43 0.003292
44 0.003004
45 0.002940
46 0.002985
47 0.002961
48 0.002658
49 0.002645
50 0.002860
51 0.002750
52 0.002664
53 0.002866
54 0.002950
55 0.002828
56 0.002938
57 0.003057
58 0.003395
59 0.003491
60 0.003737
61 0.004046
62 0.004152
63 0.003818
64 0.003443
65 0.002995
66 0.002185
67 0.001753
68 0.001553
69 0.001439
70 0.001201
71 0.001460
72 0.001600
73 0.001879
74 0.001962
75 0.002034
76 0.001968
77 0.001917
78 0.001700
79 0.001778
80 0.002207
81 0.002682
82 0.002944
83 0.003130
84 0.003127
85 0.003053
86 0.003064
87 0.003464
88 0.003575
89 0.003679
90 0.003606
91 0.003488
92 0.003082
93 0.002705
94 0.002439
95 0.002374
96 0.002638
97 0.003109
98 0.004022
99 0.004545
100 0.004721
101 0.004645
102 0.004401
103 0.004323
104 0.004359
105 0.004318
106 0.004074
107 0.004096
108 0.004291
109 0.004282
110 0.004086
111 0.003891
112 0.003668
113 0.003664
114 0.003558
115 0.003177
116 0.002558
117 0.002004
118 0.001967
119 0.002083
120 0.002084
121 0.001928
122 0.002007
123 0.002244
124 0.002256
125 0.002481
126 0.002710
127 0.002919
128 0.002982
129 0.002926
130 0.002913
131 0.002855
132 0.002825
133 0.002999
134 0.003121
135 0.003052
136 0.003028
137 0.003038
138 0.002802
139 0.002272
140 0.001681
141 0.001302
142 0.000993
143 0.000966
144 0.001184
145 0.001334
146 0.001622
147 0.001747
148 0.001794
149 0.001609
150 0.001337
151 0.001012
152 0.000576
153 -0.000103
154 -0.000702
155 -0.001104
156 -0.001290
157 -0.001812
158 -0.001928
159 -0.001861
160 -0.001757
161 -0.001334
162 -0.000911
163 -0.000488
164 -0.000527
165 -0.000730
166 -0.000903
167 -0.001233
168 -0.001474
169 -0.001407
170 -0.001408
171 -0.001424
172 -0.001556
173 -0.001460
174 -0.001275
175 -0.000979
176 -0.000967
177 -0.000931
178 -0.001167
179 -0.000981
180 -0.000511
181 -0.000415
182 -0.000429
183 -0.000060
184 0.000116
185 0.000343
186 0.000216
187 0.000293
188 0.000273
189 0.000138
190 -0.000067
191 -0.000262
192 -0.000490
193 -0.000814
194 -0.001185
195 -0.001413
196 -0.001327
197 -0.001301
198 -0.001290
199 -0.001378
200 -0.001406
201 -0.001518
202 -0.001544
203 -0.001546
204 -0.001679
205 -0.001687
206 -0.001445
207 -0.000898
208 -0.000433
209 -0.000228
210 -0.000212
211 -0.000153
212 0.000154
213 0.000266
214 0.000084
215 -0.000265
216 -0.000480
217 -0.000493
218 -0.000695
219 -0.001059
220 -0.001271
221 -0.001400
222 -0.001432
223 -0.001216
224 -0.000937
225 -0.000705
226 -0.000706
227 -0.000879
228 -0.001231
229 -0.001693
230 -0.001829
231 -0.001867
232 -0.001565
233 -0.001050
234 -0.000577
235 -0.000261
236 0.000109
237 0.000606
238 0.001231
239 0.001564
240 0.001590
241 0.001470
242 0.001607
243 0.001602
244 0.001684
245 0.001645
246 0.001819
247 0.001745
248 0.001839
249 0.001814
250 0.002025
251 0.001943
252 0.001611
253 0.001227
254 0.000750
255 -0.000010
256 -0.000460
257 -0.000618
258 -0.000758
259 -0.000724
260 -0.000400
261 -0.000073
262 0.000073
263 0.000027
264 -0.000066
265 0.000027
266 0.000411
267 0.000741
268 0.000902
269 0.001006
270 0.001262
271 0.001515
272 0.001609
273 0.001596
274 0.001735
275 0.001841
276 0.001848
277 0.001768
278 0.001715
279 0.001624
280 0.001588
281 0.001863
282 0.002027
283 0.001960
284 0.001796
285 0.001768
286 0.001586
287 0.001433
288 0.001257
289 0.001043
290 0.000792
291 0.000303
292 -0.000188
293 -0.000341
294 -0.000206
295 0.000200
296 0.000854
297 0.001492
298 0.001751
299 0.001803
300 0.001682
301 0.001412
302 0.001058
303 0.000635
304 0.000163
305 -0.000236
306 -0.000485
307 -0.000634
308 -0.000975
309 -0.001305
310 -0.001337
311 -0.001173
312 -0.000900
313 -0.000720
314 -0.000732
315 -0.000714
316 -0.000916
317 -0.001124
318 -0.001286
319 -0.001497
320 -0.001591
321 -0.001385
322 -0.000903
323 -0.000329
324 0.000145
325 0.000469
326 0.000829
327 0.001054
328 0.000891
329 0.000783
330 0.000739
331 0.001049
332 0.001196
333 0.001351
334 0.001418
335 0.001448
336 0.001260
337 0.001199
338 0.001067
339 0.001302
340 0.001352
341 0.001297
342 0.001192
343 0.001204
344 0.001150
345 0.000774
346 0.000602
347 0.000545
348 0.000619
349 0.000854
350 0.000981
351 0.001196
352 0.001167
353 0.001184
354 0.001146
355 0.001328
356 0.001522
357 0.001919
358 0.002233
359 0.002784
360 0.003207
361 0.003408
362 0.003102
363 0.002798
364 0.002755
365 0.002629
366 0.002275
367 0.001923
368 0.001995
369 0.002177
370 0.002413
371 0.002719
372 0.002862
373 0.002906
374 0.002859
375 0.002650
376 0.002632
377 0.002633
378 0.002515
379 0.002368
380 0.002322
381 0.002433
382 0.002528
383 0.002575
384 0.002663
385 0.002889
386 0.003302
387 0.003798
388 0.003996
389 0.003936
390 0.003587
391 0.003186
392 0.002935
393 0.002767
394 0.002776
395 0.002974
396 0.003124
397 0.003246
398 0.003459
399 0.003445
400 0.003585
401 0.003607
402 0.003341
403 0.003079
404 0.002852
405 0.002628
406 0.002408
407 0.002218
408 0.002067
409 0.002011
410 0.002054
411 0.002321
412 0.002556
413 0.002775
414 0.002740
415 0.002734
416 0.002414
417 0.002166
418 0.001988
419 0.001928
420 0.001825
421 0.001846
422 0.001946
423 0.002149
424 0.002232
425 0.002676
426 0.002943
427 0.003018
428 0.002767
429 0.002573
430 0.002630
431 0.002716
432 0.002672
433 0.002675
434 0.002622
435 0.002558
436 0.002436
437 0.002042
438 0.001661
439 0.001117
440 0.000844
441 0.000694
442 0.000627
443 0.000421
444 0.000286
445 0.000317
446 0.000486
447 0.000438
448 0.000528
449 0.000626
450 0.000968
451 0.001186
452 0.001302
453 0.001275
454 0.001165
455 0.000738
456 0.000552
457 0.000602
458 0.000687
459 0.000758
460 0.000906
461 0.000893
462 0.000988
463 0.001185
464 0.001246
465 0.001105
466 0.000693
467 0.000467
468 0.000641
469 0.000796
470 0.000816
471 0.000674
472 0.000521
473 0.000397
474 0.000180
475 -0.000200
476 -0.000461
477 -0.000603
478 -0.000569
479 -0.000675
480 -0.000894
481 -0.000952
482 -0.001156
483 -0.001219
484 -0.001095
485 -0.000820
486 -0.000689
487 -0.000489
488 -0.000243
489 -0.000185
490 0.000038
491 0.000261
492 0.000464
493 0.000623
494 0.000656
495 0.000716
496 0.000668
497 0.000361
498 0.000337
499 0.000299
500 0.000317
501 0.000260
502 0.000235
503 0.000210
504 0.000068
505 -0.000043
506 0.000038
507 0.000300
508 0.000390
509 0.000564
510 0.000772
511 0.000675
512 0.000507
513 0.000500
514 0.000569
515 0.000593
516 0.000254
517 -0.000166
518 -0.000483
519 -0.000653
520 -0.000763
521 -0.000820
522 -0.000995
523 -0.000866
524 -0.000766
525 -0.000792
526 -0.000813
527 -0.000753
528 -0.000654
529 -0.000746
530 -0.000945
531 -0.000909
532 -0.000682
533 -0.000387
534 -0.000049
535 0.000249
536 0.000348
537 0.000236
538 0.000290
539 0.000348
540 0.000378
541 0.000372
542 0.000306
543 0.000217
544 0.000216
545 0.000307
546 0.000454
547 0.000586
548 0.000930
549 0.001154
550 0.001357
551 0.001545
552 0.001470
553 0.001081
554 0.000461
555 -0.000316
556 -0.000758
557 -0.001134
558 -0.001572
559 -0.002060
560 -0.002322
561 -0.002322
562 -0.002304
563 -0.002356
564 -0.002287
565 -0.002262
566 -0.002189
567 -0.002153
568 -0.002078
569 -0.002062
570 -0.002203
571 -0.002311
572 -0.002326
573 -0.002322
574 -0.002524
575 -0.002537
576 -0.002476
577 -0.002328
578 -0.002502
579 -0.002854
580 -0.003239
581 -0.003315
582 -0.003344
583 -0.003250
584 -0.003249
585 -0.003384
586 -0.003510
587 -0.003908
588 -0.004121
589 -0.004339
590 -0.004458
591 -0.004465
592 -0.004306
593 -0.004242
594 -0.003978
595 -0.003818
596 -0.003588
597 -0.003392
598 -0.003187
599 -0.002893
600 -0.002628
601 -0.002458
602 -0.002476
603 -0.002626
604 -0.002838
605 -0.003023
606 -0.003053
607 -0.002838
608 -0.002534
609 -0.002320
610 -0.002025
611 -0.001803
612 -0.001569
613 -0.001509
614 -0.001487
615 -0.001460
616 -0.001415
617 -0.001700
618 -0.001881
619 -0.001910
620 -0.002023
621 -0.002061
622 -0.002269
623 -0.002364
624 -0.002563
625 -0.002553
626 -0.002438
627 -0.002289
628 -0.002133
629 -0.001856
630 -0.001722
631 -0.001484
632 -0.001460
633 -0.001256
634 -0.000994
635 -0.000796
636 -0.000682
637 -0.000401
638 -0.000019
639 0.000276
640 0.000412
641 0.000234
642 0.000117
643 0.000095
644 0.000261
645 0.000135
646 -0.000057
647 -0.000234
648 -0.000240
649 -0.000246
650 -0.000345
651 -0.000639
652 -0.000779
653 -0.000705
654 -0.000615
655 -0.000593
656 -0.000670
657 -0.000437
658 -0.000292
659 -0.000112
660 -0.000138
661 0.000143
662 0.000192
663 0.000125
664 -0.000085
665 -0.000187
666 -0.000277
667 -0.000454
668 -0.000494
669 -0.000502
670 -0.000611
671 -0.000624
672 -0.000529
673 -0.000487
674 -0.000507
675 -0.000310
676 0.000050
677 0.000128
678 -0.000053
679 -0.000125
680 -0.000119
681 -0.000112
682 -0.000223
683 -0.000255
684 -0.000168
685 -0.000245
686 -0.000430
687 -0.000787
688 -0.001337
689 -0.001856
690 -0.002044
691 -0.002104
692 -0.002193
693 -0.002443
694 -0.002443
695 -0.002387
696 -0.002205
697 -0.002094
698 -0.001878
699 -0.001733
700 -0.001617
701 -0.001773
702 -0.001990
703 -0.002092
704 -0.002187
705 -0.002422
706 -0.002550
707 -0.002649
708 -0.002549
709 -0.002595
710 -0.002451
711 -0.002272
712 -0.002033
713 -0.001916
714 -0.001872
715 -0.001761
716 -0.001654
717 -0.001530
718 -0.001495
719 -0.001472
720 -0.001406
721 -0.001307
722 -0.001317
723 -0.001420
724 -0.001501
725 -0.001601
726 -0.001853
727 -0.001879
728 -0.001766
729 -0.001638
730 -0.001531
731 -0.001302
732 -0.001129
733 -0.001088
734 -0.001078
735 -0.001006
736 -0.000921
737 -0.000805
738 -0.000653
739 -0.000434
740 -0.000326
741 -0.000240
742 -0.000074
743 0.000041
744 0.000220
745 0.000412
746 0.000575
747 0.000610
748 0.000747
749 0.000843
750 0.000769
751 0.000529
752 0.000489
753 0.000570
754 0.000532
755 0.000324
756 0.000256
757 0.000353
758 0.000416
759 0.000346
760 0.000330
761 0.000242
762 0.000132
763 0.000045
764 -0.000048
765 -0.000098
766 -0.000062
767 0.000043
768 -0.000000
769 -0.000135
770 -0.000238
771 -0.000264
772 -0.000270
773 -0.000317
774 -0.000232
775 -0.000064
776 0.000042
777 0.000090
778 -0.000052
779 -0.000177
780 -0.000250
781 -0.000096
782 0.000092
783 0.000186
784 0.000282
785 0.000497
786 0.000644
787 0.000697
788 0.000555
789 0.000552
790 0.000630
791 0.000723
792 0.000669
793 0.000474
794 0.000244
795 0.000152
796 0.000021
797 -0.000242
798 -0.000433
799 -0.000438
800 -0.000446
801 -0.000529
802 -0.000689
803 -0.000837
804 -0.000814
805 -0.000753
806 -0.000816
807 -0.000862
808 -0.000764
809 -0.000680
