# i correlation
1 0.013790
2 0.011264
3 0.009482
4 0.007879
5 0.006326
6 0.005205
7 0.004523
8 0.003673
9 0.003053
10 0.002674
11 0.002389
12 0.002228
13 0.001911
14 0.001763
15 0.001718
16 0.001622
17 0.001637
18 0.001637
19 0.001499
20 0.001367
21 0.001378
22 0.001658
23 0.001337
24 0.001157
25 0.000926
26 0.000766
27 0.000580
28 0.000463
29 0.000347
30 0.000203
31 0.000094
32 0.000040
33 -0.000209
34 -0.000365
35 -0.000904
36 -0.001501
37 -0.001899
38 -0.001882
39 -0.001852
40 -0.001894
41 -0.001799
42 -0.001524
43 -0.001488
44 -0.001445
45 -0.001473
46 -0.000917
47 -0.000372
48 -0.000194
49 -0.000077
50 -0.000082
51 -0.000122
52 0.000025
53 0.000363
54 0.000680
55 0.000747
56 0.000929
57 0.000911
58 0.000807
59 0.000619
60 0.000556
61 0.000735
62 0.000719
63 0.000572
64 0.000106
65 -0.000064
66 -0.000113
67 -0.000390
68 -0.000190
69 -0.000114
70 0.000068
71 0.000077
72 0.000087
73 -0.000116
74 -0.000100
75 0.000216
76 0.000654
77 0.001148
78 0.001561
79 0.001922
80 0.001919
81 0.001910
82 0.001840
83 0.001742
84 0.001338
85 0.001092
86 0.000926
87 0.000867
88 0.000854
89 0.000957
90 0.001250
91 0.001363
92 0.001345
93 0.001497
94 0.001665
95 0.001600
96 0.001533
97 0.001280
98 0.000810
99 0.000640
100 0.000518
101 0.000119
102 -0.000335
103 -0.000395
104 -0.000512
105 -0.000741
106 -0.001054
107 -0.000919
108 -0.000791
109 -0.000794
110 -0.000699
111 -0.000294
112 -0.000103
113 -0.000117
114 0.000106
115 0.000516
116 0.000871
117 0.001111
118 0.001120
119 0.001004
120 0.000798
121 0.000794
122 0.000756
123 0.000677
124 0.000867
125 0.000713
126 0.000359
127 0.000138
128 -0.000088
129 -0.000308
130 -0.000493
131 -0.000341
132 -0.000474
133 -0.000227
134 -0.000261
135 -0.000214
136 -0.000256
137 -0.000025
138 0.000071
139 0.000336
140 0.000545
141 0.000830
142 0.000871
143 0.001152
144 0.001303
145 0.001358
146 0.001474
147 0.001051
148 0.000693
149 0.000613
150 0.000479
151 0.000074
152 -0.000448
153 -0.000671
154 -0.000993
155 -0.000871
156 -0.000736
157 -0.000818
158 -0.000986
159 -0.000929
160 -0.001089
161 -0.001327
162 -0.001160
163 -0.001120
164 -0.001275
165 -0.001090
166 -0.001001
167 -0.001171
168 -0.001200
169 -0.001193
170 -0.001114
171 -0.000855
172 -0.000805
173 -0.000451
174 -0.000254
175 -0.000153
176 -0.000250
177 0.000064
178 0.000337
179 0.000428
180 0.000331
181 0.000026
182 -0.000249
183 -0.000466
184 -0.000674
185 -0.000707
186 -0.000921
187 -0.001054
188 -0.001057
189 -0.001054
190 -0.001037
191 -0.000914
192 -0.000792
193 -0.000576
194 -0.000278
195 0.000292
196 0.000748
197 0.001199
198 0.001335
199 0.001350
200 0.001294
201 0.001188
202 0.001036
203 0.000763
204 0.000546
205 0.000448
206 0.000348
207 0.000395
208 0.000230
209 0.000338
210 0.000256
211 0.000519
212 0.001103
213 0.001283
214 0.001395
215 0.001422
216 0.001366
217 0.001233
218 0.001153
219 0.001240
220 0.001283
221 0.001459
222 0.001641
223 0.001683
224 0.001759
225 0.001816
226 0.001969
227 0.002318
228 0.002501
229 0.002472
230 0.002377
231 0.002468
232 0.002614
233 0.002671
234 0.002724
235 0.002782
236 0.002773
237 0.002689
238 0.002681
239 0.002941
240 0.003121
241 0.003097
242 0.003057
243 0.003008
244 0.002632
245 0.002144
246 0.001674
247 0.001133
248 0.000823
249 0.000779
250 0.000832
251 0.000845
252 0.000859
253 0.000899
254 0.001029
255 0.001159
256 0.001234
257 0.001385
258 0.001482
259 0.001260
260 0.001322
261 0.001378
262 0.001070
263 0.000916
264 0.000912
265 0.000880
266 0.000911
267 0.000877
268 0.000977
269 0.000862
270 0.001034
271 0.001179
272 0.001138
273 0.001159
274 0.001348
275 0.001204
276 0.001227
277 0.001489
278 0.001354
279 0.001066
280 0.000819
281 0.000735
282 0.000719
283 0.000696
284 0.000575
285 0.000320
286 0.000044
287 -0.000004
288 0.000128
289 0.000596
290 0.000990
291 0.001031
292 0.001147
293 0.000990
294 0.000658
295 0.000428
296 0.000248
297 -0.000323
298 -0.000541
299 -0.000393
300 -0.000368
301 -0.000363
302 -0.000009
303 0.000312
304 0.000568
305 0.000704
306 0.000679
307 0.000592
308 0.000421
309 0.000223
310 0.000181
311 0.000537
312 0.000722
313 0.000630
314 0.000569
315 0.000709
316 0.000783
317 0.000749
318 0.000739
319 0.000811
320 0.000993
321 0.001235
322 0.001482
323 0.001591
324 0.001538
325 0.001387
326 0.001211
327 0.001054
328 0.000864
329 0.000945
330 0.000969
331 0.000877
332 0.000825
333 0.000755
334 0.000835
335 0.000884
336 0.001204
337 0.001262
338 0.001143
339 0.001083
340 0.000822
341 0.000634
342 0.000599
343 0.000570
344 0.000425
345 0.000395
346 0.000651
347 0.000776
348 0.000665
349 0.000511
350 0.000370
351 0.000460
352 0.000390
353 0.000675
354 0.000820
355 0.001005
356 0.000814
357 0.000741
358 0.000782
359 0.000746
360 0.000734
361 0.000581
362 0.000573
363 0.000506
364 0.000507
365 0.000495
366 0.000385
367 0.000440
368 0.000720
369 0.000808
370 0.000795
371 0.000733
372 0.000594
373 0.000634
374 0.000667
375 0.000545
376 0.000205
377 0.000077
378 0.000013
379 -0.000169
380 -0.000459
381 -0.000619
382 -0.000495
383 -0.000671
384 -0.000943
385 -0.001125
386 -0.001257
387 -0.001537
388 -0.001577
389 -0.001418
390 -0.001294
391 -0.001350
392 -0.001269
393 -0.001127
394 -0.000948
395 -0.000800
396 -0.000725
397 -0.000739
398 -0.000669
399 -0.000557
400 -0.000741
401 -0.000611
402 -0.000737
403 -0.001067
404 -0.001331
405 -0.001671
406 -0.001792
407 -0.001760
408 -0.001657
409 -0.001658
410 -0.001590
411 -0.001334
412 -0.001218
413 -0.001134
414 -0.000890
415 -0.000608
416 -0.000306
417 -0.000159
418 -0.000160
419 -0.000320
420 -0.000173
421 -0.000020
422 0.000123
423 0.000601
424 0.000557
425 0.000444
426 0.000394
427 0.000339
428 0.000176
429 0.000159
430 0.000119
431 -0.000180
432 -0.000454
433 -0.000365
434 -0.000369
435 -0.000324
436 -0.000175
437 -0.000108
438 -0.000106
439 -0.000052
440 0.000019
441 -0.000206
442 -0.000497
443 -0.000827
444 -0.001053
445 -0.000912
446 -0.000726
447 -0.000652
448 -0.000268
449 0.000002
450 0.000243
451 0.000512
452 0.000618
453 0.000580
454 0.000497
455 0.000649
456 0.000651
457 0.000434
458 0.000421
459 0.000143
460 -0.000238
461 -0.000414
462 -0.000231
463 -0.000206
464 -0.000118
465 -0.000025
466 -0.000040
467 0.000258
468 0.000411
469 0.000704
470 0.001080
471 0.001393
472 0.001509
473 0.001724
474 0.001679
475 0.001571
476 0.001487
477 0.001592
478 0.001793
479 0.001801
480 0.001853
481 0.001796
482 0.001881
483 0.001772
484 0.001743
485 0.001762
486 0.001893
487 0.001730
488 0.001404
489 0.001282
490 0.001090
491 0.000882
492 0.000704
493 0.000647
494 0.000441
495 0.000171
496 -0.000037
497 -0.000041
498 -0.000263
499 -0.000381
500 -0.000532
501 -0.000584
502 -0.000588
503 -0.000571
504 -0.000231
505 0.000128
506 0.000270
507 0.000273
508 0.000477
509 0.000539
510 0.000547
511 0.000661
512 0.000641
513 0.000319
514 0.000216
515 0.000034
516 -0.000088
517 -0.000033
518 0.000048
519 0.000331
520 0.000387
521 0.000182
522 -0.000289
523 -0.000638
524 -0.000873
525 -0.001191
526 -0.001446
527 -0.001526
528 -0.001370
529 -0.001211
530 -0.001109
531 -0.000891
532 -0.000540
533 -0.000178
534 0.000281
535 0.000439
536 0.000398
537 0.000254
538 0.000188
539 0.000207
540 -0.000030
541 -0.000002
542 -0.000006
543 -0.000049
544 0.000064
545 -0.000039
546 -0.000116
547 -0.000112
548 0.000063
549 -0.000019
550 0.000041
551 0.000191
552 0.000377
553 0.000481
554 0.000522
555 0.000360
556 0.000266
557 0.000200
558 0.000382
559 0.000562
560 0.000657
561 0.000799
562 0.000895
563 0.000989
564 0.001060
565 0.000985
566 0.000943
567 0.001076
568 0.001118
569 0.001102
570 0.001146
571 0.001061
572 0.000978
573 0.000942
574 0.000805
575 0.000707
576 0.000737
577 0.000690
578 0.000437
579 0.000396
580 0.000364
581 0.000298
582 0.000295
583 0.000090
584 -0.000199
585 -0.000309
586 -0.000246
587 -0.000223
588 -0.000210
589 -0.000140
590 -0.000132
591 -0.000009
592 0.000019
593 0.000227
594 0.000630
595 0.000929
596 0.001125
597 0.001286
598 0.001213
599 0.001103
600 0.001045
601 0.001118
602 0.001104
603 0.000934
604 0.000861
605 0.000795
606 0.000817
607 0.000849
608 0.000844
609 0.000680
610 0.000689
611 0.000799
612 0.000680
613 0.000730
614 0.000735
615 0.000623
616 0.000236
617 -0.000179
618 -0.000410
619 -0.000601
620 -0.000761
621 -0.000856
622 -0.000953
623 -0.000966
624 -0.000911
625 -0.000841
626 -0.000696
627 -0.000606
628 -0.000470
629 -0.000292
630 -0.000173
631 -0.000135
632 -0.000216
633 -0.000226
634 -0.000320
635 -0.000323
636 -0.000304
637 -0.000410
638 -0.000529
639 -0.000760
640 -0.001036
641 -0.001224
642 -0.001305
643 -0.001537
644 -0.001793
645 -0.001981
646 -0.002129
647 -0.002031
648 -0.001847
649 -0.001485
650 -0.001049
651 -0.000800
652 -0.000492
653 -0.000215
654 -0.000022
655 0.000102
656 0.000133
657 0.000243
658 0.000254
659 0.000270
660 0.000250
661 0.000045
662 -0.000073
663 -0.000270
664 -0.000326
665 -0.000485
666 -0.000662
667 -0.000739
668 -0.000807
669 -0.000775
670 -0.000598
671 -0.000508
672 -0.000373
673 -0.000248
674 -0.000254
675 -0.000280
676 -0.000177
677 -0.000120
678 -0.000086
679 -0.000012
680 0.000017
681 0.000025
682 0.000107
683 0.000321
684 0.000538
685 0.000731
686 0.000788
687 0.000890
688 0.000950
689 0.001023
690 0.001073
691 0.001143
692 0.001072
693 0.001061
694 0.001076
695 0.000999
696 0.000869
697 0.000854
698 0.000679
699 0.000498
700 0.000312
701 0.000139
702 -0.000013
703 -0.000091
704 0.000107
705 0.000227
706 0.000492
707 0.000549
708 0.000549
709 0.000478
710 0.000602
711 0.000693
712 0.000763
713 0.000785
714 0.000683
715 0.000417
716 0.000202
717 0.000134
718 0.000122
719 0.000061
720 -0.000061
721 -0.000167
722 -0.000401
723 -0.000670
724 -0.000867
725 -0.000880
726 -0.000870
727 -0.000721
728 -0.000625
729 -0.000526
730 -0.000481
731 -0.000461
732 -0.000415
733 -0.000441
734 -0.000529
735 -0.000573
736 -0.000584
737 -0.000596
738 -0.000525
739 -0.000391
740 -0.000293
741 -0.000132
742 -0.000083
743 -0.000117
744 -0.000006
745 0.000070
746 0.000039
747 0.000133
748 0.000234
749 0.000229
750 0.000388
751 0.000533
752 0.000519
753 0.000470
754 0.000493
755 0.000366
756 0.000179
757 0.000026
758 -0.000159
759 -0.000256
760 -0.000381
761 -0.000404
762 -0.000459
763 -0.000486
764 -0.000550
765 -0.000576
766 -0.000474
767 -0.000492
768 -0.000624
769 -0.000583
770 -0.000510
771 -0.000464
772 -0.000427
773 -0.000321
774 -0.000100
775 -0.000058
776 0.000124
777 0.000187
778 0.000203
779 0.000091
780 -0.000010
781 -0.000050
782 -0.000140
783 -0.000103
784 0.000009
785 0.000103
786 0.000092
787 0.000091
788 0.000173
789 0.000231
790 0.000187
791 0.000181
792 0.000255
793 0.000403
794 0.000510
795 0.000646
796 0.000738
797 0.000903
798 0.001018
799 0.001000
800 0.000997
801 0.001040
802 0.000944
803 0.000847
804 0.000852
805 0.000822
806 0.000627
807 0.000451
808 0.000430
809 0.000411
