# i correlation
1 0.019385
2 0.016795
3 0.014713
4 0.012641
5 0.011037
6 0.009483
7 0.007987
8 0.006835
9 0.005967
10 0.004942
11 0.004181
12 0.003715
13 0.003519
14 0.003433
15 0.003251
16 0.002919
17 0.002927
18 0.002911
19 0.002465
20 0.001917
21 0.001754
22 0.001620
23 0.001450
24 0.001320
25 0.001090
26 0.001092
27 0.001162
28 0.001243
29 0.001621
30 0.001983
31 0.002239
32 0.002905
33 0.003283
34 0.003616
35 0.003714
36 0.003764
37 0.003604
38 0.003351
39 0.003017
40 0.002694
41 0.002650
42 0.002480
43 0.002460
44 0.002521
45 0.002272
46 0.002241
47 0.002619
48 0.002800
49 0.002733
50 0.003017
51 0.003105
52 0.003363
53 0.003518
54 0.003497
55 0.003515
56 0.003490
57 0.003215
58 0.003145
59 0.003142
60 0.003082
61 0.002807
62 0.002907
63 0.002955
64 0.003152
65 0.003758
66 0.004191
67 0.004460
68 0.004833
69 0.005016
70 0.005138
71 0.005088
72 0.005004
73 0.004934
74 0.004583
75 0.004281
76 0.003918
77 0.003694
78 0.003400
79 0.003140
80 0.002944
81 0.002999
82 0.002918
83 0.003100
84 0.003244
85 0.003364
86 0.003434
87 0.003290
88 0.002971
89 0.002687
90 0.002208
91 0.001836
92 0.001458
93 0.000900
94 0.000615
95 0.000318
96 0.000076
97 -0.000215
98 -0.000580
99 -0.000789
100 -0.000751
101 -0.000575
102 -0.000153
103 0.000387
104 0.000769
105 0.001298
106 0.001784
107 0.002215
108 0.002286
109 0.002166
110 0.001944
111 0.001973
112 0.002170
113 0.002326
114 0.002434
115 0.002399
116 0.002216
117 0.002218
118 0.002383
119 0.002666
120 0.003205
121 0.003634
122 0.003730
123 0.003621
124 0.003614
125 0.003640
126 0.003641
127 0.003543
128 0.003479
129 0.003364
130 0.003259
131 0.003399
132 0.002948
133 0.002619
134 0.002173
135 0.001930
136 0.001727
137 0.001639
138 0.001582
139 0.001487
140 0.001523
141 0.001479
142 0.001376
143 0.001304
144 0.001568
145 0.002048
146 0.002265
147 0.002333
148 0.002403
149 0.002520
150 0.002376
151 0.002227
152 0.001947
153 0.001775
154 0.002082
155 0.002443
156 0.002384
157 0.002177
158 0.002168
159 0.001943
160 0.001635
161 0.001462
162 0.001311
163 0.001138
164 0.001230
165 0.001159
166 0.000937
167 0.001185
168 0.001302
169 0.001454
170 0.001618
171 0.001805
172 0.002235
173 0.002540
174 0.002600
175 0.002718
176 0.002654
177 0.002566
178 0.002681
179 0.003040
180 0.003387
181 0.003551
182 0.003563
183 0.003534
184 0.003381
185 0.003162
186 0.003157
187 0.003094
188 0.003163
189 0.003223
190 0.003279
191 0.003492
192 0.003663
193 0.004069
194 0.004246
195 0.004016
196 0.003829
197 0.003754
198 0.003844
199 0.003810
200 0.003691
201 0.003686
202 0.003597
203 0.003610
204 0.003529
205 0.003186
206 0.002768
207 0.002624
208 0.002330
209 0.001775
210 0.001197
211 0.000845
212 0.000478
213 0.000098
214 -0.000085
215 0.000048
216 0.000406
217 0.000737
218 0.000781
219 0.000729
220 0.000791
221 0.000797
222 0.000985
223 0.001374
224 0.001634
225 0.001953
226 0.002148
227 0.002321
228 0.002300
229 0.002110
230 0.002142
231 0.001978
232 0.002042
233 0.002057
234 0.002106
235 0.002187
236 0.002341
237 0.002624
238 0.003077
239 0.003439
240 0.003956
241 0.004581
242 0.004727
243 0.004686
244 0.004480
245 0.004593
246 0.004403
247 0.004075
248 0.003872
249 0.003544
250 0.003317
251 0.003233
252 0.003119
253 0.002917
254 0.002646
255 0.002376
256 0.001954
257 0.001628
258 0.001367
259 0.001171
260 0.001028
261 0.000667
262 0.000548
263 0.000617
264 0.000565
265 0.000415
266 0.000533
267 0.000763
268 0.000951
269 0.001299
270 0.001626
271 0.002026
272 0.002186
273 0.002373
274 0.002438
275 0.002628
276 0.002884
277 0.003254
278 0.003072
279 0.002746
280 0.002458
281 0.001982
282 0.001682
283 0.001295
284 0.001055
285 0.001148
286 0.001176
287 0.001046
288 0.000819
289 0.000619
290 0.000439
291 -0.000017
292 -0.000364
293 -0.000489
294 -0.000653
295 -0.000563
296 -0.000589
297 -0.000789
298 -0.000812
299 -0.000943
300 -0.000860
301 -0.000708
302 -0.000536
303 -0.000213
304 0.000106
305 0.000417
306 0.000640
307 0.000879
308 0.000973
309 0.001041
310 0.001136
311 0.001102
312 0.001222
313 0.001510
314 0.001743
315 0.001933
316 0.002096
317 0.002382
318 0.002557
319 0.002915
320 0.003047
321 0.002945
322 0.003024
323 0.002908
324 0.002840
325 0.002756
326 0.002494
327 0.002297
328 0.002201
329 0.002324
330 0.002334
331 0.002546
332 0.002524
333 0.002216
334 0.002085
335 0.002013
336 0.001931
337 0.002006
338 0.001906
339 0.001719
340 0.001375
341 0.001008
342 0.000641
343 0.000317
344 0.000175
345 0.000056
346 0.000199
347 0.000449
348 0.000804
349 0.001180
350 0.001461
351 0.001674
352 0.002069
353 0.002418
354 0.002536
355 0.002586
356 0.002700
357 0.002473
358 0.002442
359 0.002117
360 0.001816
361 0.001606
362 0.001472
363 0.001394
364 0.001001
365 0.000833
366 0.000803
367 0.000783
368 0.000794
369 0.001044
370 0.001357
371 0.001799
372 0.002236
373 0.002490
374 0.002654
375 0.002657
376 0.002572
377 0.002359
378 0.002121
379 0.002017
380 0.001866
381 0.001640
382 0.001679
383 0.001570
384 0.001520
385 0.001513
386 0.001408
387 0.001443
388 0.001587
389 0.001543
390 0.001585
391 0.001741
392 0.001770
393 0.001642
394 0.001456
395 0.001289
396 0.001275
397 0.001633
398 0.001704
399 0.001790
400 0.001865
401 0.001736
402 0.001708
403 0.001631
404 0.001500
405 0.001391
406 0.001579
407 0.001523
408 0.001500
409 0.001450
410 0.001405
411 0.001228
412 0.000969
413 0.000548
414 0.000284
415 0.000045
416 -0.000260
417 -0.000462
418 -0.000496
419 -0.000648
420 -0.000643
421 -0.000443
422 -0.000242
423 0.000064
424 0.000457
425 0.000901
426 0.001172
427 0.001450
428 0.001556
429 0.001542
430 0.001416
431 0.001302
432 0.001261
433 0.001068
434 0.000946
435 0.001076
436 0.001032
437 0.000835
438 0.000882
439 0.000965
440 0.001054
441 0.001210
442 0.001380
443 0.001647
444 0.001951
445 0.001970
446 0.001736
447 0.001596
448 0.001417
449 0.001228
450 0.001176
451 0.000936
452 0.000755
453 0.000789
454 0.000750
455 0.000587
456 0.000636
457 0.000821
458 0.000970
459 0.001070
460 0.001144
461 0.001114
462 0.001184
463 0.001082
464 0.000862
465 0.000859
466 0.000953
467 0.000868
468 0.000832
469 0.000590
470 0.000423
471 0.000334
472 0.000071
473 -0.000082
474 -0.000320
475 -0.000482
476 -0.000555
477 -0.000450
478 -0.000393
479 -0.000399
480 -0.000293
481 -0.000186
482 -0.000126
483 -0.000096
484 -0.000187
485 -0.000459
486 -0.000694
487 -0.000875
488 -0.001054
489 -0.001137
490 -0.001231
491 -0.001180
492 -0.001152
493 -0.000783
494 -0.000533
495 -0.000295
496 -0.000095
497 0.000041
498 0.000183
499 0.000248
500 0.000446
501 0.000514
502 0.000620
503 0.000780
504 0.000918
505 0.000974
506 0.000813
507 0.000712
508 0.000624
509 0.000617
510 0.000782
511 0.001019
512 0.001167
513 0.001294
514 0.001473
515 0.001558
516 0.001525
517 0.001592
518 0.001653
519 0.001452
520 0.001162
521 0.000931
522 0.000769
523 0.000751
524 0.000707
525 0.000856
526 0.000946
527 0.001035
528 0.001007
529 0.000896
530 0.000914
531 0.000933
532 0.000834
533 0.000689
534 0.000339
535 0.000035
536 -0.000204
537 -0.000461
538 -0.000713
539 -0.000958
540 -0.001176
541 -0.001459
542 -0.001768
543 -0.001845
544 -0.001919
545 -0.001841
546 -0.001574
547 -0.001337
548 -0.001269
549 -0.001232
550 -0.001337
551 -0.001313
552 -0.001205
553 -0.001155
554 -0.001038
555 -0.000751
556 -0.000473
557 -0.000165
558 0.000097
559 0.000417
560 0.000615
561 0.000780
562 0.000949
563 0.001110
564 0.001249
565 0.001402
566 0.001478
567 0.001455
568 0.001301
569 0.001231
570 0.001366
571 0.001473
572 0.001728
573 0.002060
574 0.002273
575 0.002419
576 0.002487
577 0.002523
578 0.002594
579 0.002667
580 0.002745
581 0.002613
582 0.002350
583 0.002114
584 0.001905
585 0.001756
586 0.001492
587 0.001229
588 0.000974
589 0.000895
590 0.001007
591 0.001116
592 0.001145
593 0.001268
594 0.001405
595 0.001478
596 0.001482
597 0.001379
598 0.001406
599 0.001585
600 0.001617
601 0.001455
602 0.001490
603 0.001365
604 0.001196
605 0.001021
606 0.000741
607 0.000683
608 0.000643
609 0.000370
610 0.000078
611 -0.000077
612 -0.000300
613 -0.000529
614 -0.000644
615 -0.000790
616 -0.000969
617 -0.001091
618 -0.001260
619 -0.001497
620 -0.001610
621 -0.001590
622 -0.001481
623 -0.001394
624 -0.001321
625 -0.001240
626 -0.001047
627 -0.000808
628 -0.000617
629 -0.000356
630 -0.000084
631 0.000127
632 0.000282
633 0.000302
634 0.000122
635 -0.000069
636 -0.000123
637 -0.000161
638 -0.000077
639 -0.000034
640 0.000049
641 0.000034
642 0.000103
643 0.000135
644 0.000299
645 0.000513
646 0.000645
647 0.000792
648 0.000827
649 0.000784
650 0.000638
651 0.000539
652 0.000293
653 -0.000016
654 -0.000240
655 -0.000420
656 -0.000600
657 -0.000809
658 -0.000930
659 -0.000932
660 -0.000819
661 -0.000720
662 -0.000669
663 -0.000638
664 -0.000650
665 -0.000610
666 -0.000532
667 -0.000638
668 -0.000703
669 -0.000888
670 -0.000996
671 -0.001266
672 -0.001421
673 -0.001455
674 -0.001536
675 -0.001600
676 -0.001640
677 -0.001467
678 -0.001378
679 -0.001299
680 -0.001118
681 -0.001071
682 -0.001015
683 -0.000993
684 -0.000975
685 -0.000785
686 -0.000656
687 -0.000563
688 -0.000466
689 -0.000588
690 -0.000878
691 -0.001154
692 -0.001347
693 -0.001433
694 -0.001396
695 -0.001402
696 -0.001372
697 -0.001250
698 -0.001043
699 -0.000902
700 -0.000767
701 -0.000692
702 -0.000533
703 -0.000444
704 -0.000443
705 -0.000412
706 -0.000430
707 -0.000307
708 -0.000322
709 -0.000493
710 -0.000635
711 -0.000628
712 -0.000615
713 -0.000591
714 -0.000449
715 -0.000403
716 -0.000373
717 -0.000426
718 -0.000449
719 -0.000501
720 -0.000482
721 -0.000434
722 -0.000498
723 -0.000669
724 -0.000944
725 -0.001066
726 -0.001147
727 -0.001161
728 -0.001029
729 -0.000964
730 -0.000949
731 -0.000921
732 -0.000933
733 -0.000845
734 -0.000768
735 -0.000827
736 -0.000895
737 -0.000956
738 -0.000973
739 -0.001044
740 -0.001114
741 -0.001202
742 -0.001273
743 -0.001236
744 -0.001113
745 -0.000862
746 -0.000736
747 -0.000646
748 -0.000539
749 -0.000455
750 -0.000297
751 -0.000099
752 0.000059
753 0.000194
754 0.000368
755 0.000506
756 0.000497
757 0.000398
758 0.000319
759 0.000186
760 0.000082
761 -0.000064
762 -0.000152
763 -0.000158
764 -0.000203
765 -0.000321
766 -0.000341
767 -0.000423
768 -0.000455
769 -0.000373
770 -0.000327
771 -0.000243
772 -0.000120
773 -0.000074
774 -0.000094
775 -0.000144
776 -0.000288
777 -0.000349
778 -0.000398
779 -0.000464
780 -0.000519
781 -0.000451
782 -0.000449
783 -0.000448
784 -0.000421
785 -0.000371
786 -0.000273
787 -0.000199
788 -0.000078
789 -0.000049
790 -0.000135
791 -0.000135
792 -0.000209
793 -0.000320
794 -0.000437
795 -0.000558
796 -0.000632
797 -0.000605
798 -0.000540
799 -0.000525
800 -0.000428
801 -0.000292
802 -0.000073
803 0.000192
804 0.000304
805 0.000347
806 0.000366
807 0.000341
808 0.000324
809 0.000298
