# i correlation
1 0.022736
2 0.020134
3 0.018102
4 0.016087
5 0.014530
6 0.013368
7 0.012368
8 0.011521
9 0.010523
10 0.009697
11 0.009180
12 0.008607
13 0.007936
14 0.007431
15 0.006780
16 0.006233
17 0.005900
18 0.005705
19 0.005384
20 0.005235
21 0.004924
22 0.004851
23 0.004569
24 0.004419
25 0.004283
26 0.003746
27 0.003645
28 0.003793
29 0.003799
30 0.004078
31 0.004184
32 0.003637
33 0.002765
34 0.002318
35 0.002010
36 0.002070
37 0.002423
38 0.002756
39 0.002605
40 0.002613
41 0.002246
42 0.002336
43 0.002162
44 0.001966
45 0.001967
46 0.002263
47 0.002428
48 0.002319
49 0.002380
50 0.002491
51 0.002385
52 0.002250
53 0.002078
54 0.002212
55 0.002345
56 0.002026
57 0.002036
58 0.002082
59 0.002196
60 0.002540
61 0.002743
62 0.003232
63 0.003350
64 0.003119
65 0.003335
66 0.003438
67 0.003922
68 0.004644
69 0.004918
70 0.005136
71 0.005162
72 0.005060
73 0.004961
74 0.004896
75 0.004117
76 0.003805
77 0.003756
78 0.003798
79 0.003808
80 0.003681
81 0.003470
82 0.003572
83 0.003486
84 0.003467
85 0.003785
86 0.004230
87 0.004392
88 0.004227
89 0.004212
90 0.004131
91 0.004190
92 0.004831
93 0.005164
94 0.005287
95 0.004997
96 0.004763
97 0.004743
98 0.004740
99 0.004611
100 0.004186
101 0.003711
102 0.002977
103 0.002499
104 0.002183
105 0.002080
106 0.001784
107 0.001583
108 0.001501
109 0.001227
110 0.001191
111 0.001107
112 0.000898
113 0.000643
114 0.000774
115 0.000815
116 0.000938
117 0.001371
118 0.001409
119 0.001124
120 0.001293
121 0.000929
122 0.000787
123 0.000663
124 0.000635
125 0.000605
126 0.000230
127 -0.000160
128 -0.000488
129 -0.000713
130 -0.001052
131 -0.001202
132 -0.001130
133 -0.001283
134 -0.001462
135 -0.001579
136 -0.001315
137 -0.001155
138 -0.001105
139 -0.001068
140 -0.001199
141 -0.001259
142 -0.001540
143 -0.001693
144 -0.001547
145 -0.001354
146 -0.001230
147 -0.001188
148 -0.001261
149 -0.001578
150 -0.001781
151 -0.002062
152 -0.002088
153 -0.002388
154 -0.002530
155 -0.002225
156 -0.002090
157 -0.002067
158 -0.001734
159 -0.001212
160 -0.000761
161 -0.000358
162 -0.000301
163 -0.000167
164 -0.000085
165 -0.000059
166 0.000309
167 0.000372
168 0.000339
169 0.000426
170 0.000384
171 0.000699
172 0.001127
173 0.001418
174 0.001661
175 0.002022
176 0.001924
177 0.001773
178 0.001655
179 0.001564
180 0.001423
181 0.000951
182 0.000828
183 0.000798
184 0.000545
185 0.000466
186 0.000498
187 0.000349
188 0.000320
189 0.000417
190 0.000623
191 0.000929
192 0.001163
193 0.000987
194 0.000904
195 0.000481
196 -0.000020
197 -0.000279
198 -0.000647
199 -0.001315
200 -0.002037
201 -0.002672
202 -0.003013
203 -0.003202
204 -0.003234
205 -0.003459
206 -0.003437
207 -0.003558
208 -0.003482
209 -0.003219
210 -0.003418
211 -0.003665
212 -0.003771
213 -0.003937
214 -0.003722
215 -0.003630
216 -0.003766
217 -0.003910
218 -0.003741
219 -0.003684
220 -0.003698
221 -0.003487
222 -0.003007
223 -0.002651
224 -0.002632
225 -0.002549
226 -0.002553
227 -0.002858
228 -0.002927
229 -0.002699
230 -0.002482
231 -0.002429
232 -0.002163
233 -0.002125
234 -0.001850
235 -0.001820
236 -0.001765
237 -0.001449
238 -0.001420
239 -0.001340
240 -0.000964
241 -0.001077
242 -0.001162
243 -0.001112
244 -0.000993
245 -0.000720
246 -0.000456
247 -0.000323
248 -0.000738
249 -0.001096
250 -0.001462
251 -0.001740
252 -0.001920
253 -0.001837
254 -0.001692
255 -0.001895
256 -0.001805
257 -0.001785
258 -0.001790
259 -0.001618
260 -0.001149
261 -0.000556
262 -0.000116
263 0.000106
264 0.000328
265 0.000633
266 0.000673
267 0.000612
268 0.000714
269 0.000625
270 0.000605
271 0.000544
272 0.000752
273 0.000485
274 0.000177
275 0.000174
276 0.000104
277 0.000276
278 0.000291
279 -0.000098
280 -0.000505
281 -0.000816
282 -0.001178
283 -0.001371
284 -0.001298
285 -0.001184
286 -0.001063
287 -0.000980
288 -0.001181
289 -0.001300
290 -0.001353
291 -0.001395
292 -0.001396
293 -0.001587
294 -0.001979
295 -0.002293
296 -0.002511
297 -0.002583
298 -0.002875
299 -0.002917
300 -0.002713
301 -0.002864
302 -0.002977
303 -0.002954
304 -0.002987
305 -0.002981
306 -0.002770
307 -0.002297
308 -0.001799
309 -0.001300
310 -0.000864
311 -0.000265
312 0.000163
313 0.000061
314 0.000064
315 0.000242
316 0.000150
317 0.000168
318 0.000213
319 0.000381
320 0.000255
321 0.000082
322 0.000226
323 0.000353
324 0.000498
325 0.000425
326 0.000494
327 0.000579
328 0.000603
329 0.000828
330 0.001192
331 0.001375
332 0.001605
333 0.001741
334 0.001975
335 0.002274
336 0.002331
337 0.002358
338 0.002409
339 0.002555
340 0.002623
341 0.002619
342 0.002641
343 0.002661
344 0.002364
345 0.002218
346 0.002160
347 0.002129
348 0.001743
349 0.001659
350 0.001285
351 0.001039
352 0.000867
353 0.000674
354 0.000765
355 0.000871
356 0.000654
357 0.001129
358 0.001392
359 0.001516
360 0.001521
361 0.001601
362 0.001237
363 0.000982
364 0.000923
365 0.000824
366 0.000649
367 0.000656
368 0.000508
369 0.000688
370 0.000752
371 0.000848
372 0.000943
373 0.001023
374 0.000839
375 0.000562
376 0.000189
377 0.000102
378 0.000100
379 0.000384
380 0.000688
381 0.000922
382 0.001191
383 0.001548
384 0.001756
385 0.002163
386 0.002072
387 0.001877
388 0.001555
389 0.001463
390 0.001148
391 0.000856
392 0.000612
393 0.000410
394 0.000009
395 0.000039
396 -0.000068
397 0.000215
398 0.000434
399 0.000241
400 0.000037
401 0.000157
402 0.000159
403 0.000100
404 0.000220
405 0.000340
406 0.000477
407 0.000742
408 0.000926
409 0.001258
410 0.001366
411 0.001396
412 0.001429
413 0.001101
414 0.000945
415 0.000709
416 0.000644
417 0.000802
418 0.000979
419 0.001153
420 0.001541
421 0.001463
422 0.001563
423 0.001718
424 0.001416
425 0.001304
426 0.001252
427 0.001532
428 0.001630
429 0.001620
430 0.001291
431 0.001418
432 0.001353
433 0.001123
434 0.001097
435 0.001087
436 0.001176
437 0.001423
438 0.001574
439 0.001722
440 0.001752
441 0.001466
442 0.001161
443 0.000916
444 0.000649
445 0.000418
446 0.000151
447 0.000034
448 0.000033
449 -0.000104
450 -0.000264
451 -0.000224
452 -0.000138
453 -0.000140
454 -0.000360
455 -0.000519
456 -0.000437
457 -0.000502
458 -0.000447
459 -0.000413
460 -0.000430
461 -0.000638
462 -0.000726
463 -0.000863
464 -0.000894
465 -0.000816
466 -0.000914
467 -0.000836
468 -0.000888
469 -0.000542
470 -0.000404
471 -0.000415
472 -0.000565
473 -0.000831
474 -0.000971
475 -0.001067
476 -0.001086
477 -0.000885
478 -0.000728
479 -0.000493
480 -0.000439
481 -0.000282
482 -0.000233
483 -0.000279
484 -0.000110
485 -0.000032
486 0.000175
487 0.000291
488 0.000215
489 0.000150
490 0.000399
491 0.000711
492 0.000492
493 0.000445
494 0.000376
495 0.000197
496 0.000307
497 0.000502
498 0.000690
499 0.000970
500 0.001223
501 0.001640
502 0.001845
503 0.001850
504 0.002017
505 0.002372
506 0.002672
507 0.002942
508 0.003191
509 0.003484
510 0.003508
511 0.003367
512 0.003185
513 0.002909
514 0.002611
515 0.002577
516 0.002355
517 0.002141
518 0.001961
519 0.001931
520 0.001632
521 0.001469
522 0.001261
523 0.000807
524 0.000452
525 0.000137
526 -0.000108
527 -0.000493
528 -0.000776
529 -0.000919
530 -0.000978
531 -0.001005
532 -0.001012
533 -0.001089
534 -0.001152
535 -0.001523
536 -0.001865
537 -0.001903
538 -0.001933
539 -0.002089
540 -0.002297
541 -0.002465
542 -0.002714
543 -0.002799
544 -0.002870
545 -0.002996
546 -0.002985
547 -0.002781
548 -0.002681
549 -0.002546
550 -0.002480
551 -0.002241
552 -0.001958
553 -0.001783
554 -0.001714
555 -0.001521
556 -0.001090
557 -0.000826
558 -0.000625
559 -0.000297
560 -0.000259
561 -0.000093
562 -0.000118
563 -0.000125
564 -0.000096
565 -0.000139
566 -0.000401
567 -0.000591
568 -0.000613
569 -0.000693
570 -0.000813
571 -0.000963
572 -0.001013
573 -0.000965
574 -0.001024
575 -0.000791
576 -0.000620
577 -0.000329
578 -0.000040
579 0.000286
580 0.000463
581 0.000605
582 0.000633
583 0.000842
584 0.000980
585 0.000806
586 0.000676
587 0.000686
588 0.000571
589 0.000640
590 0.000531
591 0.000405
592 0.000406
593 0.000439
594 0.000602
595 0.000781
596 0.000797
597 0.000785
598 0.000714
599 0.000687
600 0.000679
601 0.000830
602 0.000899
603 0.000960
604 0.000902
605 0.000841
606 0.000814
607 0.000837
608 0.000809
609 0.000776
610 0.000669
611 0.000912
612 0.000906
613 0.000948
614 0.001026
615 0.001067
616 0.000963
617 0.000815
618 0.000608
619 0.000519
620 0.000443
621 0.000165
622 0.000004
623 -0.000008
624 0.000100
625 0.000112
626 0.000074
627 -0.000169
628 -0.000721
629 -0.000956
630 -0.001144
631 -0.001202
632 -0.001191
633 -0.001224
634 -0.001342
635 -0.001428
636 -0.001606
637 -0.001734
638 -0.001867
639 -0.002012
640 -0.002281
641 -0.002392
642 -0.002193
643 -0.002028
644 -0.001827
645 -0.001541
646 -0.001137
647 -0.000796
648 -0.000538
649 -0.000284
650 -0.000001
651 0.000348
652 0.000673
653 0.000805
654 0.001005
655 0.001027
656 0.000913
657 0.000934
658 0.000801
659 0.000525
660 0.000325
661 0.000266
662 0.000249
663 0.000234
664 0.000155
665 0.000107
666 0.000273
667 0.000285
668 0.000213
669 0.000374
670 0.000478
671 0.000666
672 0.000716
673 0.001030
674 0.001460
675 0.001783
676 0.002038
677 0.002097
678 0.002143
679 0.002338
680 0.002451
681 0.002575
682 0.002651
683 0.002814
684 0.002951
685 0.003076
686 0.002986
687 0.002906
688 0.002851
689 0.002802
690 0.002619
691 0.002331
692 0.002092
693 0.001950
694 0.002116
695 0.002200
696 0.002074
697 0.002083
698 0.002093
699 0.002099
700 0.002064
701 0.001894
702 0.001790
703 0.001784
704 0.001855
705 0.001917
706 0.001898
707 0.001919
708 0.001696
709 0.001615
710 0.001461
711 0.001197
712 0.001006
713 0.000797
714 0.000610
715 0.000473
716 0.000514
717 0.000381
718 0.000356
719 0.000297
720 0.000313
721 0.000222
722 0.000038
723 -0.000097
724 -0.000172
725 -0.000302
726 -0.000445
727 -0.000568
728 -0.000567
729 -0.000638
730 -0.000719
731 -0.000612
732 -0.000596
733 -0.000652
734 -0.000503
735 -0.000529
736 -0.000390
737 -0.000286
738 -0.000077
739 0.000108
740 0.000427
741 0.000779
742 0.001033
743 0.001123
744 0.001322
745 0.001351
746 0.001317
747 0.001380
748 0.001280
749 0.001230
750 0.001231
751 0.001101
752 0.001087
753 0.001117
754 0.001055
755 0.000995
756 0.001057
757 0.000989
758 0.000888
759 0.000828
760 0.000646
761 0.000502
762 0.000617
763 0.000657
764 0.000610
765 0.000620
766 0.000638
767 0.000722
768 0.000828
769 0.000870
770 0.001085
771 0.001252
772 0.001487
773 0.001711
774 0.001865
775 0.001952
776 0.001975
777 0.002108
778 0.002277
779 0.002324
780 0.002410
781 0.002648
782 0.002796
783 0.002975
784 0.003082
785 0.002976
786 0.002876
787 0.002719
788 0.002653
789 0.002453
790 0.002325
791 0.002287
792 0.002316
793 0.002319
794 0.002209
795 0.001978
796 0.001757
797 0.001608
798 0.001455
799 0.001394
800 0.001252
801 0.001126
802 0.000979
803 0.000996
804 0.000931
805 0.000946
806 0.000860
807 0.000766
808 0.000750
809 0.000729
