# i correlation
1 0.018602
2 0.015829
3 0.013614
4 0.011958
5 0.010451
6 0.008934
7 0.007261
8 0.005739
9 0.004729
10 0.004289
11 0.003884
12 0.003617
13 0.003609
14 0.003473
15 0.003206
16 0.003098
17 0.002826
18 0.002534
19 0.002195
20 0.001768
21 0.001038
22 0.000805
23 0.000513
24 0.000160
25 0.000042
26 0.000134
27 0.000183
28 0.000246
29 0.000408
30 0.000359
31 0.000274
32 0.000457
33 0.000509
34 0.000334
35 0.000388
36 0.000364
37 0.000462
38 0.000438
39 0.000282
40 -0.000213
41 -0.000151
42 0.000053
43 0.000442
44 0.000741
45 0.001079
46 0.001295
47 0.001586
48 0.002333
49 0.002751
50 0.002775
51 0.002915
52 0.002797
53 0.002673
54 0.002614
55 0.002491
56 0.002333
57 0.002270
58 0.002201
59 0.002008
60 0.001722
61 0.001295
62 0.001245
63 0.001010
64 0.000729
65 0.000522
66 0.000142
67 -0.000351
68 -0.000921
69 -0.001630
70 -0.002342
71 -0.002931
72 -0.003508
73 -0.003593
74 -0.003606
75 -0.003608
76 -0.003268
77 -0.002754
78 -0.002519
79 -0.002336
80 -0.002221
81 -0.002155
82 -0.002229
83 -0.002338
84 -0.002354
85 -0.002577
86 -0.002728
87 -0.002833
88 -0.002960
89 -0.002803
90 -0.002322
91 -0.001611
92 -0.001049
93 -0.000661
94 -0.000529
95 -0.000135
96 0.000249
97 0.000551
98 0.000544
99 0.000226
100 -0.000044
101 -0.000177
102 -0.000352
103 -0.000192
104 -0.000025
105 0.000167
106 0.000098
107 -0.000076
108 -0.000169
109 -0.000300
110 -0.000133
111 0.000223
112 0.000487
113 0.000377
114 0.000591
115 0.000454
116 0.000283
117 0.000346
118 0.000388
119 0.000301
120 -0.000080
121 -0.000296
122 -0.000503
123 -0.000558
124 -0.000658
125 -0.000822
126 -0.000994
127 -0.001075
128 -0.001130
129 -0.001254
130 -0.001621
131 -0.002002
132 -0.002323
133 -0.002468
134 -0.002161
135 -0.002031
136 -0.002382
137 -0.002542
138 -0.002727
139 -0.002691
140 -0.002573
141 -0.002235
142 -0.001772
143 -0.001350
144 -0.001001
145 -0.000909
146 -0.000752
147 -0.000786
148 -0.000978
149 -0.000994
150 -0.001001
151 -0.001215
152 -0.001551
153 -0.001407
154 -0.001024
155 -0.000664
156 -0.000191
157 0.000284
158 0.000899
159 0.001532
160 0.002442
161 0.003105
162 0.003328
163 0.003070
164 0.002725
165 0.002229
166 0.001895
167 0.001620
168 0.001258
169 0.000579
170 0.000381
171 0.000382
172 0.000842
173 0.000839
174 0.000755
175 0.000443
176 0.000694
177 0.000987
178 0.001211
179 0.001175
180 0.000900
181 0.000799
182 0.000653
183 0.000671
184 0.000673
185 0.000432
186 0.000313
187 0.000101
188 0.000156
189 -0.000052
190 -0.000464
191 -0.000614
192 -0.000510
193 -0.000426
194 -0.000269
195 -0.000368
196 -0.000467
197 -0.000618
198 -0.000775
199 -0.000750
200 -0.001004
201 -0.001031
202 -0.000799
203 -0.000468
204 -0.000224
205 0.000136
206 0.000399
207 0.000523
208 0.000754
209 0.001084
210 0.001414
211 0.001544
212 0.001668
213 0.001552
214 0.001215
215 0.001148
216 0.001056
217 0.000716
218 0.000658
219 0.000712
220 0.000869
221 0.000929
222 0.000844
223 0.000494
224 0.000097
225 -0.000291
226 -0.000520
227 -0.000873
228 -0.001369
229 -0.001815
230 -0.002126
231 -0.002476
232 -0.002329
233 -0.002456
234 -0.002664
235 -0.002813
236 -0.002916
237 -0.002744
238 -0.002650
239 -0.002566
240 -0.002381
241 -0.002241
242 -0.002191
243 -0.002514
244 -0.002945
245 -0.002990
246 -0.002981
247 -0.003002
248 -0.003151
249 -0.003317
250 -0.003451
251 -0.003150
252 -0.002659
253 -0.002399
254 -0.001952
255 -0.001507
256 -0.001027
257 -0.000511
258 0.000020
259 0.000330
260 0.000170
261 0.000345
262 0.000258
263 0.000181
264 0.000019
265 -0.000167
266 -0.000817
267 -0.001289
268 -0.001758
269 -0.002200
270 -0.002557
271 -0.002770
272 -0.002991
273 -0.003200
274 -0.003243
275 -0.003187
276 -0.003292
277 -0.003475
278 -0.003474
279 -0.003485
280 -0.003281
281 -0.002991
282 -0.002996
283 -0.003010
284 -0.002671
285 -0.002466
286 -0.002388
287 -0.002282
288 -0.002447
289 -0.002461
290 -0.002482
291 -0.002509
292 -0.002654
293 -0.002794
294 -0.002890
295 -0.002894
296 -0.002845
297 -0.002772
298 -0.002718
299 -0.002632
300 -0.002221
301 -0.002221
302 -0.002034
303 -0.001574
304 -0.001371
305 -0.001026
306 -0.000609
307 0.000097
308 0.000388
309 0.000730
310 0.001213
311 0.001468
312 0.001585
313 0.001815
314 0.002094
315 0.002137
316 0.002201
317 0.002089
318 0.001832
319 0.001480
320 0.001248
321 0.000849
322 0.000638
323 0.000424
324 -0.000066
325 -0.000355
326 -0.000734
327 -0.000972
328 -0.001073
329 -0.001101
330 -0.001084
331 -0.001465
332 -0.001493
333 -0.001442
334 -0.001566
335 -0.001739
336 -0.001813
337 -0.001756
338 -0.001601
339 -0.001370
340 -0.001310
341 -0.001452
342 -0.001394
343 -0.001301
344 -0.001114
345 -0.001203
346 -0.001347
347 -0.001592
348 -0.001814
349 -0.001946
350 -0.002085
351 -0.002168
352 -0.002274
353 -0.002186
354 -0.001992
355 -0.001771
356 -0.001639
357 -0.001448
358 -0.001407
359 -0.001379
360 -0.001095
361 -0.001109
362 -0.000963
363 -0.001062
364 -0.001040
365 -0.000719
366 -0.000244
367 0.000085
368 -0.000002
369 -0.000197
370 -0.000094
371 0.000225
372 0.000424
373 0.000674
374 0.000630
375 0.000435
376 0.000608
377 0.000882
378 0.001005
379 0.001138
380 0.001286
381 0.001181
382 0.001209
383 0.001173
384 0.001041
385 0.000607
386 0.000270
387 0.000218
388 0.000283
389 0.000301
390 0.000463
391 0.000533
392 0.000696
393 0.000754
394 0.000641
395 0.000537
396 0.000619
397 0.000700
398 0.000790
399 0.000941
400 0.000941
401 0.001039
402 0.001176
403 0.001371
404 0.001441
405 0.001339
406 0.001175
407 0.000942
408 0.000851
409 0.000736
410 0.000694
411 0.000604
412 0.000384
413 0.000178
414 -0.000049
415 -0.000191
416 -0.000312
417 -0.000381
418 -0.000142
419 0.000301
420 0.000427
421 0.000857
422 0.001036
423 0.001356
424 0.001731
425 0.002109
426 0.002285
427 0.002333
428 0.002194
429 0.001974
430 0.001822
431 0.001708
432 0.001245
433 0.000997
434 0.000838
435 0.000999
436 0.001086
437 0.001125
438 0.000976
439 0.000940
440 0.001090
441 0.001383
442 0.001506
443 0.001524
444 0.001679
445 0.001517
446 0.001366
447 0.001177
448 0.000903
449 0.000513
450 0.000247
451 -0.000021
452 -0.000300
453 -0.000490
454 -0.000543
455 -0.000752
456 -0.000828
457 -0.000848
458 -0.000824
459 -0.001013
460 -0.001124
461 -0.001289
462 -0.001555
463 -0.001711
464 -0.001764
465 -0.001984
466 -0.002167
467 -0.002277
468 -0.002315
469 -0.002101
470 -0.001594
471 -0.001267
472 -0.000944
473 -0.000662
474 -0.000176
475 0.000096
476 0.000479
477 0.000785
478 0.000892
479 0.001064
480 0.000973
481 0.000870
482 0.000688
483 0.000673
484 0.000730
485 0.000647
486 0.000522
487 0.000503
488 0.000532
489 0.000803
490 0.000979
491 0.000943
492 0.001013
493 0.001101
494 0.001276
495 0.001273
496 0.001107
497 0.001102
498 0.000779
499 0.000506
500 0.000423
501 0.000496
502 0.000613
503 0.000665
504 0.000567
505 0.000494
506 0.000527
507 0.000542
508 0.000495
509 0.000486
510 0.000344
511 0.000153
512 -0.000134
513 -0.000349
514 -0.000348
515 -0.000351
516 -0.000292
517 -0.000109
518 0.000106
519 0.000193
520 0.000296
521 0.000483
522 0.000787
523 0.000981
524 0.000978
525 0.000970
526 0.000919
527 0.001003
528 0.000983
529 0.000793
530 0.000635
531 0.000435
532 0.000373
533 0.000414
534 0.000352
535 0.000157
536 0.000011
537 0.000167
538 0.000682
539 0.001055
540 0.001186
541 0.001373
542 0.001463
543 0.001544
544 0.001574
545 0.001560
546 0.001349
547 0.001165
548 0.001141
549 0.001129
550 0.001173
551 0.001202
552 0.001190
553 0.000925
554 0.000939
555 0.001133
556 0.001262
557 0.001291
558 0.001166
559 0.001068
560 0.000939
561 0.000876
562 0.000920
563 0.000935
564 0.000923
565 0.001077
566 0.001263
567 0.001405
568 0.001685
569 0.001980
570 0.002248
571 0.002314
572 0.002271
573 0.001954
574 0.001838
575 0.001866
576 0.001883
577 0.001682
578 0.001203
579 0.000868
580 0.000432
581 0.000314
582 0.000233
583 0.000283
584 0.000400
585 0.000498
586 0.000672
587 0.000873
588 0.001072
589 0.001084
590 0.000845
591 0.000513
592 0.000256
593 0.000086
594 0.000091
595 0.000189
596 0.000078
597 0.000208
598 0.000422
599 0.000783
600 0.001141
601 0.001379
602 0.001498
603 0.001642
604 0.001677
605 0.001852
606 0.001779
607 0.001656
608 0.001434
609 0.001089
610 0.000577
611 0.000255
612 0.000017
613 -0.000203
614 -0.000121
615 -0.000168
616 -0.000161
617 -0.000159
618 -0.000127
619 -0.000127
620 0.000035
621 0.000031
622 0.000074
623 0.000122
624 0.000187
625 0.000179
626 -0.000000
627 -0.000325
628 -0.000427
629 -0.000543
630 -0.000656
631 -0.000764
632 -0.000598
633 -0.000503
634 -0.000393
635 -0.000330
636 -0.000315
637 -0.000306
638 -0.000264
639 -0.000439
640 -0.000622
641 -0.000921
642 -0.001106
643 -0.001331
644 -0.001562
645 -0.001835
646 -0.001910
647 -0.001798
648 -0.001703
649 -0.001786
650 -0.001803
651 -0.001624
652 -0.001490
653 -0.001279
654 -0.001206
655 -0.001061
656 -0.001001
657 -0.001031
658 -0.001148
659 -0.001325
660 -0.001221
661 -0.001143
662 -0.000979
663 -0.000980
664 -0.001028
665 -0.000929
666 -0.000736
667 -0.000474
668 -0.000348
669 -0.000397
670 -0.000609
671 -0.000794
672 -0.001012
673 -0.001141
674 -0.001355
675 -0.001627
676 -0.001611
677 -0.001601
678 -0.001850
679 -0.001966
680 -0.001873
681 -0.001745
682 -0.001445
683 -0.001063
684 -0.000772
685 -0.000595
686 -0.000419
687 -0.000403
688 -0.000338
689 -0.000266
690 -0.000249
691 -0.000275
692 -0.000314
693 -0.000375
694 -0.000306
695 -0.000254
696 -0.000298
697 -0.000365
698 -0.000323
699 -0.000067
700 0.000201
701 0.000271
702 0.000292
703 0.000351
704 0.000440
705 0.000479
706 0.000546
707 0.000199
708 -0.000161
709 -0.000322
710 -0.000355
711 -0.000204
712 -0.000199
713 -0.000296
714 -0.000486
715 -0.000489
716 -0.000330
717 -0.000034
718 0.000184
719 0.000321
720 0.000268
721 0.000267
722 0.000356
723 0.000273
724 0.000226
725 0.000106
726 0.000062
727 0.000003
728 0.000013
729 0.000187
730 0.000454
731 0.000706
732 0.000817
733 0.000914
734 0.001047
735 0.001175
736 0.001230
737 0.001263
738 0.001208
739 0.001138
740 0.001153
741 0.001010
742 0.000864
743 0.000919
744 0.001112
745 0.001114
746 0.001027
747 0.000971
748 0.000967
749 0.001007
750 0.000975
751 0.001032
752 0.000841
753 0.000721
754 0.000715
755 0.000605
756 0.000532
757 0.000506
758 0.000557
759 0.000695
760 0.000905
761 0.001044
762 0.001063
763 0.000999
764 0.000874
765 0.000848
766 0.000776
767 0.000750
768 0.000661
769 0.000436
770 0.000102
771 -0.000110
772 -0.000232
773 -0.000299
774 -0.000379
775 -0.000461
776 -0.000515
777 -0.000508
778 -0.000406
779 -0.000341
780 -0.000292
781 -0.000126
782 0.000035
783 0.000160
784 0.000233
785 0.000231
786 0.000121
787 0.000036
788 0.000011
789 0.000042
790 0.000112
791 0.000158
792 0.000156
793 0.000041
794 -0.000054
795 -0.000033
796 0.000118
797 0.000274
798 0.000191
799 -0.000013
800 -0.000118
801 -0.000152
802 -0.000126
803 -0.000165
804 -0.000215
805 -0.000390
806 -0.000484
807 -0.000541
808 -0.000527
809 -0.000336
