# i correlation
1 0.019211
2 0.016644
3 0.014380
4 0.012123
5 0.010084
6 0.008572
7 0.007297
8 0.006185
9 0.005719
10 0.005475
11 0.005423
12 0.005651
13 0.005773
14 0.006008
15 0.005871
16 0.005798
17 0.005558
18 0.005495
19 0.005491
20 0.005564
21 0.005713
22 0.005753
23 0.005545
24 0.005256
25 0.005242
26 0.004905
27 0.004554
28 0.004588
29 0.004580
30 0.004610
31 0.004509
32 0.004522
33 0.004438
34 0.004491
35 0.004532
36 0.004259
37 0.004110
38 0.003795
39 0.003611
40 0.003458
41 0.003229
42 0.003212
43 0.002966
44 0.002951
45 0.003024
46 0.003210
47 0.003576
48 0.003701
49 0.003446
50 0.003242
51 0.002970
52 0.002726
53 0.002506
54 0.002190
55 0.001895
56 0.001716
57 0.001745
58 0.001738
59 0.001807
60 0.002061
61 0.002307
62 0.002494
63 0.002555
64 0.002677
65 0.002653
66 0.002738
67 0.002837
68 0.002839
69 0.002548
70 0.002457
71 0.002662
72 0.002798
73 0.002933
74 0.003239
75 0.003593
76 0.003948
77 0.004108
78 0.004232
79 0.004287
80 0.004364
81 0.004436
82 0.004670
83 0.004728
84 0.004815
85 0.004863
86 0.005096
87 0.005399
88 0.005237
89 0.005052
90 0.004645
91 0.004093
92 0.003629
93 0.003319
94 0.003133
95 0.002904
96 0.003009
97 0.003051
98 0.003299
99 0.003937
100 0.004317
101 0.004575
102 0.004723
103 0.004437
104 0.003875
105 0.003282
106 0.002799
107 0.002231
108 0.001969
109 0.001766
110 0.001653
111 0.001823
112 0.002112
113 0.002550
114 0.003033
115 0.003527
116 0.003947
117 0.004311
118 0.004521
119 0.004279
120 0.004050
121 0.004231
122 0.004219
123 0.004201
124 0.004169
125 0.003722
126 0.003206
127 0.002816
128 0.002430
129 0.002131
130 0.001879
131 0.001952
132 0.001971
133 0.002135
134 0.002535
135 0.003065
136 0.003737
137 0.003912
138 0.004016
139 0.004121
140 0.003939
141 0.003633
142 0.003392
143 0.003293
144 0.003202
145 0.003000
146 0.002852
147 0.002963
148 0.002982
149 0.003170
150 0.003440
151 0.003646
152 0.003820
153 0.003967
154 0.003895
155 0.003742
156 0.003662
157 0.003718
158 0.003786
159 0.003919
160 0.003922
161 0.003724
162 0.003462
163 0.003631
164 0.003985
165 0.004363
166 0.004762
167 0.004937
168 0.004914
169 0.004458
170 0.004109
171 0.003677
172 0.003401
173 0.003125
174 0.003026
175 0.003158
176 0.003181
177 0.003119
178 0.003092
179 0.003044
180 0.003102
181 0.003110
182 0.003158
183 0.003128
184 0.003222
185 0.003319
186 0.003415
187 0.003492
188 0.003502
189 0.003765
190 0.003672
191 0.003401
192 0.003456
193 0.003093
194 0.002466
195 0.002190
196 0.001992
197 0.001619
198 0.001401
199 0.001338
200 0.001314
201 0.001128
202 0.000976
203 0.001162
204 0.000967
205 0.001116
206 0.001202
207 0.001178
208 0.000876
209 0.000589
210 0.000291
211 0.000261
212 0.000541
213 0.000748
214 0.000929
215 0.000924
216 0.000697
217 0.000710
218 0.000703
219 0.000338
220 0.000011
221 -0.000181
222 -0.000343
223 -0.000050
224 0.000266
225 0.000807
226 0.001351
227 0.001733
228 0.001962
229 0.002030
230 0.001854
231 0.001375
232 0.001025
233 0.000644
234 0.000425
235 0.000513
236 0.000600
237 0.000720
238 0.000702
239 0.000892
240 0.001203
241 0.001259
242 0.001317
243 0.001439
244 0.001125
245 0.000659
246 0.000429
247 0.000194
248 0.000200
249 0.000155
250 0.000110
251 0.000262
252 0.000427
253 0.000573
254 0.000480
255 0.000425
256 0.000110
257 0.000130
258 0.000155
259 0.000021
260 0.000183
261 0.000442
262 0.000828
263 0.001124
264 0.001251
265 0.001369
266 0.001415
267 0.001421
268 0.001427
269 0.001285
270 0.001066
271 0.001143
272 0.001176
273 0.001433
274 0.001658
275 0.001968
276 0.002180
277 0.001986
278 0.001683
279 0.001491
280 0.001451
281 0.001416
282 0.001297
283 0.001438
284 0.001532
285 0.001543
286 0.001471
287 0.001455
288 0.001434
289 0.001516
290 0.001890
291 0.002032
292 0.002115
293 0.002007
294 0.001865
295 0.001469
296 0.001072
297 0.000718
298 0.000383
299 0.000260
300 0.000232
301 0.000461
302 0.000653
303 0.000949
304 0.001106
305 0.001422
306 0.001692
307 0.001813
308 0.002010
309 0.001853
310 0.001869
311 0.001861
312 0.001770
313 0.001729
314 0.001929
315 0.002288
316 0.002312
317 0.002224
318 0.002015
319 0.001935
320 0.001745
321 0.001454
322 0.000871
323 0.000562
324 0.000598
325 0.000428
326 0.000251
327 0.000114
328 0.000114
329 0.000121
330 0.000102
331 0.000061
332 -0.000222
333 -0.000510
334 -0.000883
335 -0.001051
336 -0.001029
337 -0.001107
338 -0.001115
339 -0.000894
340 -0.000629
341 -0.000327
342 0.000293
343 0.000825
344 0.001138
345 0.001342
346 0.001266
347 0.001481
348 0.001503
349 0.001691
350 0.001997
351 0.002128
352 0.002170
353 0.002114
354 0.002051
355 0.001823
356 0.001673
357 0.001571
358 0.001397
359 0.001389
360 0.001453
361 0.001501
362 0.001633
363 0.001816
364 0.002204
365 0.002621
366 0.002988
367 0.003146
368 0.003134
369 0.002926
370 0.002636
371 0.002495
372 0.002442
373 0.002289
374 0.002111
375 0.001973
376 0.001786
377 0.001674
378 0.001741
379 0.002135
380 0.002231
381 0.002238
382 0.002266
383 0.002069
384 0.001857
385 0.001827
386 0.001887
387 0.001951
388 0.001872
389 0.001827
390 0.001931
391 0.002072
392 0.002397
393 0.002615
394 0.002769
395 0.002893
396 0.002991
397 0.002809
398 0.002591
399 0.002404
400 0.002181
401 0.002065
402 0.002124
403 0.002180
404 0.002348
405 0.002348
406 0.002388
407 0.002563
408 0.002701
409 0.002438
410 0.002268
411 0.002183
412 0.002087
413 0.001942
414 0.001887
415 0.001741
416 0.001625
417 0.001728
418 0.001734
419 0.001684
420 0.001633
421 0.001494
422 0.001110
423 0.000798
424 0.000682
425 0.000545
426 0.000711
427 0.000882
428 0.001109
429 0.001413
430 0.001633
431 0.001688
432 0.002083
433 0.002292
434 0.002203
435 0.002061
436 0.001903
437 0.001773
438 0.001932
439 0.002122
440 0.002239
441 0.002475
442 0.002774
443 0.003029
444 0.003194
445 0.002992
446 0.002652
447 0.002301
448 0.001946
449 0.001668
450 0.001558
451 0.001527
452 0.001511
453 0.001552
454 0.001680
455 0.001861
456 0.001752
457 0.001638
458 0.001688
459 0.001624
460 0.001704
461 0.001671
462 0.001540
463 0.001525
464 0.001699
465 0.001788
466 0.002045
467 0.002246
468 0.002400
469 0.002541
470 0.002428
471 0.002250
472 0.001980
473 0.001791
474 0.001792
475 0.001717
476 0.001714
477 0.001530
478 0.001726
479 0.001923
480 0.002169
481 0.002307
482 0.002404
483 0.002553
484 0.002408
485 0.002234
486 0.002223
487 0.002212
488 0.002139
489 0.002034
490 0.001996
491 0.001729
492 0.001499
493 0.001265
494 0.000949
495 0.000713
496 0.000562
497 0.000429
498 0.000269
499 0.000236
500 0.000425
501 0.000702
502 0.000833
503 0.001172
504 0.001418
505 0.001466
506 0.001559
507 0.001519
508 0.001611
509 0.001601
510 0.001554
511 0.001639
512 0.001491
513 0.001543
514 0.001674
515 0.001841
516 0.002137
517 0.002525
518 0.002680
519 0.002912
520 0.003038
521 0.002891
522 0.002722
523 0.002476
524 0.002301
525 0.002177
526 0.002257
527 0.002291
528 0.002434
529 0.002573
530 0.002732
531 0.002999
532 0.003279
533 0.003481
534 0.003641
535 0.003652
536 0.003518
537 0.003356
538 0.003341
539 0.003286
540 0.003174
541 0.002996
542 0.003056
543 0.003328
544 0.003533
545 0.003854
546 0.004250
547 0.004501
548 0.004582
549 0.004711
550 0.004776
551 0.004680
552 0.004377
553 0.004127
554 0.004043
555 0.003888
556 0.003945
557 0.003757
558 0.003472
559 0.003244
560 0.003156
561 0.003020
562 0.002618
563 0.002370
564 0.002199
565 0.002278
566 0.002372
567 0.002501
568 0.002875
569 0.002943
570 0.002969
571 0.003086
572 0.003246
573 0.003384
574 0.003260
575 0.003029
576 0.002807
577 0.002683
578 0.002581
579 0.002601
580 0.002600
581 0.002483
582 0.002418
583 0.002191
584 0.002055
585 0.002019
586 0.001937
587 0.001853
588 0.001696
589 0.001467
590 0.001276
591 0.001381
592 0.001409
593 0.001389
594 0.001308
595 0.001303
596 0.001401
597 0.001328
598 0.001322
599 0.001362
600 0.001420
601 0.001293
602 0.001249
603 0.001180
604 0.001081
605 0.001057
606 0.001096
607 0.001149
608 0.001225
609 0.001147
610 0.001085
611 0.000933
612 0.000764
613 0.000570
614 0.000340
615 0.000139
616 0.000028
617 0.000023
618 0.000091
619 0.000199
620 0.000553
621 0.000847
622 0.001098
623 0.001246
624 0.001165
625 0.001079
626 0.001092
627 0.001040
628 0.000862
629 0.000757
630 0.000583
631 0.000593
632 0.000631
633 0.000778
634 0.000856
635 0.000974
636 0.001045
637 0.001121
638 0.001076
639 0.000997
640 0.000980
641 0.000819
642 0.000599
643 0.000441
644 0.000313
645 0.000264
646 0.000165
647 0.000342
648 0.000370
649 0.000379
650 0.000710
651 0.000988
652 0.001125
653 0.001285
654 0.001348
655 0.001501
656 0.001617
657 0.001576
658 0.001461
659 0.001434
660 0.001381
661 0.001315
662 0.001243
663 0.001119
664 0.001029
665 0.000913
666 0.000933
667 0.001231
668 0.001585
669 0.001886
670 0.002264
671 0.002639
672 0.002783
673 0.002873
674 0.002871
675 0.002795
676 0.002399
677 0.001947
678 0.001407
679 0.001064
680 0.000730
681 0.000685
682 0.000757
683 0.000858
684 0.000960
685 0.001148
686 0.001386
687 0.001609
688 0.001699
689 0.001694
690 0.001630
691 0.001453
692 0.001345
693 0.001277
694 0.001163
695 0.001206
696 0.001225
697 0.001272
698 0.001255
699 0.001316
700 0.001422
701 0.001436
702 0.001479
703 0.001527
704 0.001576
705 0.001460
706 0.001426
707 0.001263
708 0.001136
709 0.001250
710 0.001212
711 0.001167
712 0.001161
713 0.001164
714 0.001208
715 0.001346
716 0.001559
717 0.001624
718 0.001769
719 0.001880
720 0.001911
721 0.001868
722 0.001854
723 0.001789
724 0.001603
725 0.001435
726 0.001270
727 0.001054
728 0.000890
729 0.000840
730 0.000757
731 0.000799
732 0.000937
733 0.000936
734 0.000994
735 0.001053
736 0.001061
737 0.000920
738 0.000829
739 0.000774
740 0.000626
741 0.000555
742 0.000417
743 0.000402
744 0.000468
745 0.000528
746 0.000674
747 0.000686
748 0.000682
749 0.000633
750 0.000666
751 0.000717
752 0.000784
753 0.000919
754 0.001059
755 0.001108
756 0.001188
757 0.001251
758 0.001278
759 0.001228
760 0.001126
761 0.001007
762 0.000892
763 0.000818
764 0.000690
765 0.000539
766 0.000378
767 0.000311
768 0.000373
769 0.000390
770 0.000371
771 0.000396
772 0.000385
773 0.000393
774 0.000459
775 0.000350
776 0.000297
777 0.000162
778 -0.000020
779 -0.000145
780 -0.000282
781 -0.000409
782 -0.000574
783 -0.000545
784 -0.000543
785 -0.000486
786 -0.000252
787 0.000003
788 0.000233
789 0.000338
790 0.000444
791 0.000491
792 0.000432
793 0.000367
794 0.000235
795 0.000067
796 -0.000064
797 -0.000178
798 -0.000222
799 -0.000260
800 -0.000249
801 -0.000326
802 -0.000346
803 -0.000263
804 -0.000139
805 -0.000016
806 0.000041
807 0.000084
808 0.000226
809 0.000330
