# i correlation
1 0.017408
2 0.014721
3 0.012435
4 0.010244
5 0.008155
6 0.006345
7 0.004937
8 0.003689
9 0.002258
10 0.001010
11 0.000274
12 -0.000000
13 -0.000179
14 -0.000397
15 -0.000431
16 -0.000503
17 -0.000759
18 -0.000830
19 -0.000818
20 -0.000644
21 -0.000822
22 -0.000909
23 -0.000533
24 -0.000386
25 0.000001
26 0.000283
27 0.000455
28 0.000618
29 0.000846
30 0.000962
31 0.001244
32 0.001265
33 0.001295
34 0.000738
35 0.000370
36 0.000081
37 -0.000044
38 0.000117
39 0.000205
40 0.000070
41 0.000087
42 -0.000352
43 -0.000071
44 -0.000179
45 -0.000084
46 0.000088
47 0.000341
48 0.000114
49 0.000011
50 -0.000082
51 0.000052
52 0.000042
53 -0.000147
54 -0.000044
55 0.000328
56 0.000764
57 0.000930
58 0.001503
59 0.001992
60 0.002179
61 0.002188
62 0.002424
63 0.002639
64 0.002260
65 0.001579
66 0.001360
67 0.001033
68 0.000698
69 0.000300
70 0.000147
71 -0.000098
72 -0.000494
73 -0.000925
74 -0.000896
75 -0.000858
76 -0.000685
77 -0.000443
78 -0.000169
79 -0.000019
80 -0.000157
81 -0.000269
82 0.000163
83 0.000408
84 0.000571
85 0.000347
86 0.000268
87 0.000250
88 -0.000120
89 -0.000183
90 -0.000033
91 0.000186
92 0.000423
93 0.000638
94 0.000720
95 0.000471
96 0.000225
97 0.000101
98 -0.000213
99 -0.000354
100 -0.000312
101 -0.000244
102 0.000008
103 0.000362
104 0.000698
105 0.000768
106 0.001016
107 0.001481
108 0.001511
109 0.001436
110 0.001644
111 0.001686
112 0.001592
113 0.001677
114 0.001368
115 0.001174
116 0.000769
117 0.000207
118 -0.000396
119 -0.001112
120 -0.001632
121 -0.002089
122 -0.002125
123 -0.002075
124 -0.002193
125 -0.001880
126 -0.001652
127 -0.001394
128 -0.001462
129 -0.001157
130 -0.000539
131 0.000156
132 0.000514
133 0.000977
134 0.001558
135 0.001825
136 0.001987
137 0.002137
138 0.002477
139 0.002509
140 0.002733
141 0.002851
142 0.003146
143 0.003260
144 0.003195
145 0.003145
146 0.003150
147 0.002830
148 0.002279
149 0.001741
150 0.001210
151 0.000850
152 0.000500
153 0.000461
154 0.000378
155 0.000193
156 0.000096
157 -0.000226
158 -0.000458
159 -0.000393
160 -0.000467
161 -0.000534
162 -0.000704
163 -0.000852
164 -0.000909
165 -0.001080
166 -0.001299
167 -0.001342
168 -0.001446
169 -0.001172
170 -0.000640
171 -0.000230
172 0.000053
173 0.000163
174 0.000536
175 0.000514
176 0.000559
177 0.000639
178 0.000669
179 0.000726
180 0.000464
181 0.000393
182 0.000104
183 -0.000098
184 -0.000340
185 -0.000236
186 -0.000031
187 0.000437
188 0.000636
189 0.000996
190 0.000982
191 0.000444
192 0.000176
193 0.000109
194 0.000118
195 -0.000147
196 -0.000322
197 -0.000455
198 -0.000708
199 -0.001016
200 -0.001018
201 -0.000905
202 -0.000388
203 -0.000073
204 0.000350
205 0.000708
206 0.000885
207 0.001095
208 0.001176
209 0.001176
210 0.001186
211 0.000920
212 0.000915
213 0.001011
214 0.001032
215 0.001089
216 0.001104
217 0.001303
218 0.001426
219 0.001463
220 0.001612
221 0.001432
222 0.001245
223 0.000830
224 0.000102
225 -0.000265
226 -0.000460
227 -0.000559
228 -0.000353
229 -0.000382
230 -0.000305
231 -0.000811
232 -0.001165
233 -0.001142
234 -0.000975
235 -0.000602
236 -0.000245
237 0.000102
238 0.000556
239 0.001009
240 0.001568
241 0.002152
242 0.002345
243 0.002391
244 0.002201
245 0.002260
246 0.002341
247 0.002379
248 0.002560
249 0.002633
250 0.002433
251 0.002016
252 0.001708
253 0.001702
254 0.001397
255 0.001149
256 0.000927
257 0.000448
258 -0.000085
259 -0.001006
260 -0.001601
261 -0.001715
262 -0.002040
263 -0.002106
264 -0.001957
265 -0.001691
266 -0.001451
267 -0.001190
268 -0.000895
269 -0.000540
270 -0.000643
271 -0.000621
272 -0.000494
273 -0.000286
274 -0.000125
275 0.000075
276 0.000505
277 0.000713
278 0.000862
279 0.000985
280 0.001047
281 0.001255
282 0.001331
283 0.001334
284 0.001482
285 0.001647
286 0.001587
287 0.001489
288 0.001120
289 0.000738
290 0.000341
291 0.000008
292 -0.000352
293 -0.000734
294 -0.001054
295 -0.001417
296 -0.001650
297 -0.001618
298 -0.001572
299 -0.001320
300 -0.000980
301 -0.000858
302 -0.000769
303 -0.000698
304 -0.000233
305 0.000113
306 0.000308
307 0.000633
308 0.000931
309 0.000753
310 0.000702
311 0.000743
312 0.000991
313 0.001041
314 0.000995
315 0.001013
316 0.001143
317 0.001052
318 0.000841
319 0.000833
320 0.001001
321 0.000897
322 0.000679
323 0.000600
324 0.000872
325 0.001173
326 0.001228
327 0.001132
328 0.000788
329 0.000358
330 0.000341
331 0.000314
332 0.000337
333 0.000328
334 0.000119
335 -0.000189
336 -0.000530
337 -0.000972
338 -0.001074
339 -0.001001
340 -0.000876
341 -0.000759
342 -0.000566
343 -0.000350
344 -0.000238
345 -0.000083
346 -0.000002
347 0.000161
348 0.000196
349 0.000022
350 -0.000005
351 0.000047
352 -0.000049
353 -0.000054
354 -0.000204
355 -0.000062
356 -0.000252
357 -0.000372
358 -0.000374
359 -0.000282
360 -0.000389
361 -0.000480
362 -0.000372
363 -0.000185
364 -0.000341
365 -0.000643
366 -0.000830
367 -0.001125
368 -0.001241
369 -0.001341
370 -0.001311
371 -0.001041
372 -0.000966
373 -0.001073
374 -0.000918
375 -0.000799
376 -0.000558
377 -0.000331
378 -0.000210
379 -0.000170
380 -0.000351
381 -0.000347
382 -0.000283
383 -0.000033
384 0.000063
385 0.000021
386 0.000070
387 0.000159
388 0.000268
389 0.000521
390 0.000829
391 0.001106
392 0.001313
393 0.001245
394 0.001277
395 0.001339
396 0.000933
397 0.000320
398 -0.000165
399 -0.000413
400 -0.000435
401 -0.000633
402 -0.000568
403 -0.000487
404 -0.000363
405 -0.000454
406 -0.000566
407 -0.000427
408 -0.000244
409 0.000056
410 0.000198
411 0.000193
412 -0.000008
413 -0.000231
414 -0.000508
415 -0.000556
416 -0.000643
417 -0.000575
418 -0.000453
419 -0.000353
420 -0.000089
421 0.000159
422 0.000555
423 0.000767
424 0.000988
425 0.001129
426 0.001147
427 0.001073
428 0.000964
429 0.000946
430 0.000830
431 0.000465
432 0.000332
433 0.000280
434 0.000215
435 0.000323
436 0.000408
437 0.000683
438 0.000963
439 0.000883
440 0.000740
441 0.000525
442 0.000439
443 0.000047
444 -0.000491
445 -0.000902
446 -0.001318
447 -0.001686
448 -0.002017
449 -0.002333
450 -0.002382
451 -0.002393
452 -0.002267
453 -0.002100
454 -0.001807
455 -0.001306
456 -0.000895
457 -0.000589
458 -0.000071
459 0.000184
460 0.000264
461 0.000282
462 0.000246
463 0.000184
464 -0.000118
465 -0.000242
466 -0.000363
467 -0.000539
468 -0.000611
469 -0.000772
470 -0.000848
471 -0.000973
472 -0.001271
473 -0.001324
474 -0.001426
475 -0.001443
476 -0.001535
477 -0.001594
478 -0.001430
479 -0.001382
480 -0.001557
481 -0.001567
482 -0.001608
483 -0.001685
484 -0.001609
485 -0.001546
486 -0.001385
487 -0.001373
488 -0.001553
489 -0.001476
490 -0.001629
491 -0.001587
492 -0.001335
493 -0.001048
494 -0.000807
495 -0.000494
496 -0.000288
497 -0.000079
498 0.000071
499 -0.000002
500 -0.000118
501 -0.000266
502 -0.000271
503 -0.000484
504 -0.000521
505 -0.000702
506 -0.000845
507 -0.001192
508 -0.001510
509 -0.001867
510 -0.002161
511 -0.002376
512 -0.002473
513 -0.002540
514 -0.002508
515 -0.002464
516 -0.002505
517 -0.002119
518 -0.001691
519 -0.001240
520 -0.000650
521 -0.000257
522 0.000147
523 0.000229
524 0.000331
525 0.000350
526 0.000303
527 0.000150
528 -0.000183
529 -0.000270
530 -0.000437
531 -0.000642
532 -0.000933
533 -0.000910
534 -0.000798
535 -0.000795
536 -0.000821
537 -0.000841
538 -0.000822
539 -0.000886
540 -0.000857
541 -0.000897
542 -0.000897
543 -0.000868
544 -0.000857
545 -0.000683
546 -0.000529
547 -0.000335
548 -0.000232
549 0.000066
550 0.000154
551 0.000206
552 0.000473
553 0.000628
554 0.000624
555 0.000734
556 0.000583
557 0.000179
558 -0.000190
559 -0.000603
560 -0.000637
561 -0.000579
562 -0.000625
563 -0.000703
564 -0.000655
565 -0.000568
566 -0.000334
567 -0.000084
568 0.000289
569 0.000757
570 0.001091
571 0.001227
572 0.001459
573 0.001709
574 0.001873
575 0.001842
576 0.001733
577 0.001484
578 0.001256
579 0.000864
580 0.000614
581 0.000606
582 0.000556
583 0.000523
584 0.000314
585 0.000350
586 0.000096
587 -0.000286
588 -0.000652
589 -0.000905
590 -0.001206
591 -0.001343
592 -0.001398
593 -0.001177
594 -0.001162
595 -0.001291
596 -0.000975
597 -0.000780
598 -0.000679
599 -0.000460
600 -0.000300
601 -0.000262
602 -0.000322
603 -0.000573
604 -0.000773
605 -0.000957
606 -0.001244
607 -0.001458
608 -0.001486
609 -0.001469
610 -0.001606
611 -0.001428
612 -0.001066
613 -0.000790
614 -0.000821
615 -0.000738
616 -0.000652
617 -0.000589
618 -0.000561
619 -0.000652
620 -0.000849
621 -0.001092
622 -0.001460
623 -0.001700
624 -0.001614
625 -0.001403
626 -0.001111
627 -0.000839
628 -0.000528
629 -0.000293
630 -0.000143
631 0.000160
632 0.000629
633 0.000930
634 0.001051
635 0.001228
636 0.001128
637 0.001183
638 0.001173
639 0.001125
640 0.001155
641 0.001039
642 0.000799
643 0.000447
644 0.000165
645 -0.000018
646 -0.000244
647 -0.000556
648 -0.000758
649 -0.000988
650 -0.001201
651 -0.001366
652 -0.001415
653 -0.001457
654 -0.001561
655 -0.001506
656 -0.001219
657 -0.000987
658 -0.000729
659 -0.000418
660 -0.000108
661 -0.000036
662 0.000068
663 0.000219
664 0.000406
665 0.000382
666 0.000257
667 0.000204
668 0.000065
669 -0.000149
670 -0.000574
671 -0.000778
672 -0.000939
673 -0.001176
674 -0.001363
675 -0.001396
676 -0.001162
677 -0.001160
678 -0.000871
679 -0.000566
680 -0.000243
681 -0.000098
682 -0.000055
683 -0.000006
684 0.000017
685 0.000109
686 0.000152
687 0.000244
688 0.000230
689 0.000364
690 0.000263
691 0.000250
692 0.000091
693 0.000025
694 -0.000020
695 0.000052
696 0.000234
697 0.000259
698 0.000291
699 0.000300
700 0.000303
701 0.000201
702 0.000081
703 0.000042
704 -0.000028
705 -0.000061
706 -0.000278
707 -0.000329
708 -0.000237
709 -0.000047
710 -0.000005
711 -0.000019
712 0.000056
713 -0.000021
714 -0.000031
715 -0.000071
716 0.000020
717 -0.000009
718 -0.000068
719 -0.000045
720 -0.000082
721 -0.000135
722 -0.000246
723 -0.000401
724 -0.000502
725 -0.000374
726 -0.000449
727 -0.000499
728 -0.000526
729 -0.000628
730 -0.000849
731 -0.001016
732 -0.001113
733 -0.001368
734 -0.001340
735 -0.001378
736 -0.001449
737 -0.001487
738 -0.001402
739 -0.001134
740 -0.000940
741 -0.000716
742 -0.000246
743 0.000109
744 0.000285
745 0.000465
746 0.000616
747 0.000670
748 0.000770
749 0.000743
750 0.000776
751 0.000690
752 0.000559
753 0.000350
754 0.000107
755 -0.000018
756 -0.000205
757 -0.000396
758 -0.000447
759 -0.000500
760 -0.000563
761 -0.000733
762 -0.000863
763 -0.000736
764 -0.000668
765 -0.000658
766 -0.000616
767 -0.000630
768 -0.000516
769 -0.000612
770 -0.000589
771 -0.000497
772 -0.000287
773 -0.000171
774 -0.000203
775 -0.000177
776 -0.000203
777 -0.000226
778 -0.000233
779 -0.000138
780 0.000037
781 0.000101
782 0.000173
783 0.000168
784 0.000205
785 0.000198
786 0.000148
787 0.000136
788 0.000127
789 0.000203
790 0.000079
791 -0.000028
792 -0.000116
793 -0.000158
794 -0.000230
795 -0.000380
796 -0.000446
797 -0.000484
798 -0.000486
799 -0.000470
800 -0.000552
801 -0.000513
802 -0.000349
803 -0.000101
804 0.000098
805 0.000291
806 0.000378
807 0.000360
808 0.000230
809 0.000173
