# i correlation
1 0.020277
2 0.017450
3 0.015007
4 0.013321
5 0.011999
6 0.011063
7 0.010047
8 0.009273
9 0.008639
10 0.008181
11 0.007714
12 0.007074
13 0.006775
14 0.006373
15 0.005891
16 0.005627
17 0.005576
18 0.005456
19 0.005443
20 0.005317
21 0.005230
22 0.004993
23 0.004438
24 0.004100
25 0.004440
26 0.004573
27 0.004586
28 0.004719
29 0.004802
30 0.005085
31 0.005261
32 0.005409
33 0.005496
34 0.005339
35 0.005250
36 0.005214
37 0.005253
38 0.005086
39 0.004854
40 0.004473
41 0.004276
42 0.004188
43 0.004133
44 0.004171
45 0.004365
46 0.004706
47 0.004904
48 0.004893
49 0.004700
50 0.004747
51 0.004959
52 0.004931
53 0.004784
54 0.004775
55 0.005091
56 0.005195
57 0.005327
58 0.005411
59 0.005066
60 0.004547
61 0.004075
62 0.003556
63 0.003279
64 0.002940
65 0.002696
66 0.002491
67 0.002453
68 0.002565
69 0.002567
70 0.002300
71 0.001999
72 0.001587
73 0.001129
74 0.000997
75 0.000909
76 0.001243
77 0.001464
78 0.001623
79 0.001794
80 0.001829
81 0.001997
82 0.002108
83 0.002184
84 0.002307
85 0.002522
86 0.002673
87 0.002639
88 0.002677
89 0.002648
90 0.002757
91 0.002644
92 0.002618
93 0.002834
94 0.002832
95 0.002841
96 0.002789
97 0.002676
98 0.002584
99 0.002675
100 0.002399
101 0.002389
102 0.002358
103 0.002327
104 0.002305
105 0.002175
106 0.002163
107 0.001985
108 0.001748
109 0.001517
110 0.001205
111 0.001000
112 0.000794
113 0.000980
114 0.001036
115 0.000970
116 0.001034
117 0.000889
118 0.001265
119 0.001549
120 0.001974
121 0.002041
122 0.002254
123 0.002520
124 0.002799
125 0.002879
126 0.003047
127 0.003375
128 0.003513
129 0.003429
130 0.003280
131 0.003155
132 0.003104
133 0.003318
134 0.003389
135 0.003395
136 0.003438
137 0.003360
138 0.002969
139 0.002567
140 0.002059
141 0.001682
142 0.001326
143 0.001084
144 0.001017
145 0.001418
146 0.001733
147 0.002148
148 0.002164
149 0.002169
150 0.002317
151 0.002659
152 0.002823
153 0.002871
154 0.002668
155 0.002561
156 0.002398
157 0.002321
158 0.002481
159 0.002528
160 0.002346
161 0.002245
162 0.002364
163 0.002588
164 0.002858
165 0.002730
166 0.002533
167 0.002053
168 0.001693
169 0.001571
170 0.001301
171 0.001346
172 0.001699
173 0.001934
174 0.001961
175 0.002143
176 0.002314
177 0.002926
178 0.003525
179 0.004225
180 0.004667
181 0.004769
182 0.004891
183 0.005017
184 0.005178
185 0.005330
186 0.005173
187 0.004955
188 0.004835
189 0.004325
190 0.004020
191 0.003487
192 0.003367
193 0.003046
194 0.003100
195 0.002885
196 0.002896
197 0.003040
198 0.003141
199 0.003206
200 0.002819
201 0.002344
202 0.002133
203 0.002128
204 0.001916
205 0.001791
206 0.001401
207 0.001435
208 0.001518
209 0.001908
210 0.002067
211 0.001939
212 0.001821
213 0.001908
214 0.001752
215 0.001718
216 0.001857
217 0.002280
218 0.002296
219 0.002049
220 0.001788
221 0.001607
222 0.001479
223 0.001309
224 0.001307
225 0.001120
226 0.001169
227 0.001318
228 0.001475
229 0.001461
230 0.001517
231 0.001688
232 0.002067
233 0.002273
234 0.002416
235 0.002714
236 0.002745
237 0.002874
238 0.003100
239 0.003052
240 0.003015
241 0.002856
242 0.002879
243 0.003001
244 0.003273
245 0.003351
246 0.003303
247 0.002797
248 0.002509
249 0.002254
250 0.001998
251 0.001947
252 0.001997
253 0.002123
254 0.002546
255 0.003033
256 0.003273
257 0.003452
258 0.003243
259 0.003212
260 0.002884
261 0.002457
262 0.001900
263 0.001338
264 0.000915
265 0.001039
266 0.000954
267 0.000827
268 0.000900
269 0.000718
270 0.000587
271 0.000702
272 0.000773
273 0.000819
274 0.001102
275 0.001269
276 0.001277
277 0.001115
278 0.001081
279 0.001185
280 0.001126
281 0.001110
282 0.001109
283 0.000888
284 0.000916
285 0.001005
286 0.001134
287 0.001184
288 0.001065
289 0.000901
290 0.000708
291 0.000652
292 0.000753
293 0.000774
294 0.000715
295 0.000496
296 0.000368
297 0.000256
298 0.000279
299 0.000180
300 0.000196
301 0.000268
302 0.000267
303 0.000323
304 0.000276
305 0.000095
306 0.000249
307 0.000298
308 0.000535
309 0.000690
310 0.000952
311 0.001160
312 0.001627
313 0.001882
314 0.002083
315 0.002140
316 0.002169
317 0.002101
318 0.001997
319 0.001820
320 0.001639
321 0.001338
322 0.001415
323 0.001694
324 0.001734
325 0.001976
326 0.002024
327 0.002165
328 0.002019
329 0.001842
330 0.001916
331 0.002333
332 0.002578
333 0.002733
334 0.002644
335 0.002691
336 0.002805
337 0.002902
338 0.002804
339 0.002942
340 0.002955
341 0.002914
342 0.002817
343 0.003095
344 0.003405
345 0.003695
346 0.003548
347 0.003506
348 0.003321
349 0.003050
350 0.003028
351 0.002799
352 0.002321
353 0.002031
354 0.001845
355 0.001511
356 0.001490
357 0.001559
358 0.001661
359 0.001479
360 0.001403
361 0.001511
362 0.001652
363 0.001748
364 0.002071
365 0.002341
366 0.002362
367 0.002380
368 0.002554
369 0.002593
370 0.002682
371 0.002675
372 0.002835
373 0.002836
374 0.002756
375 0.003024
376 0.003262
377 0.003421
378 0.003619
379 0.003828
380 0.003919
381 0.004072
382 0.004475
383 0.004581
384 0.004571
385 0.004422
386 0.004290
387 0.003988
388 0.003659
389 0.003288
390 0.003175
391 0.002980
392 0.002784
393 0.002502
394 0.002051
395 0.001831
396 0.001791
397 0.001864
398 0.001734
399 0.001229
400 0.000592
401 0.000334
402 0.000383
403 0.000427
404 0.000450
405 0.000389
406 0.000153
407 0.000117
408 0.000222
409 0.000303
410 0.000312
411 0.000274
412 0.000510
413 0.000594
414 0.000716
415 0.000875
416 0.000872
417 0.000854
418 0.000845
419 0.000747
420 0.000570
421 0.000507
422 0.000429
423 0.000353
424 0.000225
425 0.000085
426 -0.000086
427 -0.000289
428 -0.000552
429 -0.000782
430 -0.000759
431 -0.000513
432 -0.000414
433 -0.000273
434 -0.000036
435 0.000131
436 0.000253
437 0.000322
438 0.000341
439 0.000315
440 0.000394
441 0.000242
442 0.000072
443 0.000174
444 0.000273
445 0.000196
446 0.000109
447 -0.000182
448 -0.000691
449 -0.001074
450 -0.001337
451 -0.001476
452 -0.001662
453 -0.001559
454 -0.001719
455 -0.001881
456 -0.001966
457 -0.002197
458 -0.002418
459 -0.002444
460 -0.002570
461 -0.002524
462 -0.002543
463 -0.002586
464 -0.002377
465 -0.002254
466 -0.002051
467 -0.001938
468 -0.001834
469 -0.001790
470 -0.001636
471 -0.001637
472 -0.001306
473 -0.001120
474 -0.000901
475 -0.001143
476 -0.001272
477 -0.001372
478 -0.001183
479 -0.001094
480 -0.001237
481 -0.001172
482 -0.001185
483 -0.001218
484 -0.001388
485 -0.001709
486 -0.001850
487 -0.002051
488 -0.001981
489 -0.001838
490 -0.001583
491 -0.001487
492 -0.001337
493 -0.001521
494 -0.001463
495 -0.001054
496 -0.000646
497 -0.000424
498 -0.000299
499 -0.000098
500 0.000102
501 0.000381
502 0.000499
503 0.000579
504 0.000550
505 0.000466
506 0.000311
507 0.000093
508 -0.000022
509 0.000137
510 0.000291
511 0.000596
512 0.000933
513 0.001225
514 0.001351
515 0.001318
516 0.001279
517 0.001313
518 0.001075
519 0.000780
520 0.000690
521 0.000685
522 0.000597
523 0.000481
524 0.000297
525 0.000208
526 -0.000071
527 -0.000193
528 -0.000418
529 -0.000421
530 -0.000167
531 0.000062
532 0.000134
533 0.000219
534 0.000291
535 0.000324
536 0.000262
537 0.000056
538 -0.000330
539 -0.000463
540 -0.000442
541 -0.000427
542 -0.000280
543 -0.000159
544 -0.000103
545 -0.000131
546 -0.000144
547 -0.000158
548 -0.000107
549 0.000101
550 0.000309
551 0.000379
552 0.000296
553 0.000028
554 -0.000203
555 -0.000264
556 -0.000214
557 0.000028
558 0.000181
559 0.000285
560 0.000523
561 0.000611
562 0.000809
563 0.001000
564 0.001279
565 0.001493
566 0.001507
567 0.001735
568 0.001986
569 0.002209
570 0.002232
571 0.002365
572 0.002316
573 0.002091
574 0.001828
575 0.001778
576 0.001682
577 0.001538
578 0.001425
579 0.001099
580 0.000912
581 0.000830
582 0.000948
583 0.000932
584 0.000761
585 0.000824
586 0.000804
587 0.000725
588 0.000628
589 0.000657
590 0.000649
591 0.000683
592 0.000781
593 0.000946
594 0.001056
595 0.001104
596 0.001171
597 0.001263
598 0.001307
599 0.001330
600 0.001448
601 0.001615
602 0.001803
603 0.001736
604 0.001675
605 0.001504
606 0.001399
607 0.001228
608 0.001019
609 0.000743
610 0.000661
611 0.000393
612 0.000186
613 -0.000045
614 -0.000125
615 0.000167
616 0.000493
617 0.000707
618 0.000932
619 0.001282
620 0.001349
621 0.001224
622 0.000977
623 0.000862
624 0.000901
625 0.001068
626 0.001092
627 0.001013
628 0.000976
629 0.001023
630 0.001084
631 0.001001
632 0.000925
633 0.000747
634 0.000512
635 0.000506
636 0.000604
637 0.000760
638 0.000761
639 0.000446
640 0.000198
641 0.000091
642 -0.000042
643 -0.000101
644 -0.000358
645 -0.000529
646 -0.000669
647 -0.000598
648 -0.000504
649 -0.000389
650 -0.000281
651 -0.000124
652 0.000077
653 0.000303
654 0.000415
655 0.000372
656 0.000482
657 0.000519
658 0.000646
659 0.000615
660 0.000545
661 0.000402
662 0.000219
663 0.000121
664 -0.000056
665 -0.000380
666 -0.000762
667 -0.001014
668 -0.001119
669 -0.001040
670 -0.000891
671 -0.000764
672 -0.000857
673 -0.000984
674 -0.001130
675 -0.001200
676 -0.001162
677 -0.001057
678 -0.000792
679 -0.000620
680 -0.000565
681 -0.000634
682 -0.000684
683 -0.000614
684 -0.000434
685 -0.000372
686 -0.000387
687 -0.000345
688 -0.000175
689 0.000067
690 0.000196
691 0.000330
692 0.000306
693 0.000337
694 0.000424
695 0.000580
696 0.000732
697 0.000796
698 0.000987
699 0.001205
700 0.001440
701 0.001400
702 0.001239
703 0.000925
704 0.000676
705 0.000496
706 0.000344
707 0.000126
708 -0.000005
709 -0.000001
710 -0.000077
711 0.000028
712 0.000095
713 0.000065
714 0.000087
715 0.000097
716 0.000108
717 0.000029
718 -0.000031
719 -0.000090
720 -0.000203
721 -0.000151
722 -0.000187
723 -0.000310
724 -0.000540
725 -0.000637
726 -0.000698
727 -0.000706
728 -0.000684
729 -0.000564
730 -0.000371
731 -0.000371
732 -0.000469
733 -0.000586
734 -0.000596
735 -0.000634
736 -0.000632
737 -0.000500
738 -0.000452
739 -0.000268
740 -0.000046
741 0.000077
742 0.000070
743 0.000168
744 0.000289
745 0.000249
746 0.000269
747 0.000347
748 0.000565
749 0.000806
750 0.000911
751 0.000971
752 0.000952
753 0.000972
754 0.001069
755 0.001220
756 0.001290
757 0.001390
758 0.001533
759 0.001523
760 0.001435
761 0.001346
762 0.001302
763 0.001111
764 0.000821
765 0.000648
766 0.000605
767 0.000572
768 0.000537
769 0.000522
770 0.000445
771 0.000258
772 0.000145
773 -0.000003
774 -0.000043
775 -0.000108
776 -0.000126
777 -0.000133
778 -0.000240
779 -0.000154
780 -0.000095
781 -0.000070
782 -0.000038
783 -0.000069
784 -0.000102
785 -0.000188
786 -0.000276
787 -0.000386
788 -0.000405
789 -0.000409
790 -0.000432
791 -0.000490
792 -0.000576
793 -0.000749
794 -0.000786
795 -0.000760
796 -0.000734
797 -0.000717
798 -0.000779
799 -0.000901
800 -0.000907
801 -0.000881
802 -0.000906
803 -0.000989
804 -0.000985
805 -0.001062
806 -0.001127
807 -0.001134
808 -0.001236
809 -0.001237
