# i correlation
1 0.020481
2 0.017875
3 0.015617
4 0.013628
5 0.012067
6 0.010806
7 0.009787
8 0.009073
9 0.008991
10 0.008855
11 0.008565
12 0.008255
13 0.008069
14 0.007783
15 0.007616
16 0.007489
17 0.007358
18 0.007704
19 0.007801
20 0.007756
21 0.007770
22 0.007577
23 0.007425
24 0.006794
25 0.006145
26 0.005166
27 0.004361
28 0.003898
29 0.003613
30 0.003763
31 0.004116
32 0.004574
33 0.005120
34 0.005283
35 0.005298
36 0.005439
37 0.005509
38 0.005524
39 0.005472
40 0.005352
41 0.005445
42 0.005468
43 0.005198
44 0.004989
45 0.004180
46 0.003060
47 0.002138
48 0.001237
49 0.000782
50 0.000622
51 0.000500
52 0.000549
53 0.000686
54 0.000838
55 0.000927
56 0.000941
57 0.001013
58 0.000894
59 0.000568
60 0.000447
61 0.000431
62 0.000424
63 0.000580
64 0.000889
65 0.001111
66 0.001061
67 0.001013
68 0.000716
69 0.000018
70 -0.000533
71 -0.001244
72 -0.001613
73 -0.001462
74 -0.001023
75 -0.000546
76 -0.000541
77 -0.000617
78 -0.000410
79 -0.000216
80 -0.000184
81 -0.000325
82 -0.000461
83 -0.000809
84 -0.000936
85 -0.001137
86 -0.001401
87 -0.001689
88 -0.001749
89 -0.001655
90 -0.001539
91 -0.001442
92 -0.001355
93 -0.001103
94 -0.001004
95 -0.000875
96 -0.000709
97 -0.000191
98 0.000672
99 0.001412
100 0.002023
101 0.002265
102 0.002133
103 0.001891
104 0.001791
105 0.001848
106 0.001797
107 0.001738
108 0.001639
109 0.001508
110 0.001435
111 0.001422
112 0.001326
113 0.001141
114 0.000744
115 0.000625
116 0.000682
117 0.001170
118 0.001451
119 0.001428
120 0.001135
121 0.000665
122 0.000551
123 0.000299
124 -0.000009
125 -0.000529
126 -0.000936
127 -0.001597
128 -0.001766
129 -0.002010
130 -0.002112
131 -0.001965
132 -0.001479
133 -0.000928
134 -0.000406
135 0.000161
136 0.000225
137 0.000376
138 0.000192
139 -0.000203
140 -0.000432
141 -0.000598
142 -0.000524
143 -0.000266
144 -0.000017
145 -0.000058
146 -0.000066
147 -0.000110
148 -0.000351
149 -0.000307
150 -0.000483
151 -0.000689
152 -0.000830
153 -0.000617
154 -0.000255
155 -0.000001
156 0.000440
157 0.000657
158 0.000944
159 0.000792
160 0.000697
161 0.000488
162 0.000322
163 0.000029
164 -0.000355
165 -0.000392
166 -0.000404
167 -0.000148
168 0.000074
169 -0.000199
170 -0.000273
171 -0.000275
172 -0.000366
173 -0.000343
174 -0.000064
175 0.000317
176 0.000750
177 0.000854
178 0.000945
179 0.001285
180 0.001695
181 0.001564
182 0.001234
183 0.000805
184 0.000659
185 0.000532
186 0.000691
187 0.000716
188 0.000710
189 0.000447
190 0.000290
191 0.000295
192 0.000361
193 0.000449
194 0.000455
195 0.000398
196 0.000328
197 0.000741
198 0.001320
199 0.002139
200 0.002544
201 0.002532
202 0.002449
203 0.002283
204 0.001940
205 0.001245
206 0.000517
207 0.000205
208 0.000080
209 0.000051
210 0.000190
211 0.000484
212 0.000742
213 0.000969
214 0.000819
215 0.000754
216 0.000548
217 0.000607
218 0.000814
219 0.000936
220 0.000806
221 0.000804
222 0.000969
223 0.001011
224 0.000987
225 0.000897
226 0.000475
227 -0.000178
228 -0.000718
229 -0.001156
230 -0.001274
231 -0.001376
232 -0.001376
233 -0.001288
234 -0.001257
235 -0.000850
236 -0.000527
237 -0.000635
238 -0.000967
239 -0.001557
240 -0.001909
241 -0.001992
242 -0.001865
243 -0.001647
244 -0.001435
245 -0.001533
246 -0.001855
247 -0.002223
248 -0.002723
249 -0.003050
250 -0.003129
251 -0.003235
252 -0.003220
253 -0.003063
254 -0.002709
255 -0.002404
256 -0.002014
257 -0.001674
258 -0.001648
259 -0.001677
260 -0.001820
261 -0.001898
262 -0.002171
263 -0.002160
264 -0.002324
265 -0.002126
266 -0.001892
267 -0.001789
268 -0.001741
269 -0.001858
270 -0.002212
271 -0.002653
272 -0.002831
273 -0.002893
274 -0.002970
275 -0.002679
276 -0.002335
277 -0.001957
278 -0.001468
279 -0.000936
280 -0.000752
281 -0.000788
282 -0.000643
283 -0.000765
284 -0.001094
285 -0.001370
286 -0.001378
287 -0.001488
288 -0.001346
289 -0.001290
290 -0.001457
291 -0.001474
292 -0.001497
293 -0.001343
294 -0.001535
295 -0.001545
296 -0.001742
297 -0.001324
298 -0.000894
299 -0.000586
300 -0.000451
301 -0.000256
302 0.000036
303 -0.000024
304 -0.000083
305 -0.000304
306 -0.000521
307 -0.000869
308 -0.000995
309 -0.001042
310 -0.000777
311 -0.000551
312 -0.000530
313 -0.001041
314 -0.001269
315 -0.001621
316 -0.001609
317 -0.001432
318 -0.001316
319 -0.001185
320 -0.000788
321 -0.000516
322 -0.000261
323 0.000110
324 0.000357
325 0.000342
326 0.000088
327 -0.000421
328 -0.000833
329 -0.000957
330 -0.000865
331 -0.000940
332 -0.000986
333 -0.000810
334 -0.000592
335 -0.000276
336 -0.000204
337 -0.000193
338 -0.000587
339 -0.000807
340 -0.000860
341 -0.000807
342 -0.000737
343 -0.000489
344 -0.000357
345 -0.000556
346 -0.000558
347 -0.000529
348 -0.000578
349 -0.000916
350 -0.001013
351 -0.001021
352 -0.001335
353 -0.001378
354 -0.001382
355 -0.001284
356 -0.001098
357 -0.001038
358 -0.000870
359 -0.000817
360 -0.000746
361 -0.000634
362 -0.000573
363 -0.000774
364 -0.000954
365 -0.000913
366 -0.001018
367 -0.000998
368 -0.000861
369 -0.000822
370 -0.000747
371 -0.000771
372 -0.000824
373 -0.000619
374 -0.000480
375 -0.000237
376 -0.000061
377 0.000103
378 0.000060
379 0.000376
380 0.000642
381 0.000906
382 0.000816
383 0.000870
384 0.000991
385 0.000955
386 0.000891
387 0.000771
388 0.000575
389 0.000480
390 0.000405
391 0.000562
392 0.000671
393 0.000713
394 0.000661
395 0.000659
396 0.000377
397 0.000133
398 0.000263
399 0.000180
400 0.000159
401 0.000279
402 0.000404
403 0.000559
404 0.000695
405 0.000602
406 0.000254
407 -0.000133
408 -0.000372
409 -0.000526
410 -0.000301
411 -0.000145
412 0.000153
413 0.000232
414 0.000353
415 0.000489
416 0.000403
417 0.000420
418 0.000040
419 -0.000271
420 -0.000695
421 -0.001078
422 -0.001274
423 -0.001217
424 -0.001047
425 -0.000670
426 -0.000415
427 -0.000387
428 -0.000232
429 0.000021
430 0.000215
431 0.000165
432 -0.000188
433 -0.000239
434 -0.000251
435 -0.000080
436 -0.000064
437 -0.000273
438 -0.000325
439 -0.000464
440 -0.000595
441 -0.000666
442 -0.000814
443 -0.000742
444 -0.000610
445 -0.000376
446 -0.000342
447 -0.000330
448 -0.000338
449 -0.000283
450 -0.000393
451 -0.000434
452 -0.000700
453 -0.000899
454 -0.001035
455 -0.001197
456 -0.001185
457 -0.001270
458 -0.001321
459 -0.001355
460 -0.001434
461 -0.001461
462 -0.001584
463 -0.001682
464 -0.001867
465 -0.001945
466 -0.001728
467 -0.001701
468 -0.001450
469 -0.000960
470 -0.000697
471 -0.000747
472 -0.000770
473 -0.000927
474 -0.000908
475 -0.000783
476 -0.000745
477 -0.000526
478 -0.000032
479 0.000629
480 0.000906
481 0.001126
482 0.001385
483 0.001285
484 0.001168
485 0.001157
486 0.001168
487 0.001096
488 0.001177
489 0.001157
490 0.001410
491 0.001668
492 0.001785
493 0.001934
494 0.002038
495 0.001910
496 0.001772
497 0.001776
498 0.001626
499 0.001516
500 0.001477
501 0.001564
502 0.001616
503 0.001717
504 0.001881
505 0.001808
506 0.001554
507 0.001209
508 0.001125
509 0.001233
510 0.001470
511 0.001780
512 0.001869
513 0.001966
514 0.002167
515 0.002229
516 0.002239
517 0.002222
518 0.002217
519 0.002340
520 0.002506
521 0.002637
522 0.002687
523 0.002953
524 0.003226
525 0.002976
526 0.002738
527 0.002651
528 0.002479
529 0.002350
530 0.002252
531 0.002047
532 0.002146
533 0.002332
534 0.002416
535 0.002661
536 0.002862
537 0.002808
538 0.002664
539 0.002510
540 0.002338
541 0.002352
542 0.002450
543 0.002471
544 0.002493
545 0.002604
546 0.002745
547 0.002997
548 0.003225
549 0.003277
550 0.003104
551 0.002983
552 0.002865
553 0.002749
554 0.002834
555 0.002772
556 0.002637
557 0.002522
558 0.002325
559 0.002141
560 0.002256
561 0.002430
562 0.002577
563 0.002659
564 0.002704
565 0.002657
566 0.002521
567 0.002414
568 0.002144
569 0.001844
570 0.001559
571 0.001289
572 0.000905
573 0.000719
574 0.000591
575 0.000625
576 0.000764
577 0.000989
578 0.001053
579 0.001316
580 0.001570
581 0.001558
582 0.001514
583 0.001502
584 0.001545
585 0.001728
586 0.001957
587 0.002083
588 0.002228
589 0.002218
590 0.002297
591 0.002204
592 0.002115
593 0.001887
594 0.001711
595 0.001289
596 0.000996
597 0.000559
598 0.000435
599 0.000459
600 0.000404
601 0.000376
602 0.000265
603 0.000226
604 0.000114
605 0.000032
606 -0.000136
607 -0.000307
608 -0.000602
609 -0.000602
610 -0.000785
611 -0.000974
612 -0.001076
613 -0.001203
614 -0.001146
615 -0.001260
616 -0.001148
617 -0.001140
618 -0.001162
619 -0.001149
620 -0.001310
621 -0.001361
622 -0.001464
623 -0.001352
624 -0.001302
625 -0.001167
626 -0.001061
627 -0.000940
628 -0.000682
629 -0.000468
630 -0.000261
631 -0.000283
632 -0.000184
633 -0.000271
634 -0.000329
635 -0.000650
636 -0.000987
637 -0.001154
638 -0.001299
639 -0.001564
640 -0.001692
641 -0.001893
642 -0.002171
643 -0.002268
644 -0.002321
645 -0.002374
646 -0.002234
647 -0.002054
648 -0.001889
649 -0.001604
650 -0.001369
651 -0.001362
652 -0.001345
653 -0.001126
654 -0.000877
655 -0.000647
656 -0.000602
657 -0.000628
658 -0.000478
659 -0.000432
660 -0.000304
661 -0.000152
662 -0.000168
663 -0.000225
664 -0.000144
665 -0.000020
666 0.000133
667 0.000362
668 0.000476
669 0.000573
670 0.000856
671 0.001034
672 0.001016
673 0.001019
674 0.001134
675 0.001003
676 0.000988
677 0.001050
678 0.001019
679 0.000957
680 0.000890
681 0.000930
682 0.001070
683 0.001118
684 0.001154
685 0.001216
686 0.001186
687 0.001193
688 0.001246
689 0.001244
690 0.001377
691 0.001629
692 0.001803
693 0.002088
694 0.002272
695 0.002557
696 0.002642
697 0.002712
698 0.002942
699 0.003152
700 0.003241
701 0.003217
702 0.003084
703 0.002964
704 0.002980
705 0.003004
706 0.002880
707 0.002785
708 0.002763
709 0.002638
710 0.002532
711 0.002490
712 0.002405
713 0.002343
714 0.002415
715 0.002426
716 0.002493
717 0.002347
718 0.002287
719 0.002159
720 0.001943
721 0.001840
722 0.001896
723 0.001965
724 0.002027
725 0.001892
726 0.001754
727 0.001820
728 0.001983
729 0.002101
730 0.001984
731 0.001948
732 0.001960
733 0.001996
734 0.002117
735 0.002340
736 0.002442
737 0.002545
738 0.002674
739 0.002689
740 0.002765
741 0.002670
742 0.002641
743 0.002522
744 0.002325
745 0.002291
746 0.002217
747 0.002170
748 0.002108
749 0.002128
750 0.001989
751 0.001974
752 0.001904
753 0.001601
754 0.001323
755 0.001174
756 0.001040
757 0.000887
758 0.000894
759 0.000773
760 0.000841
761 0.000949
762 0.000982
763 0.001095
764 0.001082
765 0.001144
766 0.001215
767 0.001240
768 0.001343
769 0.001185
770 0.001113
771 0.001017
772 0.000980
773 0.000997
774 0.001099
775 0.001188
776 0.001259
777 0.001328
778 0.001288
779 0.001324
780 0.001250
781 0.001117
782 0.001005
783 0.001003
784 0.001154
785 0.001259
786 0.001395
787 0.001523
788 0.001586
789 0.001679
790 0.001709
791 0.001577
792 0.001476
793 0.001436
794 0.001332
795 0.001244
796 0.001180
797 0.001114
798 0.001115
799 0.001238
800 0.001307
801 0.001227
802 0.001130
803 0.001054
804 0.001049
805 0.001044
806 0.001016
807 0.001001
808 0.001006
809 0.001038
