# i correlation
1 0.018734
2 0.015982
3 0.013701
4 0.011974
5 0.010444
6 0.009014
7 0.008435
8 0.007883
9 0.007435
10 0.006947
11 0.006207
12 0.006005
13 0.005285
14 0.004786
15 0.004356
16 0.003908
17 0.003367
18 0.003019
19 0.003131
20 0.003063
21 0.002789
22 0.002379
23 0.001870
24 0.001653
25 0.001534
26 0.001687
27 0.001927
28 0.002272
29 0.002611
30 0.002885
31 0.003310
32 0.003649
33 0.003962
34 0.004137
35 0.004156
36 0.004141
37 0.004028
38 0.003646
39 0.003363
40 0.003174
41 0.003088
42 0.002973
43 0.002759
44 0.002604
45 0.002521
46 0.002623
47 0.002390
48 0.001988
49 0.001642
50 0.001489
51 0.001410
52 0.001288
53 0.001094
54 0.000954
55 0.000919
56 0.000603
57 0.000218
58 -0.000237
59 -0.000544
60 -0.000842
61 -0.001116
62 -0.001226
63 -0.001409
64 -0.001125
65 -0.000724
66 -0.000840
67 -0.000733
68 -0.000606
69 -0.000675
70 -0.000754
71 -0.001197
72 -0.001536
73 -0.001816
74 -0.002092
75 -0.002221
76 -0.002168
77 -0.001895
78 -0.001698
79 -0.001806
80 -0.001831
81 -0.001721
82 -0.001850
83 -0.002342
84 -0.002809
85 -0.003108
86 -0.003290
87 -0.003401
88 -0.003506
89 -0.003821
90 -0.004394
91 -0.004573
92 -0.004523
93 -0.004445
94 -0.004588
95 -0.004738
96 -0.004473
97 -0.004261
98 -0.003973
99 -0.003734
100 -0.003702
101 -0.003363
102 -0.003187
103 -0.002790
104 -0.002616
105 -0.002523
106 -0.002569
107 -0.002734
108 -0.003064
109 -0.003439
110 -0.003428
111 -0.003276
112 -0.003390
113 -0.003513
114 -0.003863
115 -0.004211
116 -0.004365
117 -0.004370
118 -0.004097
119 -0.003915
120 -0.003844
121 -0.003790
122 -0.003704
123 -0.003456
124 -0.003647
125 -0.003944
126 -0.004584
127 -0.005178
128 -0.005897
129 -0.006269
130 -0.006360
131 -0.006131
132 -0.005334
133 -0.004648
134 -0.004196
135 -0.003820
136 -0.003569
137 -0.003176
138 -0.002796
139 -0.002667
140 -0.002849
141 -0.003086
142 -0.003284
143 -0.003455
144 -0.003354
145 -0.003218
146 -0.002864
147 -0.002644
148 -0.002478
149 -0.002437
150 -0.002323
151 -0.002041
152 -0.001875
153 -0.001437
154 -0.001498
155 -0.001664
156 -0.001798
157 -0.001688
158 -0.001136
159 -0.001243
160 -0.001242
161 -0.001135
162 -0.001207
163 -0.001263
164 -0.001372
165 -0.001286
166 -0.001143
167 -0.001155
168 -0.001380
169 -0.001249
170 -0.000982
171 -0.001056
172 -0.001134
173 -0.001146
174 -0.001306
175 -0.001309
176 -0.001449
177 -0.001484
178 -0.001433
179 -0.001053
180 -0.000799
181 -0.000700
182 -0.000302
183 0.000093
184 0.000482
185 0.000700
186 0.000967
187 0.001365
188 0.001687
189 0.001842
190 0.002052
191 0.002175
192 0.002282
193 0.001978
194 0.001806
195 0.001533
196 0.001231
197 0.001288
198 0.001554
199 0.002015
200 0.002524
201 0.002702
202 0.002894
203 0.003067
204 0.003141
205 0.003060
206 0.002756
207 0.002807
208 0.002808
209 0.003065
210 0.003245
211 0.003083
212 0.003127
213 0.002868
214 0.002767
215 0.002668
216 0.002684
217 0.002915
218 0.002941
219 0.003270
220 0.003434
221 0.003773
222 0.003786
223 0.003688
224 0.003497
225 0.003057
226 0.002994
227 0.002543
228 0.002735
229 0.002870
230 0.003110
231 0.003572
232 0.003358
233 0.003246
234 0.003525
235 0.003839
236 0.004124
237 0.004284
238 0.004668
239 0.005108
240 0.005510
241 0.005721
242 0.005710
243 0.005795
244 0.005624
245 0.005548
246 0.005320
247 0.005198
248 0.004926
249 0.004587
250 0.004474
251 0.004329
252 0.004324
253 0.004095
254 0.003910
255 0.003770
256 0.003853
257 0.004157
258 0.004107
259 0.004035
260 0.004035
261 0.003838
262 0.003725
263 0.003569
264 0.003562
265 0.003653
266 0.003494
267 0.003362
268 0.003130
269 0.003009
270 0.002812
271 0.002781
272 0.003053
273 0.003100
274 0.003040
275 0.003018
276 0.002969
277 0.002751
278 0.002474
279 0.001945
280 0.001397
281 0.001022
282 0.000709
283 0.000649
284 0.000519
285 0.000507
286 0.000609
287 0.000911
288 0.000959
289 0.000806
290 0.000700
291 0.000741
292 0.000413
293 0.000189
294 -0.000166
295 -0.000520
296 -0.000580
297 -0.000961
298 -0.001055
299 -0.001185
300 -0.001515
301 -0.001922
302 -0.001949
303 -0.001802
304 -0.001545
305 -0.001349
306 -0.001231
307 -0.001122
308 -0.000650
309 -0.000339
310 -0.000052
311 0.000161
312 0.000188
313 -0.000047
314 -0.000409
315 -0.000816
316 -0.001075
317 -0.001043
318 -0.000881
319 -0.000822
320 -0.000786
321 -0.000780
322 -0.000836
323 -0.000987
324 -0.000973
325 -0.000891
326 -0.001087
327 -0.001126
328 -0.001107
329 -0.001250
330 -0.001356
331 -0.001592
332 -0.001892
333 -0.001969
334 -0.001954
335 -0.002146
336 -0.002351
337 -0.002339
338 -0.002372
339 -0.002290
340 -0.002265
341 -0.002168
342 -0.002167
343 -0.002307
344 -0.002351
345 -0.002226
346 -0.001938
347 -0.002023
348 -0.002229
349 -0.002284
350 -0.002481
351 -0.002618
352 -0.002762
353 -0.002600
354 -0.002495
355 -0.002568
356 -0.002425
357 -0.002235
358 -0.001888
359 -0.001961
360 -0.001944
361 -0.001714
362 -0.001998
363 -0.002288
364 -0.002643
365 -0.002792
366 -0.002747
367 -0.002614
368 -0.002360
369 -0.002174
370 -0.001923
371 -0.001976
372 -0.001984
373 -0.001680
374 -0.001495
375 -0.001337
376 -0.001340
377 -0.001281
378 -0.001420
379 -0.001459
380 -0.001522
381 -0.001513
382 -0.001713
383 -0.001881
384 -0.001959
385 -0.002083
386 -0.002061
387 -0.002017
388 -0.002020
389 -0.001767
390 -0.001781
391 -0.001721
392 -0.001465
393 -0.001329
394 -0.001474
395 -0.001446
396 -0.001396
397 -0.001429
398 -0.001672
399 -0.001734
400 -0.001757
401 -0.001600
402 -0.001698
403 -0.001444
404 -0.001484
405 -0.001576
406 -0.001541
407 -0.001493
408 -0.001271
409 -0.000899
410 -0.000365
411 0.000238
412 0.000628
413 0.000971
414 0.001056
415 0.001054
416 0.000731
417 0.000535
418 0.000314
419 0.000127
420 -0.000079
421 0.000071
422 0.000347
423 0.000816
424 0.001148
425 0.001458
426 0.001788
427 0.002203
428 0.002386
429 0.002339
430 0.002173
431 0.002221
432 0.001947
433 0.001699
434 0.001376
435 0.001216
436 0.001014
437 0.000631
438 0.000440
439 0.000382
440 0.000379
441 0.000236
442 0.000257
443 0.000399
444 0.000507
445 0.000657
446 0.000735
447 0.000947
448 0.001091
449 0.001297
450 0.001481
451 0.001499
452 0.001724
453 0.001653
454 0.001833
455 0.001866
456 0.001992
457 0.002301
458 0.002320
459 0.002440
460 0.002476
461 0.002395
462 0.002599
463 0.002594
464 0.002679
465 0.002615
466 0.002612
467 0.002388
468 0.002077
469 0.002082
470 0.002040
471 0.002198
472 0.002360
473 0.002319
474 0.002188
475 0.002044
476 0.001982
477 0.001920
478 0.002075
479 0.002249
480 0.002186
481 0.002230
482 0.002165
483 0.002125
484 0.002135
485 0.002154
486 0.002108
487 0.001974
488 0.001970
489 0.001672
490 0.001350
491 0.001489
492 0.001860
493 0.002116
494 0.002109
495 0.002189
496 0.002300
497 0.002286
498 0.002049
499 0.001973
500 0.001977
501 0.001802
502 0.001419
503 0.001265
504 0.001375
505 0.001341
506 0.001424
507 0.001660
508 0.001898
509 0.001991
510 0.001718
511 0.001530
512 0.001558
513 0.001451
514 0.001233
515 0.001028
516 0.000828
517 0.000643
518 0.000414
519 0.000438
520 0.000192
521 -0.000007
522 -0.000147
523 -0.000511
524 -0.000610
525 -0.000677
526 -0.000743
527 -0.000846
528 -0.000830
529 -0.000866
530 -0.000823
531 -0.000746
532 -0.000664
533 -0.000507
534 -0.000339
535 -0.000410
536 -0.000556
537 -0.000897
538 -0.001033
539 -0.001240
540 -0.001428
541 -0.001586
542 -0.001696
543 -0.001853
544 -0.002097
545 -0.002160
546 -0.001988
547 -0.001862
548 -0.001619
549 -0.001287
550 -0.000856
551 -0.000563
552 -0.000470
553 -0.000350
554 -0.000446
555 -0.000578
556 -0.000673
557 -0.000801
558 -0.000735
559 -0.000517
560 -0.000324
561 -0.000088
562 -0.000016
563 0.000080
564 -0.000084
565 -0.000106
566 -0.000448
567 -0.000713
568 -0.000765
569 -0.000795
570 -0.000690
571 -0.000626
572 -0.000717
573 -0.000803
574 -0.001004
575 -0.001035
576 -0.001045
577 -0.001055
578 -0.001178
579 -0.001259
580 -0.001134
581 -0.001258
582 -0.001247
583 -0.001218
584 -0.001108
585 -0.000902
586 -0.000674
587 -0.000513
588 -0.000592
589 -0.000478
590 -0.000380
591 -0.000298
592 -0.000364
593 -0.000472
594 -0.000440
595 -0.000317
596 -0.000128
597 -0.000054
598 -0.000008
599 0.000010
600 -0.000135
601 -0.000158
602 -0.000403
603 -0.000461
604 -0.000371
605 -0.000389
606 -0.000332
607 -0.000386
608 -0.000587
609 -0.000853
610 -0.000914
611 -0.000825
612 -0.000724
613 -0.000397
614 -0.000229
615 -0.000057
616 -0.000046
617 0.000037
618 0.000121
619 0.000125
620 0.000168
621 0.000095
622 -0.000047
623 -0.000088
624 -0.000136
625 -0.000248
626 -0.000267
627 -0.000060
628 -0.000071
629 -0.000131
630 -0.000026
631 0.000079
632 0.000242
633 0.000268
634 0.000267
635 0.000147
636 -0.000087
637 -0.000358
638 -0.000596
639 -0.000605
640 -0.000537
641 -0.000400
642 -0.000320
643 -0.000330
644 -0.000360
645 -0.000243
646 -0.000150
647 -0.000117
648 -0.000103
649 -0.000007
650 0.000062
651 0.000021
652 0.000020
653 -0.000012
654 0.000093
655 0.000133
656 0.000335
657 0.000619
658 0.000814
659 0.001015
660 0.000949
661 0.000901
662 0.000843
663 0.000744
664 0.000757
665 0.000716
666 0.000781
667 0.000722
668 0.000755
669 0.000752
670 0.000698
671 0.000809
672 0.000776
673 0.000736
674 0.000604
675 0.000568
676 0.000484
677 0.000259
678 0.000226
679 0.000162
680 0.000078
681 -0.000109
682 -0.000290
683 -0.000294
684 -0.000397
685 -0.000470
686 -0.000323
687 -0.000125
688 0.000152
689 0.000258
690 0.000340
691 0.000495
692 0.000530
693 0.000568
694 0.000638
695 0.000835
696 0.001054
697 0.001085
698 0.001097
699 0.001171
700 0.001279
701 0.001302
702 0.001334
703 0.001412
704 0.001401
705 0.001270
706 0.001128
707 0.001054
708 0.001141
709 0.001293
710 0.001340
711 0.001391
712 0.001468
713 0.001356
714 0.001263
715 0.001116
716 0.000957
717 0.000828
718 0.000748
719 0.000712
720 0.000674
721 0.000641
722 0.000589
723 0.000644
724 0.000625
725 0.000317
726 0.000144
727 -0.000010
728 -0.000079
729 -0.000169
730 -0.000268
731 -0.000222
732 -0.000295
733 -0.000252
734 -0.000303
735 -0.000284
736 -0.000147
737 0.000038
738 0.000278
739 0.000335
740 0.000437
741 0.000382
742 0.000355
743 0.000398
744 0.000359
745 0.000345
746 0.000245
747 0.000279
748 0.000213
749 0.000126
750 0.000243
751 0.000366
752 0.000565
753 0.000770
754 0.000794
755 0.000711
756 0.000606
757 0.000601
758 0.000483
759 0.000415
760 0.000469
761 0.000507
762 0.000404
763 0.000263
764 0.000222
765 0.000147
766 0.000128
767 0.000063
768 0.000045
769 0.000069
770 0.000142
771 0.000199
772 0.000295
773 0.000257
774 0.000305
775 0.000241
776 0.000123
777 -0.000115
778 -0.000428
779 -0.000559
780 -0.000544
781 -0.000574
782 -0.000493
783 -0.000411
784 -0.000292
785 -0.000410
786 -0.000628
787 -0.000873
788 -0.000917
789 -0.000895
790 -0.000879
791 -0.000883
792 -0.000883
793 -0.000892
794 -0.000893
795 -0.000931
796 -0.000941
797 -0.000936
798 -0.000864
799 -0.000881
800 -0.000869
801 -0.000853
802 -0.000794
803 -0.000601
804 -0.000478
805 -0.000423
806 -0.000374
807 -0.000338
808 -0.000341
809 -0.000388
