# i correlation
1 0.016502
2 0.014105
3 0.012043
4 0.010037
5 0.008465
6 0.007238
7 0.006175
8 0.005468
9 0.004644
10 0.003926
11 0.003556
12 0.003182
13 0.002789
14 0.002776
15 0.002578
16 0.002148
17 0.001812
18 0.001368
19 0.000980
20 0.000889
21 0.000765
22 0.000687
23 0.000679
24 0.000443
25 0.000140
26 -0.000387
27 -0.000510
28 -0.000663
29 -0.000926
30 -0.001054
31 -0.001083
32 -0.001105
33 -0.001177
34 -0.001328
35 -0.001261
36 -0.001040
37 -0.001134
38 -0.000962
39 -0.000848
40 -0.000776
41 -0.000829
42 -0.000758
43 -0.000622
44 -0.000459
45 -0.000333
46 -0.000131
47 0.000066
48 0.000335
49 0.000293
50 0.000415
51 0.000527
52 0.000644
53 0.000707
54 0.000679
55 0.000522
56 0.000772
57 0.000725
58 0.000640
59 0.000660
60 0.000798
61 0.000820
62 0.000668
63 0.000295
64 0.000063
65 -0.000208
66 -0.000235
67 0.000089
68 0.000330
69 0.000172
70 0.000240
71 0.000517
72 0.000657
73 0.000744
74 0.000907
75 0.001270
76 0.001505
77 0.001684
78 0.002038
79 0.001881
80 0.001490
81 0.001406
82 0.000983
83 0.000635
84 0.000613
85 0.000243
86 -0.000464
87 -0.000999
88 -0.001682
89 -0.002071
90 -0.002411
91 -0.002783
92 -0.002740
93 -0.002697
94 -0.002538
95 -0.002112
96 -0.001946
97 -0.001664
98 -0.001184
99 -0.000487
100 0.000090
101 0.000359
102 0.000633
103 0.000527
104 0.000409
105 0.000421
106 0.000530
107 0.000686
108 0.000716
109 0.000714
110 0.000602
111 0.000349
112 0.000055
113 0.000081
114 0.000062
115 0.000122
116 0.000089
117 0.000242
118 0.000189
119 0.000164
120 0.000243
121 0.000286
122 0.000243
123 0.000190
124 0.000130
125 -0.000098
126 -0.000432
127 -0.000507
128 -0.000229
129 0.000120
130 0.000234
131 0.000095
132 0.000119
133 0.000029
134 -0.000280
135 -0.000654
136 -0.001025
137 -0.001264
138 -0.001464
139 -0.001635
140 -0.001727
141 -0.001760
142 -0.001684
143 -0.001560
144 -0.001506
145 -0.001082
146 -0.000963
147 -0.001004
148 -0.001280
149 -0.001412
150 -0.001693
151 -0.001814
152 -0.001784
153 -0.001675
154 -0.001507
155 -0.001493
156 -0.001367
157 -0.001262
158 -0.001232
159 -0.001230
160 -0.001162
161 -0.001126
162 -0.001093
163 -0.000853
164 -0.000701
165 -0.000439
166 -0.000121
167 -0.000074
168 -0.000011
169 -0.000076
170 -0.000156
171 -0.000188
172 -0.000150
173 0.000086
174 0.000214
175 0.000374
176 0.000634
177 0.001088
178 0.001312
179 0.001394
180 0.001478
181 0.001356
182 0.001127
183 0.001012
184 0.001042
185 0.001276
186 0.001320
187 0.001296
188 0.001615
189 0.001737
190 0.001479
191 0.001569
192 0.001522
193 0.001343
194 0.001045
195 0.001038
196 0.001244
197 0.000962
198 0.000732
199 0.000548
200 0.000634
201 0.001049
202 0.001282
203 0.001172
204 0.000667
205 0.000311
206 -0.000096
207 -0.000396
208 -0.000571
209 -0.000498
210 -0.000487
211 -0.000493
212 -0.000337
213 0.000022
214 0.000256
215 0.000566
216 0.000800
217 0.000918
218 0.000655
219 0.000427
220 0.000176
221 -0.000165
222 -0.000504
223 -0.000546
224 -0.000341
225 -0.000066
226 0.000112
227 0.000268
228 0.000554
229 0.000606
230 0.000718
231 0.000586
232 0.000471
233 0.000171
234 -0.000106
235 -0.000640
236 -0.000893
237 -0.001146
238 -0.001254
239 -0.001159
240 -0.000851
241 -0.000428
242 -0.000181
243 -0.000142
244 -0.000033
245 0.000075
246 0.000088
247 0.000014
248 0.000289
249 0.000358
250 0.000441
251 0.000453
252 0.000668
253 0.001013
254 0.001142
255 0.001305
256 0.001496
257 0.001407
258 0.001346
259 0.001325
260 0.001095
261 0.000912
262 0.000852
263 0.001013
264 0.001068
265 0.001061
266 0.001102
267 0.001200
268 0.000815
269 0.000785
270 0.000754
271 0.000662
272 0.000556
273 0.000873
274 0.001058
275 0.001170
276 0.001335
277 0.001504
278 0.001477
279 0.001500
280 0.001675
281 0.001818
282 0.001774
283 0.001677
284 0.001811
285 0.001759
286 0.001778
287 0.001973
288 0.002363
289 0.002293
290 0.002543
291 0.002525
292 0.002316
293 0.002218
294 0.002231
295 0.002295
296 0.002564
297 0.002747
298 0.002956
299 0.002835
300 0.002631
301 0.002462
302 0.002460
303 0.002416
304 0.002710
305 0.002872
306 0.002839
307 0.002743
308 0.002608
309 0.002665
310 0.002646
311 0.002593
312 0.002464
313 0.002166
314 0.001605
315 0.001139
316 0.000640
317 0.000428
318 0.000408
319 0.000358
320 0.000369
321 0.000245
322 -0.000041
323 -0.000086
324 0.000056
325 0.000237
326 0.000331
327 0.000192
328 -0.000110
329 -0.000225
330 -0.000077
331 0.000108
332 0.000209
333 0.000442
334 0.000805
335 0.000838
336 0.000725
337 0.000564
338 0.000456
339 -0.000067
340 -0.000176
341 -0.000098
342 -0.000205
343 -0.000314
344 -0.000525
345 -0.000588
346 -0.000813
347 -0.001147
348 -0.001029
349 -0.000908
350 -0.000821
351 -0.000695
352 -0.000498
353 -0.000558
354 -0.000471
355 -0.000279
356 -0.000133
357 0.000216
358 0.000661
359 0.000915
360 0.001173
361 0.001376
362 0.001344
363 0.001273
364 0.001023
365 0.001013
366 0.001082
367 0.000829
368 0.000629
369 0.000675
370 0.000378
371 0.000216
372 0.000344
373 0.000478
374 0.000735
375 0.001084
376 0.001061
377 0.000994
378 0.000859
379 0.000723
380 0.000717
381 0.000693
382 0.000512
383 0.000219
384 0.000137
385 -0.000011
386 -0.000052
387 -0.000082
388 0.000020
389 0.000013
390 0.000049
391 0.000035
392 -0.000046
393 -0.000185
394 -0.000271
395 -0.000339
396 -0.000370
397 -0.000267
398 -0.000258
399 -0.000321
400 -0.000647
401 -0.000929
402 -0.000995
403 -0.000795
404 -0.000569
405 -0.000110
406 0.000204
407 0.000483
408 0.000869
409 0.001398
410 0.002012
411 0.002285
412 0.002527
413 0.002765
414 0.002758
415 0.002690
416 0.002764
417 0.002789
418 0.002856
419 0.002868
420 0.002510
421 0.002174
422 0.001596
423 0.000954
424 0.000194
425 0.000008
426 -0.000120
427 -0.000105
428 -0.000140
429 -0.000198
430 -0.000183
431 -0.000246
432 -0.000261
433 0.000001
434 0.000011
435 -0.000041
436 -0.000097
437 -0.000085
438 -0.000296
439 -0.000572
440 -0.000538
441 -0.000383
442 -0.000165
443 0.000017
444 0.000080
445 -0.000021
446 -0.000380
447 -0.000726
448 -0.001081
449 -0.001315
450 -0.001296
451 -0.001287
452 -0.001414
453 -0.001194
454 -0.001055
455 -0.000788
456 -0.000477
457 -0.000393
458 -0.000109
459 0.000066
460 -0.000029
461 -0.000096
462 -0.000161
463 -0.000346
464 -0.000480
465 -0.000388
466 -0.000403
467 -0.000434
468 -0.000544
469 -0.000563
470 -0.000417
471 -0.000414
472 -0.000281
473 -0.000082
474 0.000018
475 0.000111
476 0.000242
477 0.000229
478 0.000292
479 0.000418
480 0.000512
481 0.000733
482 0.001064
483 0.001335
484 0.001612
485 0.001623
486 0.001732
487 0.001793
488 0.001790
489 0.001887
490 0.001949
491 0.001938
492 0.001757
493 0.001666
494 0.001602
495 0.001412
496 0.001038
497 0.000866
498 0.000697
499 0.000493
500 0.000249
501 -0.000073
502 -0.000446
503 -0.000770
504 -0.001192
505 -0.001370
506 -0.001623
507 -0.001923
508 -0.002001
509 -0.002010
510 -0.002098
511 -0.002139
512 -0.002234
513 -0.002178
514 -0.002060
515 -0.002033
516 -0.002060
517 -0.002213
518 -0.002161
519 -0.002264
520 -0.002260
521 -0.001987
522 -0.001761
523 -0.001767
524 -0.001771
525 -0.001730
526 -0.001494
527 -0.001257
528 -0.001123
529 -0.000896
530 -0.000795
531 -0.000789
532 -0.000661
533 -0.000483
534 -0.000276
535 -0.000224
536 -0.000029
537 0.000103
538 0.000317
539 0.000419
540 0.000642
541 0.000930
542 0.001180
543 0.001487
544 0.001622
545 0.001669
546 0.001633
547 0.001452
548 0.001196
549 0.000963
550 0.000924
551 0.000974
552 0.000885
553 0.000798
554 0.000867
555 0.000917
556 0.000693
557 0.000812
558 0.000717
559 0.000705
560 0.000708
561 0.000884
562 0.000904
563 0.000903
564 0.000868
565 0.000794
566 0.000564
567 0.000370
568 0.000198
569 0.000022
570 -0.000091
571 -0.000274
572 -0.000304
573 -0.000350
574 -0.000310
575 -0.000304
576 -0.000234
577 -0.000078
578 -0.000114
579 -0.000135
580 -0.000220
581 -0.000272
582 -0.000218
583 -0.000302
584 -0.000250
585 -0.000293
586 -0.000186
587 0.000004
588 0.000068
589 0.000293
590 0.000469
591 0.000610
592 0.000655
593 0.000776
594 0.000774
595 0.000743
596 0.000587
597 0.000485
598 0.000369
599 0.000420
600 0.000462
601 0.000587
602 0.000790
603 0.000893
604 0.000879
605 0.000907
606 0.000786
607 0.000719
608 0.000831
609 0.000711
610 0.000663
611 0.000708
612 0.000655
613 0.000517
614 0.000421
615 0.000347
616 0.000318
617 0.000358
618 0.000293
619 0.000330
620 0.000310
621 0.000334
622 0.000385
623 0.000351
624 0.000250
625 0.000111
626 -0.000156
627 -0.000454
628 -0.000571
629 -0.000411
630 -0.000285
631 -0.000101
632 0.000032
633 0.000161
634 0.000260
635 0.000474
636 0.000556
637 0.000393
638 0.000517
639 0.000551
640 0.000440
641 0.000331
642 0.000254
643 0.000296
644 0.000351
645 0.000334
646 0.000332
647 0.000353
648 0.000232
649 0.000113
650 0.000092
651 0.000104
652 0.000093
653 0.000071
654 0.000050
655 0.000113
656 0.000184
657 0.000278
658 0.000462
659 0.000787
660 0.000864
661 0.001046
662 0.000997
663 0.000970
664 0.000889
665 0.000728
666 0.000630
667 0.000542
668 0.000527
669 0.000539
670 0.000593
671 0.000760
672 0.000893
673 0.000842
674 0.000913
675 0.000985
676 0.001087
677 0.001057
678 0.000919
679 0.000891
680 0.000742
681 0.000560
682 0.000379
683 0.000376
684 0.000386
685 0.000209
686 0.000284
687 0.000331
688 0.000206
689 0.000026
690 -0.000160
691 -0.000221
692 -0.000264
693 -0.000381
694 -0.000432
695 -0.000412
696 -0.000330
697 -0.000233
698 -0.000261
699 -0.000228
700 -0.000230
701 -0.000166
702 -0.000099
703 -0.000038
704 0.000043
705 -0.000093
706 -0.000068
707 0.000018
708 -0.000019
709 0.000106
710 0.000158
711 0.000181
712 0.000235
713 0.000223
714 0.000307
715 0.000466
716 0.000631
717 0.000802
718 0.000914
719 0.000975
720 0.000943
721 0.000703
722 0.000592
723 0.000491
724 0.000345
725 0.000246
726 -0.000107
727 -0.000349
728 -0.000528
729 -0.000661
730 -0.000608
731 -0.000539
732 -0.000445
733 -0.000376
734 -0.000296
735 -0.000193
736 -0.000077
737 0.000047
738 0.000180
739 0.000285
740 0.000544
741 0.000619
742 0.000638
743 0.000674
744 0.000611
745 0.000554
746 0.000430
747 0.000369
748 0.000412
749 0.000495
750 0.000540
751 0.000403
752 0.000247
753 0.000193
754 0.000065
755 0.000109
756 0.000127
757 0.000107
758 0.000045
759 -0.000019
760 0.000029
761 0.000137
762 0.000076
763 -0.000012
764 -0.000081
765 -0.000179
766 -0.000282
767 -0.000359
768 -0.000425
769 -0.000537
770 -0.000530
771 -0.000475
772 -0.000502
773 -0.000655
774 -0.000679
775 -0.000620
776 -0.000555
777 -0.000511
778 -0.000389
779 -0.000345
780 -0.000278
781 -0.000200
782 -0.000221
783 -0.000198
784 -0.000320
785 -0.000309
786 -0.000295
787 -0.000292
788 -0.000275
789 -0.000196
790 -0.000168
791 -0.000116
792 -0.000134
793 -0.000087
794 -0.000125
795 -0.000223
796 -0.000210
797 -0.000188
798 -0.000237
799 -0.000286
800 -0.000314
801 -0.000308
802 -0.000306
803 -0.000276
804 -0.000257
805 -0.000327
806 -0.000292
807 -0.000292
808 -0.000278
809 -0.000236
