# i correlation
1 0.014093
2 0.011555
3 0.009716
4 0.008253
5 0.006762
6 0.005558
7 0.004833
8 0.004022
9 0.003210
10 0.002382
11 0.001849
12 0.001426
13 0.001112
14 0.000423
15 0.000137
16 -0.000215
17 -0.000414
18 -0.000526
19 -0.000717
20 -0.000637
21 -0.000599
22 -0.000289
23 -0.000181
24 0.000308
25 0.000797
26 0.001152
27 0.001071
28 0.001234
29 0.001360
30 0.000987
31 0.000824
32 0.000226
33 -0.000092
34 -0.000195
35 0.000094
36 0.000226
37 0.000551
38 0.000809
39 0.000993
40 0.001530
41 0.001835
42 0.002092
43 0.002291
44 0.002557
45 0.002315
46 0.002338
47 0.002267
48 0.002303
49 0.002235
50 0.002328
51 0.002351
52 0.002409
53 0.002428
54 0.001819
55 0.001289
56 0.000679
57 0.000229
58 -0.000291
59 -0.000688
60 -0.000758
61 -0.000817
62 -0.000706
63 -0.000617
64 -0.000116
65 0.000513
66 0.001069
67 0.001436
68 0.001529
69 0.001876
70 0.001832
71 0.001740
72 0.001903
73 0.001991
74 0.001726
75 0.001672
76 0.001590
77 0.001584
78 0.001415
79 0.001353
80 0.001079
81 0.000668
82 0.000616
83 0.000538
84 0.000130
85 -0.000188
86 -0.000302
87 -0.000338
88 -0.000423
89 -0.000376
90 0.000062
91 0.000740
92 0.001195
93 0.001565
94 0.001453
95 0.001572
96 0.001516
97 0.001458
98 0.001523
99 0.001543
100 0.001526
101 0.001369
102 0.001020
103 0.000753
104 0.000724
105 0.000607
106 0.000621
107 0.000732
108 0.000821
109 0.000696
110 0.000641
111 0.000733
112 0.000649
113 0.000812
114 0.000946
115 0.001197
116 0.001574
117 0.001997
118 0.002078
119 0.002011
120 0.002025
121 0.001759
122 0.001547
123 0.001161
124 0.000958
125 0.000702
126 0.000606
127 0.000723
128 0.000711
129 0.000710
130 0.000680
131 0.000709
132 0.000644
133 0.000688
134 0.000792
135 0.001331
136 0.001887
137 0.001906
138 0.001666
139 0.001581
140 0.001568
141 0.001434
142 0.001286
143 0.000972
144 0.000771
145 0.000562
146 0.000184
147 -0.000400
148 -0.000783
149 -0.001155
150 -0.001484
151 -0.001853
152 -0.002317
153 -0.002570
154 -0.002794
155 -0.002929
156 -0.003057
157 -0.002912
158 -0.002668
159 -0.002334
160 -0.001993
161 -0.001674
162 -0.001295
163 -0.000890
164 -0.000507
165 -0.000182
166 0.000117
167 0.000476
168 0.000754
169 0.000695
170 0.000714
171 0.000363
172 -0.000093
173 -0.000256
174 -0.000483
175 -0.000611
176 -0.000593
177 -0.000482
178 -0.000425
179 -0.000418
180 -0.000446
181 -0.000802
182 -0.000952
183 -0.000661
184 -0.000541
185 -0.000745
186 -0.000632
187 -0.000639
188 -0.000420
189 -0.000021
190 0.000303
191 0.000606
192 0.000644
193 0.000666
194 0.000532
195 0.000454
196 0.000244
197 -0.000151
198 -0.000757
199 -0.001037
200 -0.000973
201 -0.000932
202 -0.000782
203 -0.000551
204 -0.000232
205 -0.000281
206 -0.000306
207 -0.000200
208 0.000055
209 0.000287
210 0.000408
211 0.000405
212 0.000385
213 0.000256
214 0.000157
215 -0.000143
216 -0.000357
217 -0.000318
218 -0.000339
219 -0.000555
220 -0.000804
221 -0.000999
222 -0.001454
223 -0.001891
224 -0.002221
225 -0.002590
226 -0.002598
227 -0.002701
228 -0.002463
229 -0.002038
230 -0.001599
231 -0.001317
232 -0.000689
233 -0.000031
234 0.000381
235 0.001035
236 0.001674
237 0.002136
238 0.002250
239 0.002170
240 0.002070
241 0.002236
242 0.002133
243 0.002036
244 0.002020
245 0.002030
246 0.001824
247 0.001616
248 0.001419
249 0.001047
250 0.000710
251 0.000198
252 -0.000129
253 -0.000485
254 -0.000752
255 -0.000831
256 -0.000934
257 -0.000915
258 -0.000756
259 -0.000548
260 -0.000310
261 0.000006
262 -0.000064
263 -0.000237
264 -0.000313
265 -0.000292
266 -0.000327
267 -0.000521
268 -0.000768
269 -0.000994
270 -0.001080
271 -0.001112
272 -0.000931
273 -0.000870
274 -0.001155
275 -0.001498
276 -0.001362
277 -0.001265
278 -0.001435
279 -0.001366
280 -0.001171
281 -0.000770
282 -0.000435
283 0.000020
284 0.000058
285 0.000275
286 0.000479
287 0.000493
288 0.000183
289 -0.000100
290 -0.000033
291 -0.000305
292 -0.000786
293 -0.001173
294 -0.001364
295 -0.001527
296 -0.001591
297 -0.001841
298 -0.002071
299 -0.002385
300 -0.002603
301 -0.002429
302 -0.002294
303 -0.002120
304 -0.001975
305 -0.001530
306 -0.001332
307 -0.001072
308 -0.000664
309 -0.000077
310 0.000329
311 0.000609
312 0.000884
313 0.001063
314 0.001143
315 0.001018
316 0.001108
317 0.001052
318 0.000981
319 0.000798
320 0.000756
321 0.000613
322 0.000209
323 -0.000258
324 -0.000283
325 -0.000100
326 -0.000178
327 -0.000186
328 -0.000370
329 -0.000426
330 -0.000414
331 -0.000381
332 -0.000317
333 -0.000155
334 -0.000058
335 -0.000305
336 -0.000329
337 -0.000381
338 -0.000090
339 -0.000194
340 -0.000285
341 -0.000722
342 -0.001170
343 -0.001443
344 -0.001639
345 -0.001560
346 -0.001442
347 -0.001439
348 -0.001487
349 -0.001519
350 -0.001602
351 -0.001606
352 -0.001579
353 -0.001485
354 -0.001411
355 -0.001295
356 -0.001112
357 -0.001080
358 -0.000826
359 -0.000523
360 -0.000256
361 -0.000278
362 -0.000217
363 -0.000228
364 -0.000291
365 -0.000301
366 -0.000447
367 -0.000523
368 -0.000463
369 -0.000342
370 -0.000354
371 -0.000513
372 -0.000450
373 -0.000364
374 -0.000332
375 -0.000471
376 -0.000534
377 -0.000414
378 -0.000254
379 -0.000308
380 -0.000176
381 -0.000262
382 -0.000440
383 -0.000478
384 -0.000570
385 -0.000634
386 -0.000514
387 -0.000578
388 -0.000615
389 -0.000738
390 -0.000922
391 -0.000927
392 -0.001181
393 -0.001380
394 -0.001550
395 -0.001825
396 -0.001913
397 -0.001842
398 -0.001615
399 -0.001502
400 -0.001133
401 -0.000794
402 -0.000557
403 -0.000293
404 -0.000177
405 -0.000144
406 -0.000187
407 -0.000291
408 -0.000220
409 -0.000094
410 0.000022
411 0.000159
412 0.000426
413 0.000676
414 0.000894
415 0.000857
416 0.000864
417 0.000870
418 0.000789
419 0.000488
420 0.000097
421 -0.000124
422 -0.000324
423 -0.000522
424 -0.000682
425 -0.000762
426 -0.000661
427 -0.000585
428 -0.000618
429 -0.000601
430 -0.000714
431 -0.000847
432 -0.000983
433 -0.001270
434 -0.001567
435 -0.001854
436 -0.002036
437 -0.002201
438 -0.002004
439 -0.001827
440 -0.001737
441 -0.001565
442 -0.001541
443 -0.001561
444 -0.001373
445 -0.000994
446 -0.000777
447 -0.000530
448 -0.000583
449 -0.000438
450 -0.000156
451 0.000113
452 0.000277
453 0.000509
454 0.000783
455 0.000925
456 0.000997
457 0.000685
458 0.000336
459 -0.000050
460 -0.000211
461 -0.000441
462 -0.000553
463 -0.000629
464 -0.000930
465 -0.001169
466 -0.001186
467 -0.001150
468 -0.001255
469 -0.001341
470 -0.001475
471 -0.001608
472 -0.001727
473 -0.001658
474 -0.001532
475 -0.001494
476 -0.001216
477 -0.001167
478 -0.001102
479 -0.000938
480 -0.000804
481 -0.000696
482 -0.000696
483 -0.000555
484 -0.000363
485 -0.000175
486 -0.000151
487 -0.000278
488 -0.000504
489 -0.000544
490 -0.000721
491 -0.000553
492 -0.000478
493 -0.000206
494 -0.000012
495 0.000013
496 0.000135
497 0.000341
498 0.000494
499 0.000574
500 0.000645
501 0.000648
502 0.000662
503 0.000744
504 0.000737
505 0.000808
506 0.000819
507 0.000776
508 0.000826
509 0.000925
510 0.000751
511 0.000470
512 0.000167
513 -0.000035
514 -0.000291
515 -0.000506
516 -0.000554
517 -0.000623
518 -0.000627
519 -0.000572
520 -0.000394
521 -0.000365
522 -0.000160
523 -0.000076
524 -0.000053
525 -0.000083
526 -0.000205
527 -0.000333
528 -0.000409
529 -0.000369
530 -0.000390
531 -0.000467
532 -0.000635
533 -0.000668
534 -0.000600
535 -0.000595
536 -0.000817
537 -0.000860
538 -0.000820
539 -0.000952
540 -0.001104
541 -0.001326
542 -0.001192
543 -0.001103
544 -0.001082
545 -0.000904
546 -0.000590
547 -0.000473
548 -0.000388
549 -0.000238
550 0.000018
551 0.000122
552 0.000175
553 0.000412
554 0.000523
555 0.000596
556 0.000569
557 0.000395
558 0.000208
559 -0.000002
560 -0.000188
561 -0.000361
562 -0.000350
563 -0.000288
564 -0.000383
565 -0.000651
566 -0.000758
567 -0.000870
568 -0.001050
569 -0.001016
570 -0.001091
571 -0.001088
572 -0.001046
573 -0.001110
574 -0.001024
575 -0.000949
576 -0.000794
577 -0.000599
578 -0.000417
579 -0.000285
580 -0.000274
581 -0.000210
582 -0.000126
583 -0.000281
584 -0.000387
585 -0.000487
586 -0.000397
587 -0.000424
588 -0.000500
589 -0.000602
590 -0.000493
591 -0.000275
592 -0.000093
593 -0.000140
594 -0.000181
595 -0.000141
596 -0.000170
597 -0.000130
598 -0.000120
599 -0.000085
600 0.000022
601 -0.000121
602 -0.000271
603 -0.000146
604 -0.000089
605 -0.000006
606 0.000049
607 0.000360
608 0.000383
609 0.000214
610 0.000055
611 -0.000089
612 -0.000181
613 -0.000349
614 -0.000405
615 -0.000338
616 -0.000348
617 -0.000225
618 -0.000099
619 -0.000039
620 0.000019
621 0.000179
622 0.000354
623 0.000344
624 0.000218
625 0.000172
626 -0.000018
627 -0.000202
628 -0.000339
629 -0.000263
630 -0.000140
631 -0.000035
632 0.000054
633 0.000142
634 0.000187
635 0.000164
636 0.000237
637 0.000109
638 0.000075
639 0.000019
640 -0.000097
641 -0.000102
642 -0.000075
643 0.000079
644 0.000131
645 0.000247
646 0.000555
647 0.000785
648 0.000800
649 0.000963
650 0.001008
651 0.001080
652 0.001064
653 0.000940
654 0.000713
655 0.000611
656 0.000641
657 0.000626
658 0.000614
659 0.000676
660 0.000758
661 0.000587
662 0.000548
663 0.000534
664 0.000606
665 0.000493
666 0.000199
667 -0.000033
668 -0.000234
669 -0.000274
670 -0.000205
671 -0.000111
672 -0.000026
673 -0.000004
674 0.000087
675 0.000012
676 0.000028
677 0.000124
678 0.000089
679 0.000094
680 0.000190
681 0.000105
682 0.000088
683 0.000209
684 0.000366
685 0.000471
686 0.000686
687 0.000872
688 0.000986
689 0.001101
690 0.001177
691 0.001132
692 0.001047
693 0.000916
694 0.000778
695 0.000643
696 0.000602
697 0.000577
698 0.000762
699 0.000977
700 0.001108
701 0.001125
702 0.001022
703 0.000891
704 0.000758
705 0.000715
706 0.000585
707 0.000471
708 0.000466
709 0.000422
710 0.000293
711 0.000275
712 0.000467
713 0.000719
714 0.000826
715 0.000984
716 0.001134
717 0.001163
718 0.001179
719 0.001011
720 0.000915
721 0.000912
722 0.000875
723 0.000731
724 0.000668
725 0.000685
726 0.000771
727 0.000867
728 0.000927
729 0.001162
730 0.001260
731 0.001195
732 0.001150
733 0.001095
734 0.001130
735 0.001184
736 0.001273
737 0.001280
738 0.001372
739 0.001455
740 0.001398
741 0.001318
742 0.001421
743 0.001436
744 0.001279
745 0.001108
746 0.001060
747 0.001069
748 0.000983
749 0.001114
750 0.001238
751 0.001319
752 0.001232
753 0.001246
754 0.001243
755 0.001182
756 0.001109
757 0.001178
758 0.001296
759 0.001254
760 0.001188
761 0.001122
762 0.001030
763 0.000941
764 0.000934
765 0.000973
766 0.001078
767 0.001151
768 0.001223
769 0.001192
770 0.001214
771 0.001201
772 0.001123
773 0.000995
774 0.000889
775 0.000775
776 0.000598
777 0.000421
778 0.000429
779 0.000496
780 0.000549
781 0.000622
782 0.000704
783 0.000889
784 0.000993
785 0.001006
786 0.001030
787 0.001056
788 0.001009
789 0.000930
790 0.000892
791 0.000986
792 0.001016
793 0.000977
794 0.001035
795 0.001130
796 0.001128
797 0.000966
798 0.000874
799 0.000884
800 0.000862
801 0.000809
802 0.000729
803 0.000668
804 0.000577
805 0.000459
806 0.000373
807 0.000327
808 0.000357
809 0.000379
