# i correlation
1 0.021207
2 0.018454
3 0.016272
4 0.014394
5 0.013229
6 0.012028
7 0.010860
8 0.010174
9 0.009476
10 0.008882
11 0.007897
12 0.006964
13 0.006425
14 0.005931
15 0.005815
16 0.005706
17 0.005465
18 0.005403
19 0.005105
20 0.004698
21 0.004328
22 0.003945
23 0.003764
24 0.003535
25 0.003535
26 0.003540
27 0.003452
28 0.003032
29 0.002695
30 0.002626
31 0.002778
32 0.002617
33 0.002596
34 0.002799
35 0.002877
36 0.002834
37 0.002554
38 0.002405
39 0.002463
40 0.002977
41 0.003751
42 0.003859
43 0.004375
44 0.004706
45 0.004753
46 0.004508
47 0.004439
48 0.004332
49 0.004284
50 0.004274
51 0.004701
52 0.004705
53 0.005246
54 0.005132
55 0.005112
56 0.005304
57 0.005597
58 0.005945
59 0.005838
60 0.005084
61 0.004800
62 0.004581
63 0.004355
64 0.004038
65 0.004025
66 0.003823
67 0.003344
68 0.003059
69 0.002532
70 0.002155
71 0.002010
72 0.002137
73 0.002167
74 0.002404
75 0.002987
76 0.003648
77 0.003912
78 0.004183
79 0.004476
80 0.004831
81 0.005146
82 0.005439
83 0.005455
84 0.005725
85 0.005835
86 0.006021
87 0.006071
88 0.006049
89 0.006209
90 0.006225
91 0.006272
92 0.006686
93 0.006621
94 0.006603
95 0.006444
96 0.006104
97 0.005705
98 0.005293
99 0.004954
100 0.004910
101 0.004593
102 0.004398
103 0.003735
104 0.002951
105 0.002418
106 0.002050
107 0.001816
108 0.001734
109 0.001817
110 0.002139
111 0.001979
112 0.001969
113 0.001753
114 0.001742
115 0.001489
116 0.001311
117 0.001313
118 0.001610
119 0.001904
120 0.001959
121 0.001662
122 0.001368
123 0.001446
124 0.001555
125 0.001526
126 0.001348
127 0.001574
128 0.001718
129 0.001660
130 0.001632
131 0.001519
132 0.001538
133 0.001933
134 0.001998
135 0.002094
136 0.002181
137 0.002659
138 0.002920
139 0.002828
140 0.002951
141 0.002955
142 0.002806
143 0.003019
144 0.002983
145 0.003143
146 0.003127
147 0.002862
148 0.002593
149 0.002422
150 0.002140
151 0.002080
152 0.001860
153 0.002180
154 0.002236
155 0.002450
156 0.002356
157 0.002188
158 0.002273
159 0.002198
160 0.002070
161 0.001942
162 0.001524
163 0.001569
164 0.001711
165 0.001829
166 0.001984
167 0.002138
168 0.002494
169 0.002581
170 0.002486
171 0.002586
172 0.002700
173 0.002804
174 0.002968
175 0.002899
176 0.003303
177 0.003831
178 0.004021
179 0.003850
180 0.003658
181 0.003692
182 0.003704
183 0.003459
184 0.003308
185 0.002887
186 0.003004
187 0.002954
188 0.002512
189 0.002337
190 0.002429
191 0.002484
192 0.002493
193 0.002417
194 0.002467
195 0.002634
196 0.002696
197 0.002472
198 0.002061
199 0.002119
200 0.002346
201 0.002565
202 0.002812
203 0.002443
204 0.002163
205 0.001773
206 0.001244
207 0.000751
208 0.000641
209 0.000467
210 0.000518
211 0.000708
212 0.000805
213 0.001039
214 0.001123
215 0.000734
216 0.000294
217 0.000357
218 0.000693
219 0.000992
220 0.001320
221 0.001851
222 0.002148
223 0.002063
224 0.001836
225 0.001568
226 0.001296
227 0.001399
228 0.001399
229 0.001386
230 0.001687
231 0.002091
232 0.002274
233 0.002362
234 0.002353
235 0.002410
236 0.002595
237 0.002859
238 0.002882
239 0.002769
240 0.002589
241 0.002232
242 0.002038
243 0.002118
244 0.002166
245 0.002422
246 0.002508
247 0.002293
248 0.002040
249 0.001785
250 0.001318
251 0.001097
252 0.001043
253 0.001182
254 0.001245
255 0.001354
256 0.001246
257 0.001163
258 0.001242
259 0.001446
260 0.001363
261 0.001187
262 0.001264
263 0.001512
264 0.001673
265 0.001754
266 0.001887
267 0.002060
268 0.002010
269 0.001964
270 0.001897
271 0.001997
272 0.002289
273 0.002335
274 0.002326
275 0.002251
276 0.002226
277 0.002175
278 0.002309
279 0.002369
280 0.002326
281 0.002147
282 0.002047
283 0.001942
284 0.001848
285 0.001529
286 0.001643
287 0.001971
288 0.002048
289 0.002383
290 0.002646
291 0.002509
292 0.002241
293 0.002009
294 0.001733
295 0.001350
296 0.001400
297 0.001417
298 0.001227
299 0.000709
300 0.000543
301 0.000211
302 -0.000037
303 -0.000286
304 -0.000652
305 -0.001290
306 -0.001523
307 -0.001810
308 -0.002115
309 -0.002215
310 -0.002221
311 -0.002130
312 -0.001982
313 -0.001669
314 -0.001297
315 -0.001094
316 -0.000902
317 -0.000647
318 -0.000666
319 -0.000716
320 -0.000890
321 -0.001078
322 -0.001083
323 -0.000607
324 -0.000290
325 -0.000043
326 -0.000107
327 -0.000142
328 -0.000024
329 0.000044
330 0.000113
331 0.000305
332 0.000629
333 0.001096
334 0.001400
335 0.001668
336 0.001717
337 0.001669
338 0.001508
339 0.001131
340 0.000869
341 0.000862
342 0.001029
343 0.000981
344 0.001040
345 0.000988
346 0.000959
347 0.001048
348 0.001112
349 0.001027
350 0.000896
351 0.000910
352 0.000853
353 0.000650
354 0.000734
355 0.001143
356 0.001205
357 0.001209
358 0.001427
359 0.001932
360 0.002223
361 0.002266
362 0.001990
363 0.001757
364 0.001796
365 0.001944
366 0.001935
367 0.001828
368 0.001879
369 0.002189
370 0.002367
371 0.002259
372 0.002079
373 0.001789
374 0.001678
375 0.001573
376 0.001989
377 0.002213
378 0.002451
379 0.002691
380 0.002631
381 0.002781
382 0.002828
383 0.002697
384 0.002595
385 0.002566
386 0.002561
387 0.002465
388 0.002244
389 0.002399
390 0.002619
391 0.002963
392 0.003296
393 0.003101
394 0.003048
395 0.002818
396 0.002329
397 0.001875
398 0.001264
399 0.001132
400 0.001233
401 0.001202
402 0.000934
403 0.000947
404 0.001119
405 0.001157
406 0.001086
407 0.000941
408 0.000847
409 0.000742
410 0.000941
411 0.000742
412 0.000907
413 0.000873
414 0.000839
415 0.000602
416 0.000341
417 0.000557
418 0.000568
419 0.000583
420 0.000894
421 0.000838
422 0.000851
423 0.000981
424 0.001007
425 0.001086
426 0.001132
427 0.001280
428 0.001456
429 0.001398
430 0.001481
431 0.001543
432 0.001459
433 0.001447
434 0.001392
435 0.001715
436 0.001839
437 0.001799
438 0.001507
439 0.001181
440 0.001187
441 0.001272
442 0.001267
443 0.001474
444 0.001864
445 0.002385
446 0.002776
447 0.003281
448 0.003665
449 0.003779
450 0.003941
451 0.003854
452 0.003714
453 0.003526
454 0.003277
455 0.003181
456 0.003056
457 0.002932
458 0.002818
459 0.002425
460 0.002119
461 0.001953
462 0.001767
463 0.001697
464 0.001488
465 0.001385
466 0.001471
467 0.001428
468 0.001385
469 0.001238
470 0.001038
471 0.001138
472 0.000875
473 0.000675
474 0.000686
475 0.000558
476 0.000639
477 0.000639
478 0.000683
479 0.000926
480 0.000960
481 0.001028
482 0.000966
483 0.000887
484 0.001085
485 0.001277
486 0.001348
487 0.001256
488 0.001267
489 0.001243
490 0.001295
491 0.001222
492 0.001201
493 0.001324
494 0.001140
495 0.000878
496 0.000713
497 0.000546
498 0.000248
499 0.000197
500 0.000208
501 0.000335
502 0.000377
503 0.000334
504 0.000369
505 0.000520
506 0.000525
507 0.000586
508 0.000735
509 0.000996
510 0.001197
511 0.001401
512 0.001422
513 0.001214
514 0.001174
515 0.001193
516 0.000892
517 0.000561
518 0.000307
519 0.000346
520 0.000487
521 0.000388
522 0.000257
523 -0.000113
524 -0.000148
525 -0.000172
526 -0.000167
527 0.000088
528 0.000419
529 0.000621
530 0.000653
531 0.000750
532 0.000830
533 0.000854
534 0.000870
535 0.000868
536 0.000828
537 0.001055
538 0.001271
539 0.001090
540 0.000828
541 0.000477
542 0.000274
543 0.000025
544 -0.000200
545 -0.000434
546 -0.000466
547 -0.000313
548 -0.000370
549 -0.000492
550 -0.000486
551 -0.000834
552 -0.001176
553 -0.001425
554 -0.001817
555 -0.001691
556 -0.001644
557 -0.001638
558 -0.001578
559 -0.001720
560 -0.001702
561 -0.001719
562 -0.001838
563 -0.001893
564 -0.002249
565 -0.002252
566 -0.002154
567 -0.002184
568 -0.001976
569 -0.001785
570 -0.001844
571 -0.001731
572 -0.001519
573 -0.001162
574 -0.001039
575 -0.000959
576 -0.000840
577 -0.000656
578 -0.000363
579 -0.000390
580 -0.000318
581 -0.000210
582 -0.000143
583 -0.000134
584 -0.000132
585 -0.000199
586 -0.000112
587 0.000029
588 0.000024
589 0.000113
590 0.000228
591 0.000375
592 0.000355
593 0.000422
594 0.000489
595 0.000359
596 0.000286
597 0.000033
598 -0.000223
599 -0.000237
600 -0.000172
601 -0.000061
602 -0.000007
603 0.000171
604 0.000378
605 0.000375
606 0.000278
607 0.000088
608 -0.000118
609 -0.000235
610 -0.000541
611 -0.000847
612 -0.000988
613 -0.000954
614 -0.000758
615 -0.000679
616 -0.000784
617 -0.000933
618 -0.001074
619 -0.001111
620 -0.001185
621 -0.001122
622 -0.000977
623 -0.000662
624 -0.000264
625 -0.000067
626 -0.000064
627 -0.000079
628 -0.000052
629 0.000003
630 0.000057
631 0.000262
632 0.000368
633 0.000371
634 0.000411
635 0.000140
636 -0.000190
637 -0.000438
638 -0.000705
639 -0.000784
640 -0.000811
641 -0.001189
642 -0.001456
643 -0.001671
644 -0.001900
645 -0.001992
646 -0.002153
647 -0.002178
648 -0.001930
649 -0.001622
650 -0.001390
651 -0.001311
652 -0.001056
653 -0.001027
654 -0.001229
655 -0.001285
656 -0.001472
657 -0.001491
658 -0.001318
659 -0.001298
660 -0.001325
661 -0.001373
662 -0.001375
663 -0.001430
664 -0.001565
665 -0.001639
666 -0.001621
667 -0.001406
668 -0.001092
669 -0.001089
670 -0.001161
671 -0.001230
672 -0.001248
673 -0.001400
674 -0.001613
675 -0.001730
676 -0.001775
677 -0.001635
678 -0.001437
679 -0.001202
680 -0.001051
681 -0.000943
682 -0.000733
683 -0.000569
684 -0.000392
685 -0.000376
686 -0.000336
687 -0.000268
688 -0.000364
689 -0.000489
690 -0.000642
691 -0.000944
692 -0.001178
693 -0.001188
694 -0.001309
695 -0.001333
696 -0.001305
697 -0.001467
698 -0.001500
699 -0.001667
700 -0.001877
701 -0.001886
702 -0.002036
703 -0.001982
704 -0.001905
705 -0.001911
706 -0.001798
707 -0.001844
708 -0.001868
709 -0.001773
710 -0.001746
711 -0.001624
712 -0.001614
713 -0.001492
714 -0.001369
715 -0.001203
716 -0.001155
717 -0.001177
718 -0.001225
719 -0.001321
720 -0.001369
721 -0.001327
722 -0.001321
723 -0.001349
724 -0.001340
725 -0.001386
726 -0.001482
727 -0.001490
728 -0.001523
729 -0.001484
730 -0.001500
731 -0.001507
732 -0.001604
733 -0.001521
734 -0.001535
735 -0.001609
736 -0.001654
737 -0.001667
738 -0.001738
739 -0.001809
740 -0.001845
741 -0.001827
742 -0.001642
743 -0.001470
744 -0.001347
745 -0.001366
746 -0.001424
747 -0.001343
748 -0.001278
749 -0.001224
750 -0.001195
751 -0.001193
752 -0.001022
753 -0.000973
754 -0.001005
755 -0.001191
756 -0.001410
757 -0.001597
758 -0.001603
759 -0.001501
760 -0.001316
761 -0.001234
762 -0.001153
763 -0.001049
764 -0.000908
765 -0.000880
766 -0.000910
767 -0.000913
768 -0.000749
769 -0.000601
770 -0.000522
771 -0.000445
772 -0.000388
773 -0.000349
774 -0.000285
775 -0.000237
776 -0.000241
777 -0.000150
778 -0.000162
779 -0.000151
780 -0.000032
781 -0.000034
782 -0.000057
783 -0.000040
784 -0.000187
785 -0.000312
786 -0.000456
787 -0.000535
788 -0.000675
789 -0.000776
790 -0.000797
791 -0.000806
792 -0.000902
793 -0.000917
794 -0.001051
795 -0.000993
796 -0.000965
797 -0.001026
798 -0.001081
799 -0.001148
800 -0.001218
801 -0.001180
802 -0.001206
803 -0.001297
804 -0.001349
805 -0.001268
806 -0.001162
807 -0.001081
808 -0.001115
809 -0.001080
