# i correlation
1 0.013414
2 0.010951
3 0.008709
4 0.006977
5 0.005578
6 0.004405
7 0.003544
8 0.002921
9 0.002426
10 0.001954
11 0.001520
12 0.000946
13 0.000135
14 -0.000240
15 -0.000573
16 -0.000619
17 -0.000912
18 -0.000661
19 -0.000639
20 -0.000949
21 -0.001058
22 -0.001042
23 -0.000990
24 -0.001073
25 -0.001195
26 -0.001379
27 -0.001269
28 -0.001001
29 -0.000587
30 -0.000305
31 -0.000270
32 -0.000093
33 -0.000199
34 -0.000386
35 -0.000532
36 -0.000391
37 -0.000157
38 0.000228
39 0.000344
40 0.000446
41 0.000593
42 0.000952
43 0.001087
44 0.001526
45 0.001477
46 0.001440
47 0.001413
48 0.001683
49 0.001807
50 0.001690
51 0.001301
52 0.001130
53 0.000895
54 0.000837
55 0.000714
56 0.000543
57 0.000418
58 0.000059
59 -0.000483
60 -0.001041
61 -0.001494
62 -0.001725
63 -0.001837
64 -0.001923
65 -0.001903
66 -0.001721
67 -0.001164
68 -0.000895
69 -0.000661
70 -0.000494
71 -0.000524
72 -0.000251
73 -0.000034
74 0.000110
75 0.000235
76 0.000465
77 0.000610
78 0.000206
79 0.000222
80 0.000417
81 0.000543
82 0.000823
83 0.001006
84 0.000968
85 0.000874
86 0.000828
87 0.000646
88 0.000350
89 0.000012
90 -0.000139
91 -0.000175
92 -0.000100
93 -0.000258
94 -0.000332
95 -0.000395
96 -0.000218
97 -0.000249
98 -0.000116
99 0.000275
100 0.000718
101 0.000734
102 0.000655
103 0.000483
104 0.000417
105 0.000556
106 0.000617
107 0.000681
108 0.000673
109 0.000501
110 0.000562
111 0.000867
112 0.001016
113 0.001002
114 0.001186
115 0.000999
116 0.001086
117 0.000779
118 0.000578
119 0.000515
120 0.000159
121 -0.000131
122 -0.000106
123 -0.000194
124 -0.000129
125 -0.000208
126 -0.000552
127 -0.000636
128 -0.000673
129 -0.000475
130 -0.000492
131 -0.000740
132 -0.000810
133 -0.000924
134 -0.001041
135 -0.001127
136 -0.001033
137 -0.001216
138 -0.001183
139 -0.001401
140 -0.001552
141 -0.001758
142 -0.001810
143 -0.001621
144 -0.001594
145 -0.001316
146 -0.000841
147 -0.000192
148 0.000446
149 0.000919
150 0.001209
151 0.001512
152 0.001700
153 0.001940
154 0.002187
155 0.002122
156 0.002140
157 0.002051
158 0.001648
159 0.001465
160 0.001155
161 0.000751
162 0.000167
163 -0.000079
164 0.000014
165 -0.000120
166 -0.000263
167 -0.000506
168 -0.000643
169 -0.000992
170 -0.001266
171 -0.001643
172 -0.001752
173 -0.001919
174 -0.002113
175 -0.002059
176 -0.001894
177 -0.001604
178 -0.001259
179 -0.001009
180 -0.000838
181 -0.000825
182 -0.000588
183 -0.000433
184 -0.000409
185 -0.000317
186 -0.000183
187 0.000044
188 0.000094
189 -0.000040
190 -0.000372
191 -0.000315
192 -0.000249
193 -0.000313
194 -0.000262
195 -0.000008
196 0.000334
197 0.001027
198 0.001371
199 0.001687
200 0.001818
201 0.002028
202 0.001988
203 0.001948
204 0.001963
205 0.001992
206 0.001787
207 0.001570
208 0.001378
209 0.001326
210 0.001213
211 0.000844
212 0.000468
213 0.000041
214 -0.000478
215 -0.000729
216 -0.000695
217 -0.000945
218 -0.001035
219 -0.000937
220 -0.000814
221 -0.000397
222 -0.000189
223 0.000328
224 0.000341
225 0.000380
226 0.000391
227 0.000472
228 0.000609
229 0.000439
230 0.000585
231 0.000606
232 0.000548
233 0.000817
234 0.000969
235 0.001229
236 0.001145
237 0.000866
238 0.000543
239 0.000275
240 -0.000152
241 -0.000412
242 -0.000706
243 -0.000679
244 -0.000737
245 -0.000860
246 -0.001154
247 -0.001359
248 -0.001755
249 -0.001783
250 -0.001689
251 -0.001625
252 -0.001470
253 -0.001479
254 -0.001092
255 -0.000986
256 -0.000992
257 -0.000894
258 -0.001127
259 -0.001108
260 -0.001049
261 -0.001047
262 -0.001035
263 -0.001090
264 -0.000690
265 -0.000005
266 0.000463
267 0.000854
268 0.000977
269 0.000840
270 0.000690
271 0.000695
272 0.000956
273 0.001160
274 0.001230
275 0.001459
276 0.001498
277 0.001512
278 0.001395
279 0.001312
280 0.001288
281 0.000916
282 0.000608
283 0.000544
284 0.000454
285 0.000208
286 0.000014
287 -0.000021
288 0.000010
289 0.000153
290 -0.000039
291 -0.000343
292 -0.000731
293 -0.000682
294 -0.000663
295 -0.000522
296 -0.000354
297 -0.000307
298 -0.000160
299 -0.000099
300 -0.000077
301 -0.000259
302 -0.000375
303 -0.000406
304 -0.000259
305 0.000073
306 0.000415
307 0.000720
308 0.000938
309 0.001037
310 0.001063
311 0.001196
312 0.001552
313 0.001836
314 0.001961
315 0.001909
316 0.001870
317 0.001836
318 0.001595
319 0.001398
320 0.001332
321 0.001380
322 0.001018
323 0.000812
324 0.000646
325 0.000443
326 0.000360
327 0.000221
328 0.000147
329 0.000077
330 0.000004
331 -0.000207
332 -0.000520
333 -0.000664
334 -0.000862
335 -0.000598
336 -0.000385
337 -0.000017
338 -0.000091
339 -0.000168
340 -0.000378
341 -0.000545
342 -0.000529
343 -0.000824
344 -0.000712
345 -0.000475
346 -0.000081
347 0.000257
348 0.000556
349 0.000801
350 0.000991
351 0.001117
352 0.001314
353 0.001312
354 0.001100
355 0.001069
356 0.001176
357 0.001376
358 0.001503
359 0.001449
360 0.001346
361 0.001105
362 0.000673
363 0.000483
364 0.000266
365 0.000130
366 0.000073
367 -0.000039
368 -0.000162
369 -0.000278
370 -0.000406
371 -0.000664
372 -0.000995
373 -0.001113
374 -0.001225
375 -0.001215
376 -0.001130
377 -0.001032
378 -0.000738
379 -0.000177
380 0.000265
381 0.000435
382 0.000641
383 0.000682
384 0.000757
385 0.000627
386 0.000663
387 0.000758
388 0.000836
389 0.000992
390 0.001034
391 0.001016
392 0.000776
393 0.000636
394 0.000603
395 0.000669
396 0.000989
397 0.001014
398 0.001068
399 0.001134
400 0.001191
401 0.001122
402 0.001208
403 0.001205
404 0.001182
405 0.001258
406 0.001162
407 0.001031
408 0.000808
409 0.000598
410 0.000316
411 0.000132
412 0.000031
413 0.000081
414 0.000069
415 -0.000044
416 -0.000429
417 -0.000650
418 -0.000594
419 -0.000543
420 -0.000247
421 0.000002
422 0.000385
423 0.000795
424 0.001183
425 0.001471
426 0.001443
427 0.001500
428 0.001587
429 0.001597
430 0.001602
431 0.001691
432 0.001731
433 0.001673
434 0.001390
435 0.001071
436 0.000979
437 0.000860
438 0.000627
439 0.000412
440 0.000348
441 0.000135
442 0.000118
443 0.000040
444 0.000097
445 -0.000014
446 -0.000207
447 -0.000398
448 -0.000734
449 -0.000710
450 -0.000909
451 -0.001012
452 -0.000871
453 -0.000609
454 -0.000396
455 -0.000306
456 -0.000264
457 -0.000566
458 -0.000740
459 -0.000624
460 -0.000313
461 0.000143
462 0.000419
463 0.000746
464 0.000963
465 0.000942
466 0.001059
467 0.001016
468 0.000834
469 0.000654
470 0.000635
471 0.000730
472 0.000904
473 0.001035
474 0.001228
475 0.001482
476 0.001491
477 0.001467
478 0.001476
479 0.001294
480 0.001371
481 0.001385
482 0.001580
483 0.001378
484 0.001179
485 0.001117
486 0.000855
487 0.000585
488 0.000401
489 0.000114
490 -0.000011
491 -0.000110
492 -0.000164
493 -0.000314
494 -0.000402
495 -0.000455
496 -0.000321
497 -0.000309
498 -0.000213
499 -0.000114
500 0.000088
501 0.000284
502 0.000095
503 0.000161
504 0.000278
505 0.000420
506 0.000555
507 0.000637
508 0.000736
509 0.000831
510 0.001065
511 0.001347
512 0.001578
513 0.001446
514 0.001241
515 0.000994
516 0.000878
517 0.000866
518 0.000868
519 0.000910
520 0.000769
521 0.000606
522 0.000543
523 0.000338
524 0.000138
525 -0.000040
526 -0.000326
527 -0.000596
528 -0.000807
529 -0.000759
530 -0.000640
531 -0.000583
532 -0.000599
533 -0.000523
534 -0.000479
535 -0.000481
536 -0.000431
537 -0.000459
538 -0.000496
539 -0.000594
540 -0.000631
541 -0.000536
542 -0.000613
543 -0.000533
544 -0.000438
545 -0.000380
546 -0.000301
547 -0.000252
548 -0.000059
549 0.000108
550 0.000354
551 0.000040
552 -0.000058
553 -0.000207
554 -0.000154
555 0.000063
556 0.000130
557 0.000145
558 0.000293
559 0.000340
560 0.000680
561 0.000896
562 0.001027
563 0.001162
564 0.001095
565 0.000954
566 0.000839
567 0.000671
568 0.000583
569 0.000314
570 -0.000011
571 -0.000224
572 -0.000402
573 -0.000440
574 -0.000306
575 -0.000122
576 -0.000076
577 -0.000027
578 0.000268
579 0.000571
580 0.000881
581 0.000937
582 0.001097
583 0.001023
584 0.000933
585 0.000844
586 0.000597
587 0.000577
588 0.000661
589 0.000602
590 0.000521
591 0.000301
592 0.000346
593 0.000355
594 0.000312
595 0.000004
596 -0.000048
597 -0.000331
598 -0.000599
599 -0.000852
600 -0.001002
601 -0.001097
602 -0.000940
603 -0.000841
604 -0.000581
605 -0.000439
606 -0.000313
607 -0.000094
608 -0.000068
609 -0.000125
610 0.000036
611 0.000235
612 0.000682
613 0.000831
614 0.001064
615 0.001086
616 0.000930
617 0.000915
618 0.000874
619 0.000685
620 0.000544
621 0.000386
622 0.000363
623 0.000295
624 0.000255
625 0.000270
626 0.000266
627 0.000203
628 -0.000048
629 -0.000125
630 -0.000034
631 0.000057
632 0.000190
633 0.000226
634 0.000222
635 0.000217
636 0.000118
637 -0.000028
638 -0.000214
639 -0.000403
640 -0.000635
641 -0.000759
642 -0.000901
643 -0.001070
644 -0.001118
645 -0.001138
646 -0.001116
647 -0.001097
648 -0.001009
649 -0.001052
650 -0.001007
651 -0.001261
652 -0.001460
653 -0.001628
654 -0.001488
655 -0.001430
656 -0.001135
657 -0.000985
658 -0.000637
659 -0.000250
660 0.000110
661 0.000283
662 0.000493
663 0.000594
664 0.000657
665 0.000715
666 0.000782
667 0.000617
668 0.000494
669 0.000449
670 0.000373
671 0.000262
672 0.000184
673 -0.000095
674 -0.000268
675 -0.000411
676 -0.000684
677 -0.000710
678 -0.000796
679 -0.000594
680 -0.000585
681 -0.000632
682 -0.000677
683 -0.000728
684 -0.000706
685 -0.000845
686 -0.000910
687 -0.000874
688 -0.000938
689 -0.000925
690 -0.001036
691 -0.001146
692 -0.001360
693 -0.001429
694 -0.001391
695 -0.001248
696 -0.001114
697 -0.000862
698 -0.000557
699 -0.000407
700 -0.000291
701 -0.000270
702 -0.000275
703 -0.000279
704 -0.000220
705 -0.000234
706 -0.000180
707 -0.000083
708 -0.000029
709 0.000021
710 0.000042
711 0.000161
712 0.000162
713 0.000221
714 0.000407
715 0.000458
716 0.000594
717 0.000781
718 0.000869
719 0.000907
720 0.000851
721 0.000711
722 0.000491
723 0.000153
724 -0.000217
725 -0.000472
726 -0.000469
727 -0.000403
728 -0.000462
729 -0.000337
730 -0.000350
731 -0.000212
732 -0.000023
733 -0.000028
734 -0.000081
735 -0.000042
736 -0.000010
737 -0.000171
738 -0.000198
739 -0.000139
740 -0.000173
741 -0.000106
742 0.000016
743 0.000093
744 0.000196
745 0.000319
746 0.000562
747 0.000782
748 0.000824
749 0.000887
750 0.000938
751 0.000824
752 0.000804
753 0.000619
754 0.000612
755 0.000628
756 0.000550
757 0.000451
758 0.000422
759 0.000391
760 0.000527
761 0.000745
762 0.000762
763 0.000644
764 0.000664
765 0.000682
766 0.000752
767 0.000657
768 0.000608
769 0.000541
770 0.000572
771 0.000648
772 0.000573
773 0.000419
774 0.000201
775 0.000126
776 0.000161
777 0.000154
778 0.000133
779 0.000252
780 0.000287
781 0.000325
782 0.000282
783 0.000293
784 0.000383
785 0.000456
786 0.000489
787 0.000514
788 0.000554
789 0.000614
790 0.000844
791 0.001082
792 0.000958
793 0.000950
794 0.000871
795 0.000713
796 0.000600
797 0.000549
798 0.000526
799 0.000582
800 0.000593
801 0.000602
802 0.000693
803 0.000760
804 0.000748
805 0.000784
806 0.000627
807 0.000380
808 0.000234
809 0.000193
