# i correlation
1 0.013490
2 0.010675
3 0.008334
4 0.006795
5 0.005689
6 0.004518
7 0.003385
8 0.002131
9 0.001191
10 0.000512
11 0.000452
12 0.000624
13 0.000930
14 0.001219
15 0.001599
16 0.001756
17 0.002039
18 0.002165
19 0.002050
20 0.001665
21 0.001582
22 0.001680
23 0.002027
24 0.002011
25 0.001803
26 0.001375
27 0.000991
28 0.000667
29 0.000468
30 0.000456
31 0.000394
32 0.000216
33 0.000073
34 0.000013
35 -0.000063
36 0.000122
37 0.000104
38 0.000349
39 0.000481
40 0.000461
41 0.000405
42 0.000264
43 -0.000004
44 -0.000019
45 -0.000001
46 -0.000005
47 -0.000035
48 0.000175
49 0.000322
50 0.000437
51 0.000511
52 0.000591
53 0.000771
54 0.001058
55 0.001466
56 0.001825
57 0.001570
58 0.000911
59 0.000289
60 -0.000061
61 -0.000200
62 -0.000188
63 -0.000092
64 -0.000222
65 -0.000418
66 -0.000472
67 -0.000460
68 -0.000432
69 -0.000216
70 -0.000186
71 -0.000145
72 -0.000332
73 -0.000242
74 -0.000140
75 -0.000101
76 0.000122
77 0.000159
78 -0.000008
79 -0.000036
80 0.000005
81 -0.000184
82 -0.000193
83 -0.000128
84 -0.000188
85 -0.000428
86 -0.000521
87 -0.000705
88 -0.000606
89 -0.000662
90 -0.000638
91 -0.000581
92 -0.000669
93 -0.000997
94 -0.001115
95 -0.000790
96 -0.000617
97 -0.000399
98 -0.000435
99 -0.000491
100 -0.000383
101 -0.000290
102 -0.000400
103 -0.000594
104 -0.000810
105 -0.000520
106 -0.000420
107 -0.000520
108 -0.000773
109 -0.000772
110 -0.000435
111 -0.000255
112 -0.000079
113 -0.000136
114 -0.000120
115 0.000282
116 0.000669
117 0.000739
118 0.000940
119 0.000845
120 0.000905
121 0.000813
122 0.000921
123 0.000923
124 0.000952
125 0.001118
126 0.001091
127 0.001148
128 0.001090
129 0.000959
130 0.000636
131 0.000458
132 0.000343
133 0.000346
134 0.000274
135 0.000341
136 0.000097
137 -0.000105
138 -0.000432
139 -0.000370
140 -0.000386
141 -0.000369
142 -0.000374
143 -0.000338
144 -0.000416
145 -0.000617
146 -0.000473
147 -0.000311
148 -0.000034
149 0.000053
150 0.000329
151 0.000728
152 0.000901
153 0.000990
154 0.001214
155 0.001367
156 0.001383
157 0.001212
158 0.001063
159 0.000768
160 0.000534
161 0.000401
162 0.000425
163 0.000397
164 0.000211
165 0.000179
166 0.000262
167 0.000165
168 0.000194
169 0.000138
170 -0.000010
171 -0.000099
172 -0.000215
173 -0.000176
174 0.000291
175 0.000553
176 0.000824
177 0.000825
178 0.000808
179 0.000752
180 0.000630
181 0.000624
182 0.000703
183 0.000861
184 0.000713
185 0.000378
186 -0.000024
187 -0.000111
188 -0.000420
189 -0.000597
190 -0.000873
191 -0.000951
192 -0.000752
193 -0.000596
194 -0.000686
195 -0.000805
196 -0.000765
197 -0.000858
198 -0.000787
199 -0.000700
200 -0.000460
201 -0.000317
202 -0.000373
203 -0.000773
204 -0.001048
205 -0.000767
206 -0.000224
207 0.000182
208 0.000603
209 0.000629
210 0.000945
211 0.001232
212 0.001389
213 0.001349
214 0.000959
215 0.000635
216 0.000477
217 0.000426
218 0.000405
219 0.000293
220 -0.000102
221 -0.000462
222 -0.000482
223 -0.000048
224 0.000383
225 0.000828
226 0.000975
227 0.000792
228 0.000562
229 0.000532
230 0.000775
231 0.001138
232 0.001408
233 0.001215
234 0.001063
235 0.001165
236 0.001247
237 0.001304
238 0.001355
239 0.001629
240 0.001935
241 0.002091
242 0.002211
243 0.002057
244 0.002058
245 0.001865
246 0.001698
247 0.001667
248 0.001669
249 0.001725
250 0.001598
251 0.001554
252 0.001388
253 0.001407
254 0.001358
255 0.001249
256 0.001469
257 0.001659
258 0.001618
259 0.001316
260 0.001041
261 0.000970
262 0.001002
263 0.001161
264 0.001415
265 0.001373
266 0.001483
267 0.001525
268 0.001682
269 0.001613
270 0.001443
271 0.001326
272 0.001184
273 0.001187
274 0.001102
275 0.001227
276 0.001260
277 0.000936
278 0.000737
279 0.000825
280 0.001078
281 0.001373
282 0.001438
283 0.001060
284 0.000779
285 0.000629
286 0.000452
287 0.000075
288 -0.000234
289 -0.000373
290 -0.000763
291 -0.000947
292 -0.000902
293 -0.000711
294 -0.000468
295 -0.000428
296 -0.000395
297 -0.000092
298 0.000279
299 0.000507
300 0.000430
301 0.000194
302 -0.000041
303 -0.000151
304 -0.000350
305 -0.000454
306 -0.000516
307 -0.000538
308 -0.000511
309 -0.000286
310 -0.000060
311 0.000223
312 0.000469
313 0.000701
314 0.000850
315 0.000985
316 0.001024
317 0.001125
318 0.001320
319 0.000991
320 0.000649
321 0.000227
322 0.000048
323 -0.000004
324 -0.000112
325 -0.000342
326 -0.000514
327 -0.000467
328 -0.000452
329 -0.000451
330 -0.000305
331 -0.000006
332 0.000319
333 0.000642
334 0.000696
335 0.000735
336 0.000743
337 0.001040
338 0.001116
339 0.001002
340 0.000723
341 0.000491
342 0.000177
343 -0.000318
344 -0.000849
345 -0.001370
346 -0.001811
347 -0.001952
348 -0.001858
349 -0.001806
350 -0.001556
351 -0.001312
352 -0.001026
353 -0.000690
354 -0.000352
355 -0.000209
356 -0.000284
357 -0.000196
358 0.000109
359 0.000551
360 0.000656
361 0.000794
362 0.000837
363 0.000921
364 0.000906
365 0.000862
366 0.000790
367 0.000670
368 0.000449
369 0.000240
370 0.000118
371 0.000055
372 -0.000052
373 -0.000047
374 0.000049
375 0.000032
376 0.000331
377 0.000372
378 0.000459
379 0.000524
380 0.000526
381 0.000523
382 0.000508
383 0.000528
384 0.000427
385 0.000280
386 0.000094
387 0.000031
388 0.000049
389 0.000213
390 0.000381
391 0.000438
392 0.000466
393 0.000672
394 0.001151
395 0.001700
396 0.001745
397 0.001803
398 0.001591
399 0.001391
400 0.001098
401 0.000980
402 0.000601
403 0.000375
404 0.000099
405 -0.000147
406 -0.000097
407 0.000166
408 0.000444
409 0.000700
410 0.000705
411 0.000509
412 0.000325
413 0.000330
414 0.000411
415 0.000454
416 0.000383
417 0.000259
418 0.000338
419 0.000377
420 0.000332
421 0.000242
422 0.000181
423 0.000295
424 0.000591
425 0.000679
426 0.000651
427 0.000512
428 0.000443
429 0.000530
430 0.000586
431 0.000515
432 0.000685
433 0.000959
434 0.001003
435 0.000952
436 0.001036
437 0.001252
438 0.001345
439 0.001186
440 0.001025
441 0.000797
442 0.000611
443 0.000703
444 0.000380
445 0.000041
446 -0.000310
447 -0.000357
448 -0.000343
449 -0.000011
450 0.000269
451 0.000330
452 0.000145
453 -0.000077
454 -0.000104
455 -0.000009
456 0.000056
457 -0.000130
458 -0.000290
459 -0.000421
460 -0.000506
461 -0.000564
462 -0.000563
463 -0.000389
464 -0.000159
465 -0.000153
466 0.000071
467 -0.000130
468 -0.000162
469 -0.000207
470 -0.000353
471 -0.000383
472 -0.000370
473 -0.000319
474 -0.000194
475 -0.000208
476 -0.000184
477 -0.000114
478 -0.000136
479 0.000034
480 0.000076
481 0.000263
482 0.000243
483 0.000288
484 0.000295
485 0.000455
486 0.000821
487 0.001176
488 0.001261
489 0.001482
490 0.001576
491 0.001647
492 0.001820
493 0.001864
494 0.001893
495 0.001656
496 0.001347
497 0.000826
498 0.000440
499 0.000229
500 -0.000016
501 -0.000236
502 -0.000610
503 -0.001038
504 -0.001239
505 -0.001076
506 -0.000616
507 -0.000136
508 0.000198
509 0.000419
510 0.000648
511 0.000934
512 0.001274
513 0.001542
514 0.001537
515 0.001519
516 0.001516
517 0.001556
518 0.001391
519 0.001173
520 0.000959
521 0.000529
522 0.000040
523 -0.000339
524 -0.000231
525 0.000070
526 0.000307
527 0.000174
528 -0.000079
529 -0.000161
530 -0.000138
531 0.000012
532 0.000235
533 0.000409
534 0.000550
535 0.000590
536 0.000540
537 0.000516
538 0.000604
539 0.000631
540 0.000699
541 0.000730
542 0.000766
543 0.000909
544 0.000871
545 0.000804
546 0.000753
547 0.000637
548 0.000694
549 0.000756
550 0.000727
551 0.000498
552 0.000367
553 0.000270
554 0.000085
555 0.000069
556 0.000000
557 0.000011
558 0.000039
559 0.000048
560 0.000018
561 0.000113
562 0.000315
563 0.000583
564 0.000860
565 0.001062
566 0.001140
567 0.001154
568 0.000927
569 0.000800
570 0.000637
571 0.000734
572 0.000724
573 0.000692
574 0.000537
575 0.000305
576 0.000202
577 0.000084
578 -0.000015
579 -0.000032
580 -0.000181
581 -0.000291
582 -0.000259
583 -0.000312
584 -0.000222
585 -0.000426
586 -0.000387
587 -0.000364
588 -0.000281
589 -0.000109
590 0.000007
591 0.000164
592 0.000102
593 0.000013
594 -0.000049
595 0.000070
596 0.000178
597 0.000207
598 0.000139
599 0.000120
600 0.000116
601 0.000245
602 0.000274
603 0.000321
604 0.000377
605 0.000398
606 0.000319
607 0.000281
608 0.000237
609 0.000291
610 0.000168
611 0.000155
612 0.000252
613 0.000267
614 0.000361
615 0.000456
616 0.000494
617 0.000528
618 0.000538
619 0.000497
620 0.000427
621 0.000235
622 0.000078
623 -0.000181
624 -0.000412
625 -0.000625
626 -0.000693
627 -0.000626
628 -0.000622
629 -0.000445
630 -0.000363
631 -0.000224
632 0.000021
633 0.000126
634 0.000361
635 0.000586
636 0.000719
637 0.000694
638 0.000651
639 0.000537
640 0.000448
641 0.000441
642 0.000559
643 0.000662
644 0.000628
645 0.000497
646 0.000256
647 0.000196
648 0.000225
649 0.000243
650 0.000371
651 0.000519
652 0.000618
653 0.000793
654 0.000834
655 0.000933
656 0.000921
657 0.000744
658 0.000609
659 0.000603
660 0.000591
661 0.000482
662 0.000289
663 0.000099
664 -0.000053
665 -0.000042
666 -0.000059
667 -0.000037
668 0.000141
669 0.000157
670 0.000207
671 0.000277
672 0.000327
673 0.000457
674 0.000582
675 0.000644
676 0.000625
677 0.000600
678 0.000516
679 0.000539
680 0.000546
681 0.000518
682 0.000621
683 0.000581
684 0.000399
685 0.000246
686 0.000088
687 -0.000151
688 -0.000286
689 -0.000232
690 -0.000327
691 -0.000286
692 -0.000217
693 -0.000255
694 -0.000204
695 -0.000140
696 -0.000151
697 -0.000188
698 -0.000093
699 -0.000060
700 0.000067
701 -0.000076
702 -0.000180
703 -0.000339
704 -0.000410
705 -0.000484
706 -0.000442
707 -0.000379
708 -0.000314
709 -0.000330
710 -0.000461
711 -0.000546
712 -0.000416
713 -0.000289
714 -0.000362
715 -0.000459
716 -0.000642
717 -0.000713
718 -0.000565
719 -0.000335
720 -0.000345
721 -0.000342
722 -0.000362
723 -0.000302
724 -0.000277
725 -0.000250
726 -0.000289
727 -0.000193
728 -0.000308
729 -0.000424
730 -0.000411
731 -0.000443
732 -0.000510
733 -0.000584
734 -0.000586
735 -0.000569
736 -0.000394
737 -0.000276
738 -0.000222
739 -0.000358
740 -0.000630
741 -0.000823
742 -0.000854
743 -0.000819
744 -0.000746
745 -0.000677
746 -0.000654
747 -0.000585
748 -0.000356
749 -0.000124
750 0.000037
751 0.000132
752 0.000194
753 0.000081
754 -0.000056
755 -0.000168
756 -0.000294
757 -0.000281
758 -0.000336
759 -0.000367
760 -0.000304
761 -0.000263
762 -0.000274
763 -0.000250
764 -0.000322
765 -0.000255
766 -0.000111
767 -0.000078
768 -0.000053
769 -0.000068
770 -0.000163
771 -0.000158
772 -0.000147
773 -0.000068
774 0.000065
775 0.000192
776 0.000220
777 0.000211
778 0.000146
779 0.000034
780 -0.000028
781 -0.000153
782 -0.000140
783 -0.000086
784 -0.000024
785 0.000036
786 -0.000014
787 -0.000024
788 0.000053
789 0.000090
790 0.000159
791 0.000261
792 0.000362
793 0.000338
794 0.000228
795 0.000087
796 0.000056
797 0.000105
798 0.000149
799 0.000109
800 0.000112
801 0.000213
802 0.000359
803 0.000450
804 0.000539
805 0.000618
806 0.000625
807 0.000565
808 0.000430
809 0.000337
