# i correlation
1 0.021816
2 0.019377
3 0.017427
4 0.015653
5 0.014464
6 0.013628
7 0.012673
8 0.011761
9 0.010944
10 0.010044
11 0.009335
12 0.008796
13 0.008070
14 0.007270
15 0.006315
16 0.005681
17 0.005334
18 0.005457
19 0.005245
20 0.004583
21 0.004138
22 0.003842
23 0.003660
24 0.003337
25 0.003133
26 0.002847
27 0.002399
28 0.002522
29 0.002539
30 0.002632
31 0.002937
32 0.002993
33 0.003087
34 0.003333
35 0.003665
36 0.003903
37 0.003861
38 0.003744
39 0.003354
40 0.002693
41 0.002492
42 0.002198
43 0.002241
44 0.002544
45 0.002289
46 0.002236
47 0.002135
48 0.001966
49 0.001512
50 0.001427
51 0.001724
52 0.001997
53 0.002278
54 0.002334
55 0.002163
56 0.002047
57 0.002173
58 0.001975
59 0.001764
60 0.001763
61 0.001496
62 0.001308
63 0.001151
64 0.001218
65 0.001318
66 0.001529
67 0.002186
68 0.002811
69 0.003433
70 0.003845
71 0.004271
72 0.004644
73 0.004743
74 0.004505
75 0.004343
76 0.004405
77 0.004190
78 0.004244
79 0.004812
80 0.005141
81 0.004951
82 0.004913
83 0.004735
84 0.004219
85 0.004145
86 0.004040
87 0.003858
88 0.003487
89 0.003169
90 0.002704
91 0.002376
92 0.002051
93 0.001955
94 0.001800
95 0.001947
96 0.001926
97 0.001834
98 0.002035
99 0.002179
100 0.002149
101 0.001948
102 0.001801
103 0.001971
104 0.001987
105 0.002235
106 0.002270
107 0.002511
108 0.002923
109 0.002857
110 0.002758
111 0.002867
112 0.002639
113 0.002393
114 0.002646
115 0.002806
116 0.003158
117 0.003541
118 0.003544
119 0.003473
120 0.003442
121 0.003671
122 0.003875
123 0.004143
124 0.004347
125 0.004377
126 0.004418
127 0.004389
128 0.003928
129 0.003729
130 0.003693
131 0.003818
132 0.003830
133 0.003752
134 0.003532
135 0.002804
136 0.002394
137 0.002133
138 0.002132
139 0.002676
140 0.003098
141 0.003317
142 0.003310
143 0.003342
144 0.003097
145 0.002841
146 0.002415
147 0.002248
148 0.001858
149 0.001670
150 0.001671
151 0.001988
152 0.002390
153 0.002711
154 0.002629
155 0.002853
156 0.002740
157 0.002684
158 0.002744
159 0.002935
160 0.002997
161 0.003208
162 0.003523
163 0.003496
164 0.003113
165 0.002682
166 0.002234
167 0.002124
168 0.002126
169 0.002104
170 0.002074
171 0.001562
172 0.001054
173 0.000722
174 0.000527
175 0.000469
176 0.000687
177 0.000556
178 0.000549
179 0.000449
180 0.000012
181 -0.000303
182 -0.000675
183 -0.000936
184 -0.001319
185 -0.001521
186 -0.001569
187 -0.001244
188 -0.001049
189 -0.001131
190 -0.000877
191 -0.000505
192 -0.000514
193 -0.000360
194 -0.000022
195 0.000382
196 0.000805
197 0.001355
198 0.001552
199 0.001830
200 0.002004
201 0.001610
202 0.001401
203 0.001203
204 0.000881
205 0.000992
206 0.001007
207 0.001172
208 0.001245
209 0.001136
210 0.001196
211 0.001416
212 0.001462
213 0.001642
214 0.001857
215 0.001744
216 0.001726
217 0.001581
218 0.001271
219 0.001238
220 0.001392
221 0.001470
222 0.001795
223 0.002001
224 0.002199
225 0.002454
226 0.002871
227 0.003188
228 0.003201
229 0.003440
230 0.003792
231 0.004070
232 0.004202
233 0.004439
234 0.004449
235 0.004628
236 0.004653
237 0.004283
238 0.004310
239 0.004140
240 0.003787
241 0.004080
242 0.004188
243 0.004028
244 0.003941
245 0.003434
246 0.002944
247 0.002566
248 0.002549
249 0.002362
250 0.002292
251 0.001933
252 0.001552
253 0.001085
254 0.000632
255 0.000583
256 0.000291
257 -0.000019
258 -0.000361
259 -0.000545
260 -0.001009
261 -0.001247
262 -0.001425
263 -0.001428
264 -0.001500
265 -0.001550
266 -0.001442
267 -0.001071
268 -0.001112
269 -0.001108
270 -0.000904
271 -0.000720
272 -0.000547
273 -0.000250
274 0.000022
275 -0.000033
276 -0.000033
277 -0.000054
278 0.000079
279 0.000332
280 0.000467
281 0.000490
282 0.000525
283 0.000513
284 0.000921
285 0.001110
286 0.001348
287 0.001352
288 0.001163
289 0.000998
290 0.000779
291 0.000630
292 0.000647
293 0.000942
294 0.001280
295 0.001783
296 0.002059
297 0.001994
298 0.002092
299 0.001968
300 0.001846
301 0.001830
302 0.002128
303 0.002520
304 0.002633
305 0.002672
306 0.002741
307 0.003054
308 0.003072
309 0.003118
310 0.003323
311 0.003137
312 0.002692
313 0.002355
314 0.002307
315 0.002250
316 0.002182
317 0.002214
318 0.001921
319 0.001689
320 0.001615
321 0.001938
322 0.002185
323 0.002140
324 0.002076
325 0.001777
326 0.001463
327 0.001374
328 0.001430
329 0.001501
330 0.001644
331 0.001793
332 0.001652
333 0.001396
334 0.001053
335 0.000805
336 0.000491
337 0.000578
338 0.000761
339 0.001027
340 0.001444
341 0.001836
342 0.002195
343 0.001982
344 0.001841
345 0.001603
346 0.001427
347 0.001422
348 0.001305
349 0.001343
350 0.001475
351 0.001567
352 0.001677
353 0.001695
354 0.001769
355 0.001953
356 0.001895
357 0.001550
358 0.001514
359 0.001305
360 0.001296
361 0.001204
362 0.000993
363 0.000748
364 0.000522
365 0.000451
366 0.000388
367 0.000385
368 0.000206
369 -0.000154
370 -0.000435
371 -0.000756
372 -0.000942
373 -0.000810
374 -0.000450
375 -0.000060
376 0.000112
377 0.000040
378 0.000072
379 0.000082
380 -0.000142
381 -0.000183
382 -0.000090
383 -0.000086
384 0.000105
385 0.000152
386 0.000232
387 0.000088
388 -0.000081
389 -0.000181
390 -0.000289
391 -0.000550
392 -0.000611
393 -0.000464
394 -0.000367
395 -0.000274
396 -0.000151
397 0.000037
398 0.000163
399 0.000170
400 0.000054
401 -0.000292
402 -0.000367
403 -0.000384
404 -0.000513
405 -0.000424
406 -0.000590
407 -0.000741
408 -0.001008
409 -0.001204
410 -0.001161
411 -0.001064
412 -0.000839
413 -0.000847
414 -0.000729
415 -0.001003
416 -0.001195
417 -0.001132
418 -0.001083
419 -0.001240
420 -0.001190
421 -0.001118
422 -0.000832
423 -0.000539
424 -0.000300
425 -0.000134
426 0.000032
427 0.000123
428 0.000277
429 0.000575
430 0.000781
431 0.000995
432 0.001022
433 0.001114
434 0.001016
435 0.001165
436 0.001276
437 0.001277
438 0.001237
439 0.000764
440 0.000558
441 0.000606
442 0.000318
443 0.000184
444 0.000006
445 -0.000356
446 -0.000366
447 -0.000436
448 -0.000586
449 -0.000491
450 -0.000388
451 -0.000418
452 -0.000495
453 -0.000444
454 -0.000270
455 0.000106
456 0.000257
457 0.000178
458 0.000305
459 0.000155
460 0.000197
461 0.000370
462 0.000502
463 0.000654
464 0.000838
465 0.000991
466 0.001213
467 0.001217
468 0.001075
469 0.001125
470 0.001141
471 0.001211
472 0.001368
473 0.001161
474 0.001175
475 0.001032
476 0.000657
477 0.000261
478 -0.000106
479 -0.000316
480 -0.000447
481 -0.000467
482 -0.000497
483 -0.000421
484 -0.000190
485 -0.000006
486 -0.000188
487 -0.000696
488 -0.001257
489 -0.001670
490 -0.001883
491 -0.002164
492 -0.002191
493 -0.002209
494 -0.002181
495 -0.002353
496 -0.002725
497 -0.002886
498 -0.002881
499 -0.002961
500 -0.002663
501 -0.002349
502 -0.002105
503 -0.001778
504 -0.001596
505 -0.001608
506 -0.001655
507 -0.001535
508 -0.001347
509 -0.001303
510 -0.001196
511 -0.001071
512 -0.001119
513 -0.001126
514 -0.001295
515 -0.001456
516 -0.001576
517 -0.001605
518 -0.001572
519 -0.001627
520 -0.001491
521 -0.001443
522 -0.001312
523 -0.001265
524 -0.001244
525 -0.001241
526 -0.001192
527 -0.001361
528 -0.001444
529 -0.001464
530 -0.001586
531 -0.001702
532 -0.001881
533 -0.002095
534 -0.002060
535 -0.002125
536 -0.001905
537 -0.001536
538 -0.001156
539 -0.000661
540 -0.000512
541 -0.000439
542 -0.000481
543 -0.000468
544 -0.000531
545 -0.000564
546 -0.000549
547 -0.000594
548 -0.000704
549 -0.000839
550 -0.001016
551 -0.001045
552 -0.000984
553 -0.000959
554 -0.000816
555 -0.000631
556 -0.000747
557 -0.000674
558 -0.000570
559 -0.000667
560 -0.000917
561 -0.000911
562 -0.000819
563 -0.000705
564 -0.000692
565 -0.000640
566 -0.000830
567 -0.001016
568 -0.001407
569 -0.001675
570 -0.001828
571 -0.001980
572 -0.001871
573 -0.001678
574 -0.001646
575 -0.001582
576 -0.001557
577 -0.001452
578 -0.001439
579 -0.001519
580 -0.001401
581 -0.001203
582 -0.001195
583 -0.001038
584 -0.000862
585 -0.000952
586 -0.001044
587 -0.001129
588 -0.001259
589 -0.001450
590 -0.001429
591 -0.001370
592 -0.001277
593 -0.001087
594 -0.001014
595 -0.000938
596 -0.000767
597 -0.000726
598 -0.000664
599 -0.000633
600 -0.000788
601 -0.000982
602 -0.001063
603 -0.001194
604 -0.001561
605 -0.001771
606 -0.001896
607 -0.002087
608 -0.002195
609 -0.002306
610 -0.002609
611 -0.002811
612 -0.003092
613 -0.003500
614 -0.003752
615 -0.003995
616 -0.004088
617 -0.004018
618 -0.004063
619 -0.003865
620 -0.003816
621 -0.003700
622 -0.003691
623 -0.003492
624 -0.003224
625 -0.002814
626 -0.002409
627 -0.002156
628 -0.001977
629 -0.002027
630 -0.002071
631 -0.001882
632 -0.001790
633 -0.001617
634 -0.001293
635 -0.001109
636 -0.001000
637 -0.000683
638 -0.000554
639 -0.000519
640 -0.000581
641 -0.000631
642 -0.000740
643 -0.000762
644 -0.000668
645 -0.000452
646 -0.000406
647 -0.000271
648 -0.000238
649 -0.000195
650 -0.000379
651 -0.000527
652 -0.000499
653 -0.000523
654 -0.000578
655 -0.000505
656 -0.000503
657 -0.000492
658 -0.000545
659 -0.000646
660 -0.000434
661 -0.000326
662 -0.000075
663 0.000187
664 0.000168
665 0.000083
666 -0.000021
667 -0.000102
668 -0.000249
669 -0.000459
670 -0.000516
671 -0.000491
672 -0.000420
673 -0.000403
674 -0.000468
675 -0.000622
676 -0.000744
677 -0.000882
678 -0.000842
679 -0.000609
680 -0.000454
681 -0.000260
682 -0.000197
683 -0.000238
684 -0.000246
685 -0.000282
686 -0.000359
687 -0.000663
688 -0.000796
689 -0.000923
690 -0.001087
691 -0.001143
692 -0.001137
693 -0.001222
694 -0.001246
695 -0.001289
696 -0.001230
697 -0.001222
698 -0.001184
699 -0.001139
700 -0.001162
701 -0.001137
702 -0.001140
703 -0.001176
704 -0.001156
705 -0.001154
706 -0.001083
707 -0.000930
708 -0.000778
709 -0.000850
710 -0.000881
711 -0.001098
712 -0.001337
713 -0.001440
714 -0.001528
715 -0.001586
716 -0.001608
717 -0.001474
718 -0.001561
719 -0.001586
720 -0.001440
721 -0.001473
722 -0.001521
723 -0.001734
724 -0.001818
725 -0.001838
726 -0.001897
727 -0.001891
728 -0.001963
729 -0.002012
730 -0.002106
731 -0.002123
732 -0.002159
733 -0.002131
734 -0.002024
735 -0.002104
736 -0.002174
737 -0.002235
738 -0.002119
739 -0.001900
740 -0.001804
741 -0.001813
742 -0.001764
743 -0.001804
744 -0.001827
745 -0.001750
746 -0.001724
747 -0.001701
748 -0.001721
749 -0.001766
750 -0.001769
751 -0.001646
752 -0.001471
753 -0.001306
754 -0.001209
755 -0.001243
756 -0.001217
757 -0.001231
758 -0.001227
759 -0.001210
760 -0.001093
761 -0.000963
762 -0.001024
763 -0.001053
764 -0.001022
765 -0.000901
766 -0.000850
767 -0.000790
768 -0.000711
769 -0.000667
770 -0.000536
771 -0.000540
772 -0.000516
773 -0.000457
774 -0.000406
775 -0.000295
776 -0.000386
777 -0.000414
778 -0.000323
779 -0.000175
780 -0.000127
781 -0.000158
782 -0.000242
783 -0.000433
784 -0.000495
785 -0.000623
786 -0.000660
787 -0.000754
788 -0.000743
789 -0.000745
790 -0.000786
791 -0.000774
792 -0.000733
793 -0.000593
794 -0.000577
795 -0.000567
796 -0.000534
797 -0.000476
798 -0.000445
799 -0.000402
800 -0.000333
801 -0.000354
802 -0.000308
803 -0.000377
804 -0.000383
805 -0.000465
806 -0.000327
807 -0.000170
808 -0.000194
809 -0.000273
