# i correlation
1 0.001718
2 0.001598
3 0.001520
4 0.001452
5 0.001393
6 0.001333
7 0.001292
8 0.001255
9 0.001209
10 0.001178
11 0.001149
12 0.001132
13 0.001095
14 0.001062
15 0.001058
16 0.001051
17 0.001031
18 0.001023
19 0.001030
20 0.001041
21 0.001060
22 0.001068
23 0.001065
24 0.001078
25 0.001079
26 0.001072
27 0.001073
28 0.001088
29 0.001094
30 0.001098
31 0.001110
32 0.001126
33 0.001135
34 0.001128
35 0.001109
36 0.001089
37 0.001059
38 0.001026
39 0.000998
40 0.000975
41 0.000960
42 0.000947
43 0.000930
44 0.000907
45 0.000894
46 0.000888
47 0.000863
48 0.000857
49 0.000855
50 0.000853
51 0.000860
52 0.000847
53 0.000834
54 0.000833
55 0.000835
56 0.000833
57 0.000826
58 0.000834
59 0.000830
60 0.000832
61 0.000856
62 0.000877
63 0.000899
64 0.000915
65 0.000932
66 0.000938
67 0.000949
68 0.000948
69 0.000940
70 0.000933
71 0.000908
72 0.000889
73 0.000882
74 0.000878
75 0.000873
76 0.000868
77 0.000871
78 0.000872
79 0.000880
80 0.000882
81 0.000886
82 0.000896
83 0.000901
84 0.000908
85 0.000912
86 0.000908
87 0.000900
88 0.000884
89 0.000867
90 0.000858
91 0.000855
92 0.000844
93 0.000838
94 0.000832
95 0.000830
96 0.000827
97 0.000828
98 0.000841
99 0.000847
100 0.000840
101 0.000851
102 0.000859
103 0.000863
104 0.000857
105 0.000851
106 0.000843
107 0.000831
108 0.000818
109 0.000810
110 0.000799
111 0.000789
112 0.000777
113 0.000785
114 0.000790
115 0.000792
116 0.000802
117 0.000807
118 0.000821
119 0.000835
120 0.000827
121 0.000823
122 0.000813
123 0.000817
124 0.000804
125 0.000794
126 0.000795
127 0.000793
128 0.000779
129 0.000775
130 0.000778
131 0.000791
132 0.000786
133 0.000765
134 0.000745
135 0.000728
136 0.000713
137 0.000695
138 0.000674
139 0.000655
140 0.000639
141 0.000630
142 0.000619
143 0.000606
144 0.000594
145 0.000601
146 0.000601
147 0.000610
148 0.000620
149 0.000629
150 0.000637
151 0.000644
152 0.000660
153 0.000666
154 0.000661
155 0.000649
156 0.000640
157 0.000638
158 0.000618
159 0.000597
160 0.000608
161 0.000596
162 0.000593
163 0.000598
164 0.000598
165 0.000604
166 0.000589
167 0.000573
168 0.000568
169 0.000566
170 0.000562
171 0.000542
172 0.000541
173 0.000542
174 0.000537
175 0.000521
176 0.000499
177 0.000496
178 0.000489
179 0.000479
180 0.000474
181 0.000483
182 0.000503
183 0.000518
184 0.000545
185 0.000587
186 0.000604
187 0.000609
188 0.000613
189 0.000621
190 0.000613
191 0.000589
192 0.000574
193 0.000559
194 0.000558
195 0.000565
196 0.000575
197 0.000582
198 0.000590
199 0.000582
200 0.000574
201 0.000563
202 0.000546
203 0.000535
204 0.000528
205 0.000527
206 0.000539
207 0.000540
208 0.000542
209 0.000537
210 0.000539
211 0.000547
212 0.000536
213 0.000529
214 0.000537
215 0.000545
216 0.000561
217 0.000568
218 0.000588
219 0.000585
220 0.000572
221 0.000562
222 0.000556
223 0.000556
224 0.000551
225 0.000538
226 0.000524
227 0.000515
228 0.000510
229 0.000497
230 0.000501
231 0.000514
232 0.000517
233 0.000519
234 0.000523
235 0.000524
236 0.000513
237 0.000502
238 0.000501
239 0.000503
240 0.000499
241 0.000479
242 0.000469
243 0.000447
244 0.000432
245 0.000417
246 0.000406
247 0.000399
248 0.000392
249 0.000396
