# i correlation
1 0.002367
2 0.002259
3 0.002155
4 0.002072
5 0.001999
6 0.001948
7 0.001901
8 0.001864
9 0.001832
10 0.001807
11 0.001790
12 0.001767
13 0.001736
14 0.001716
15 0.001690
16 0.001662
17 0.001660
18 0.001653
19 0.001633
20 0.001617
21 0.001600
22 0.001598
23 0.001599
24 0.001602
25 0.001601
26 0.001599
27 0.001593
28 0.001593
29 0.001596
30 0.001588
31 0.001577
32 0.001571
33 0.001569
34 0.001563
35 0.001562
36 0.001547
37 0.001545
38 0.001533
39 0.001535
40 0.001525
41 0.001527
42 0.001519
43 0.001503
44 0.001491
45 0.001485
46 0.001464
47 0.001432
48 0.001415
49 0.001397
50 0.001389
51 0.001377
52 0.001366
53 0.001349
54 0.001344
55 0.001339
56 0.001339
57 0.001323
58 0.001304
59 0.001288
60 0.001273
61 0.001248
62 0.001243
63 0.001250
64 0.001238
65 0.001230
66 0.001221
67 0.001221
68 0.001221
69 0.001221
70 0.001221
71 0.001219
72 0.001207
73 0.001201
74 0.001203
75 0.001197
76 0.001181
77 0.001174
78 0.001162
79 0.001150
80 0.001156
81 0.001154
82 0.001156
83 0.001154
84 0.001146
85 0.001150
86 0.001147
87 0.001161
88 0.001150
89 0.001146
90 0.001139
91 0.001134
92 0.001122
93 0.001126
94 0.001115
95 0.001120
96 0.001115
97 0.001131
98 0.001156
99 0.001187
100 0.001199
101 0.001204
102 0.001197
103 0.001179
104 0.001170
105 0.001161
106 0.001144
107 0.001130
108 0.001127
109 0.001119
110 0.001110
111 0.001096
112 0.001089
113 0.001085
114 0.001076
115 0.001066
116 0.001060
117 0.001042
118 0.001026
119 0.001017
120 0.001007
121 0.000999
122 0.000994
123 0.000984
124 0.000968
125 0.000957
126 0.000960
127 0.000957
128 0.000970
129 0.000973
130 0.000974
131 0.000975
132 0.000977
133 0.000983
134 0.000979
135 0.000971
136 0.000967
137 0.000970
138 0.000983
139 0.000989
140 0.001000
141 0.001011
142 0.001018
143 0.001021
144 0.001005
145 0.000990
146 0.000972
147 0.000953
148 0.000942
149 0.000930
150 0.000925
151 0.000925
152 0.000923
153 0.000927
154 0.000939
155 0.000954
156 0.000968
157 0.000976
158 0.000974
159 0.000942
160 0.000928
161 0.000907
162 0.000893
163 0.000878
164 0.000870
165 0.000859
166 0.000843
167 0.000833
168 0.000829
169 0.000816
170 0.000818
171 0.000810
172 0.000811
173 0.000813
174 0.000815
175 0.000806
176 0.000791
177 0.000768
178 0.000754
179 0.000745
180 0.000758
181 0.000774
182 0.000791
183 0.000802
184 0.000809
185 0.000819
186 0.000814
187 0.000802
188 0.000791
189 0.000766
190 0.000746
191 0.000732
192 0.000730
193 0.000717
194 0.000710
195 0.000718
196 0.000722
197 0.000727
198 0.000737
199 0.000747
200 0.000744
201 0.000726
202 0.000717
203 0.000705
204 0.000682
205 0.000669
206 0.000667
207 0.000666
208 0.000674
209 0.000683
210 0.000686
211 0.000692
212 0.000693
213 0.000695
214 0.000691
215 0.000689
216 0.000689
217 0.000682
218 0.000673
219 0.000665
220 0.000667
221 0.000657
222 0.000648
223 0.000640
224 0.000645
225 0.000659
226 0.000666
227 0.000685
228 0.000706
229 0.000716
230 0.000721
231 0.000727
232 0.000730
233 0.000733
234 0.000728
235 0.000723
236 0.000725
237 0.000731
238 0.000738
239 0.000740
240 0.000745
241 0.000757
242 0.000773
243 0.000782
244 0.000796
245 0.000808
246 0.000797
247 0.000790
248 0.000779
249 0.000769
