# i correlation
1 0.001764
2 0.001646
3 0.001546
4 0.001462
5 0.001390
6 0.001330
7 0.001259
8 0.001202
9 0.001165
10 0.001133
11 0.001102
12 0.001080
13 0.001064
14 0.001051
15 0.001033
16 0.001016
17 0.001010
18 0.000991
19 0.000961
20 0.000932
21 0.000937
22 0.000941
23 0.000943
24 0.000947
25 0.000924
26 0.000925
27 0.000938
28 0.000948
29 0.000947
30 0.000956
31 0.000965
32 0.000986
33 0.000996
34 0.000988
35 0.000985
36 0.000987
37 0.000985
38 0.000987
39 0.000983
40 0.000980
41 0.000973
42 0.000959
43 0.000941
44 0.000928
45 0.000929
46 0.000925
47 0.000909
48 0.000888
49 0.000868
50 0.000860
51 0.000864
52 0.000858
53 0.000852
54 0.000861
55 0.000861
56 0.000852
57 0.000848
58 0.000858
59 0.000881
60 0.000889
61 0.000887
62 0.000884
63 0.000867
64 0.000849
65 0.000832
66 0.000815
67 0.000791
68 0.000780
69 0.000788
70 0.000793
71 0.000796
72 0.000799
73 0.000797
74 0.000799
75 0.000826
76 0.000835
77 0.000836
78 0.000847
79 0.000845
80 0.000848
81 0.000844
82 0.000848
83 0.000859
84 0.000866
85 0.000873
86 0.000875
87 0.000864
88 0.000846
89 0.000837
90 0.000811
91 0.000787
92 0.000768
93 0.000756
94 0.000750
95 0.000739
96 0.000731
97 0.000735
98 0.000742
99 0.000764
100 0.000774
101 0.000782
102 0.000795
103 0.000801
104 0.000805
105 0.000813
106 0.000838
107 0.000855
108 0.000843
109 0.000838
110 0.000830
111 0.000824
112 0.000826
113 0.000825
114 0.000818
115 0.000822
116 0.000828
117 0.000831
118 0.000831
119 0.000824
120 0.000822
121 0.000829
122 0.000835
123 0.000847
124 0.000856
125 0.000858
126 0.000858
127 0.000854
128 0.000858
129 0.000854
130 0.000856
131 0.000849
132 0.000831
133 0.000804
134 0.000786
135 0.000765
136 0.000750
137 0.000743
138 0.000741
139 0.000752
140 0.000765
141 0.000771
142 0.000777
143 0.000780
144 0.000775
145 0.000776
146 0.000767
147 0.000753
148 0.000739
149 0.000719
150 0.000697
151 0.000691
152 0.000679
153 0.000677
154 0.000684
155 0.000689
156 0.000691
157 0.000704
158 0.000736
159 0.000752
160 0.000781
161 0.000808
162 0.000825
163 0.000828
164 0.000839
165 0.000834
166 0.000839
167 0.000843
168 0.000850
169 0.000862
170 0.000851
171 0.000838
172 0.000826
173 0.000818
174 0.000803
175 0.000801
176 0.000782
177 0.000763
178 0.000750
179 0.000739
180 0.000718
181 0.000722
182 0.000725
183 0.000720
184 0.000714
185 0.000717
186 0.000717
187 0.000715
188 0.000710
189 0.000707
190 0.000705
191 0.000701
192 0.000703
193 0.000701
194 0.000681
195 0.000659
196 0.000652
197 0.000638
198 0.000632
199 0.000640
200 0.000644
201 0.000665
202 0.000678
203 0.000688
204 0.000690
205 0.000699
206 0.000710
207 0.000708
208 0.000702
209 0.000699
210 0.000691
211 0.000676
212 0.000659
213 0.000652
214 0.000656
215 0.000665
216 0.000662
217 0.000659
218 0.000660
219 0.000669
220 0.000677
221 0.000682
222 0.000685
223 0.000697
224 0.000707
225 0.000711
226 0.000700
227 0.000696
228 0.000691
229 0.000688
230 0.000686
231 0.000676
232 0.000664
233 0.000656
234 0.000657
235 0.000651
236 0.000648
237 0.000647
238 0.000644
239 0.000645
240 0.000642
241 0.000647
242 0.000651
243 0.000661
244 0.000670
245 0.000679
246 0.000693
247 0.000711
248 0.000722
249 0.000713
