# i correlation
1 0.001823
2 0.001723
3 0.001637
4 0.001574
5 0.001521
6 0.001476
7 0.001424
8 0.001377
9 0.001338
10 0.001299
11 0.001268
12 0.001237
13 0.001202
14 0.001185
15 0.001169
16 0.001160
17 0.001155
18 0.001139
19 0.001124
20 0.001126
21 0.001131
22 0.001131
23 0.001128
24 0.001125
25 0.001118
26 0.001119
27 0.001110
28 0.001105
29 0.001093
30 0.001079
31 0.001073
32 0.001076
33 0.001078
34 0.001082
35 0.001087
36 0.001085
37 0.001089
38 0.001090
39 0.001099
40 0.001103
41 0.001100
42 0.001091
43 0.001084
44 0.001086
45 0.001075
46 0.001057
47 0.001051
48 0.001042
49 0.001029
50 0.001011
51 0.000998
52 0.000997
53 0.000993
54 0.000988
55 0.000977
56 0.000965
57 0.000953
58 0.000949
59 0.000954
60 0.000961
61 0.000967
62 0.000961
63 0.000964
64 0.000958
65 0.000945
66 0.000938
67 0.000938
68 0.000938
69 0.000928
70 0.000919
71 0.000912
72 0.000894
73 0.000874
74 0.000860
75 0.000856
76 0.000858
77 0.000845
78 0.000835
79 0.000823
80 0.000826
81 0.000821
82 0.000822
83 0.000824
84 0.000826
85 0.000827
86 0.000820
87 0.000824
88 0.000824
89 0.000816
90 0.000792
91 0.000772
92 0.000759
93 0.000749
94 0.000739
95 0.000727
96 0.000725
97 0.000723
98 0.000718
99 0.000719
100 0.000731
101 0.000739
102 0.000732
103 0.000725
104 0.000722
105 0.000710
106 0.000706
107 0.000705
108 0.000704
109 0.000688
110 0.000674
111 0.000665
112 0.000657
113 0.000653
114 0.000653
115 0.000655
116 0.000642
117 0.000649
118 0.000654
119 0.000662
120 0.000660
121 0.000647
122 0.000645
123 0.000654
124 0.000668
125 0.000678
126 0.000676
127 0.000670
128 0.000665
129 0.000671
130 0.000670
131 0.000654
132 0.000636
133 0.000619
134 0.000597
135 0.000589
136 0.000575
137 0.000568
138 0.000550
139 0.000547
140 0.000542
141 0.000544
142 0.000545
143 0.000538
144 0.000527
145 0.000512
146 0.000503
147 0.000494
148 0.000490
149 0.000477
150 0.000459
151 0.000450
152 0.000451
153 0.000459
154 0.000460
155 0.000459
156 0.000452
157 0.000451
158 0.000446
159 0.000449
160 0.000446
161 0.000451
162 0.000462
163 0.000481
164 0.000496
165 0.000497
166 0.000491
167 0.000498
168 0.000502
169 0.000494
170 0.000490
171 0.000495
172 0.000493
173 0.000486
174 0.000495
175 0.000490
176 0.000484
177 0.000477
178 0.000466
179 0.000469
180 0.000473
181 0.000473
182 0.000485
183 0.000493
184 0.000497
185 0.000498
186 0.000497
187 0.000486
188 0.000484
189 0.000478
190 0.000462
191 0.000450
192 0.000438
193 0.000433
194 0.000429
195 0.000434
196 0.000440
197 0.000448
198 0.000436
199 0.000432
200 0.000440
201 0.000453
202 0.000466
203 0.000471
204 0.000467
205 0.000466
206 0.000468
207 0.000481
208 0.000475
209 0.000468
210 0.000458
211 0.000464
212 0.000468
213 0.000469
214 0.000463
215 0.000458
216 0.000448
217 0.000444
218 0.000447
219 0.000441
220 0.000434
221 0.000425
222 0.000425
223 0.000429
224 0.000449
225 0.000447
226 0.000444
227 0.000438
228 0.000440
229 0.000443
230 0.000451
231 0.000460
232 0.000466
233 0.000466
234 0.000472
235 0.000477
236 0.000473
237 0.000468
238 0.000468
239 0.000469
240 0.000472
241 0.000479
242 0.000488
243 0.000491
244 0.000504
245 0.000504
246 0.000501
247 0.000498
248 0.000486
249 0.000475
