# i correlation
1 0.002019
2 0.001886
3 0.001761
4 0.001655
5 0.001577
6 0.001518
7 0.001459
8 0.001408
9 0.001369
10 0.001336
11 0.001311
12 0.001285
13 0.001268
14 0.001255
15 0.001249
16 0.001248
17 0.001239
18 0.001234
19 0.001228
20 0.001220
21 0.001221
22 0.001224
23 0.001235
24 0.001234
25 0.001247
26 0.001250
27 0.001262
28 0.001274
29 0.001264
30 0.001257
31 0.001245
32 0.001230
33 0.001205
34 0.001182
35 0.001148
36 0.001137
37 0.001127
38 0.001127
39 0.001143
40 0.001145
41 0.001145
42 0.001138
43 0.001132
44 0.001105
45 0.001071
46 0.001040
47 0.001023
48 0.001017
49 0.001018
50 0.001037
51 0.001050
52 0.001057
53 0.001064
54 0.001060
55 0.001061
56 0.001064
57 0.001061
58 0.001047
59 0.001044
60 0.001026
61 0.001007
62 0.000979
63 0.000949
64 0.000933
65 0.000928
66 0.000937
67 0.000946
68 0.000952
69 0.000967
70 0.000972
71 0.000967
72 0.000957
73 0.000932
74 0.000911
75 0.000903
76 0.000896
77 0.000892
78 0.000887
79 0.000888
80 0.000900
81 0.000910
82 0.000932
83 0.000947
84 0.000951
85 0.000944
86 0.000938
87 0.000939
88 0.000941
89 0.000941
90 0.000941
91 0.000921
92 0.000906
93 0.000887
94 0.000881
95 0.000875
96 0.000874
97 0.000871
98 0.000879
99 0.000875
100 0.000874
101 0.000866
102 0.000845
103 0.000826
104 0.000805
105 0.000781
106 0.000764
107 0.000762
108 0.000774
109 0.000772
110 0.000771
111 0.000775
112 0.000782
113 0.000791
114 0.000789
115 0.000782
116 0.000766
117 0.000770
118 0.000767
119 0.000766
120 0.000774
121 0.000775
122 0.000779
123 0.000787
124 0.000801
125 0.000805
126 0.000818
127 0.000833
128 0.000845
129 0.000848
130 0.000840
131 0.000820
132 0.000789
133 0.000762
134 0.000734
135 0.000724
136 0.000710
137 0.000696
138 0.000685
139 0.000673
140 0.000671
141 0.000672
142 0.000652
143 0.000648
144 0.000643
145 0.000640
146 0.000628
147 0.000629
148 0.000627
149 0.000622
150 0.000612
151 0.000609
152 0.000613
153 0.000621
154 0.000633
155 0.000646
156 0.000663
157 0.000664
158 0.000670
159 0.000678
160 0.000666
161 0.000632
162 0.000599
163 0.000587
164 0.000581
165 0.000580
166 0.000577
167 0.000587
168 0.000598
169 0.000614
170 0.000626
171 0.000628
172 0.000624
173 0.000615
174 0.000606
175 0.000604
176 0.000594
177 0.000591
178 0.000598
179 0.000605
180 0.000611
181 0.000614
182 0.000617
183 0.000628
184 0.000639
185 0.000635
186 0.000634
187 0.000637
188 0.000637
189 0.000637
190 0.000639
191 0.000619
192 0.000595
193 0.000559
194 0.000532
195 0.000516
196 0.000503
197 0.000510
198 0.000513
199 0.000513
200 0.000502
201 0.000479
202 0.000462
203 0.000449
204 0.000432
205 0.000419
206 0.000426
207 0.000433
208 0.000453
209 0.000475
210 0.000495
211 0.000504
212 0.000504
213 0.000508
214 0.000517
215 0.000525
216 0.000516
217 0.000514
218 0.000504
219 0.000489
220 0.000482
221 0.000484
222 0.000478
223 0.000481
224 0.000473
225 0.000473
226 0.000475
227 0.000483
228 0.000460
229 0.000444
230 0.000437
231 0.000429
232 0.000413
233 0.000400
234 0.000380
235 0.000370
236 0.000368
237 0.000368
238 0.000378
239 0.000401
240 0.000418
241 0.000435
242 0.000460
243 0.000480
244 0.000494
245 0.000498
246 0.000488
247 0.000470
248 0.000464
249 0.000467
