# i correlation
1 0.001634
2 0.001510
3 0.001409
4 0.001324
5 0.001262
6 0.001200
7 0.001149
8 0.001117
9 0.001084
10 0.001056
11 0.001031
12 0.001008
13 0.000989
14 0.000966
15 0.000945
16 0.000931
17 0.000928
18 0.000921
19 0.000908
20 0.000891
21 0.000861
22 0.000827
23 0.000804
24 0.000786
25 0.000769
26 0.000751
27 0.000744
28 0.000747
29 0.000758
30 0.000773
31 0.000783
32 0.000800
33 0.000806
34 0.000811
35 0.000828
36 0.000828
37 0.000825
38 0.000822
39 0.000807
40 0.000806
41 0.000808
42 0.000809
43 0.000817
44 0.000824
45 0.000808
46 0.000792
47 0.000784
48 0.000767
49 0.000749
50 0.000717
51 0.000690
52 0.000671
53 0.000649
54 0.000621
55 0.000599
56 0.000581
57 0.000575
58 0.000560
59 0.000547
60 0.000544
61 0.000551
62 0.000562
63 0.000581
64 0.000588
65 0.000597
66 0.000609
67 0.000622
68 0.000638
69 0.000646
70 0.000647
71 0.000642
72 0.000641
73 0.000638
74 0.000640
75 0.000632
76 0.000615
77 0.000597
78 0.000579
79 0.000572
80 0.000564
81 0.000560
82 0.000559
83 0.000563
84 0.000584
85 0.000608
86 0.000623
87 0.000617
88 0.000602
89 0.000578
90 0.000549
91 0.000520
92 0.000497
93 0.000496
94 0.000498
95 0.000486
96 0.000455
97 0.000421
98 0.000398
99 0.000376
100 0.000368
101 0.000373
102 0.000381
103 0.000392
104 0.000417
105 0.000434
106 0.000463
107 0.000470
108 0.000468
109 0.000467
110 0.000471
111 0.000465
112 0.000455
113 0.000442
114 0.000439
115 0.000448
116 0.000449
117 0.000451
118 0.000447
119 0.000455
120 0.000457
121 0.000458
122 0.000481
123 0.000488
124 0.000481
125 0.000475
126 0.000477
127 0.000472
128 0.000463
129 0.000463
130 0.000460
131 0.000452
132 0.000449
133 0.000446
134 0.000440
135 0.000451
136 0.000467
137 0.000464
138 0.000456
139 0.000446
140 0.000445
141 0.000447
142 0.000447
143 0.000446
144 0.000446
145 0.000454
146 0.000457
147 0.000462
148 0.000462
149 0.000461
150 0.000461
151 0.000467
152 0.000461
153 0.000475
154 0.000497
155 0.000503
156 0.000497
157 0.000493
158 0.000495
159 0.000502
160 0.000502
161 0.000484
162 0.000456
163 0.000442
164 0.000431
165 0.000421
166 0.000427
167 0.000431
168 0.000428
169 0.000429
170 0.000423
171 0.000418
172 0.000414
173 0.000415
174 0.000420
175 0.000419
176 0.000413
177 0.000406
178 0.000403
179 0.000406
180 0.000406
181 0.000390
182 0.000358
183 0.000335
184 0.000314
185 0.000287
186 0.000273
187 0.000264
188 0.000271
189 0.000293
190 0.000309
191 0.000327
192 0.000336
193 0.000343
194 0.000359
195 0.000361
196 0.000359
197 0.000358
198 0.000362
199 0.000364
200 0.000364
201 0.000367
202 0.000358
203 0.000367
204 0.000373
205 0.000366
206 0.000362
207 0.000350
208 0.000356
209 0.000355
210 0.000361
211 0.000365
212 0.000362
213 0.000362
214 0.000356
215 0.000348
216 0.000349
217 0.000342
218 0.000334
219 0.000318
220 0.000305
221 0.000300
222 0.000293
223 0.000293
224 0.000293
225 0.000276
226 0.000273
227 0.000271
228 0.000268
229 0.000267
230 0.000264
231 0.000251
232 0.000249
233 0.000249
234 0.000246
235 0.000252
236 0.000256
237 0.000266
238 0.000272
239 0.000282
240 0.000292
241 0.000307
242 0.000319
243 0.000330
244 0.000339
245 0.000345
246 0.000346
247 0.000360
248 0.000367
249 0.000372
