# i correlation
1 0.001915
2 0.001803
3 0.001720
4 0.001642
5 0.001584
6 0.001534
7 0.001489
8 0.001459
9 0.001439
10 0.001419
11 0.001409
12 0.001403
13 0.001394
14 0.001380
15 0.001368
16 0.001349
17 0.001304
18 0.001274
19 0.001244
20 0.001230
21 0.001225
22 0.001207
23 0.001186
24 0.001175
25 0.001171
26 0.001166
27 0.001162
28 0.001153
29 0.001139
30 0.001134
31 0.001127
32 0.001120
33 0.001114
34 0.001108
35 0.001110
36 0.001102
37 0.001091
38 0.001077
39 0.001066
40 0.001063
41 0.001059
42 0.001040
43 0.001032
44 0.001016
45 0.001008
46 0.000999
47 0.000991
48 0.000989
49 0.000980
50 0.000983
51 0.000982
52 0.000971
53 0.000956
54 0.000941
55 0.000935
56 0.000938
57 0.000937
58 0.000938
59 0.000940
60 0.000933
61 0.000936
62 0.000938
63 0.000937
64 0.000935
65 0.000933
66 0.000940
67 0.000936
68 0.000931
69 0.000917
70 0.000905
71 0.000903
72 0.000910
73 0.000914
74 0.000918
75 0.000923
76 0.000916
77 0.000911
78 0.000926
79 0.000933
80 0.000933
81 0.000941
82 0.000943
83 0.000937
84 0.000937
85 0.000933
86 0.000920
87 0.000919
88 0.000916
89 0.000921
90 0.000931
91 0.000933
92 0.000935
93 0.000946
94 0.000960
95 0.000960
96 0.000947
97 0.000929
98 0.000910
99 0.000908
100 0.000924
101 0.000928
102 0.000932
103 0.000929
104 0.000941
105 0.000944
106 0.000945
107 0.000949
108 0.000958
109 0.000958
110 0.000947
111 0.000933
112 0.000916
113 0.000907
114 0.000905
115 0.000914
116 0.000919
117 0.000913
118 0.000898
119 0.000897
120 0.000907
121 0.000911
122 0.000905
123 0.000893
124 0.000885
125 0.000882
126 0.000883
127 0.000885
128 0.000883
129 0.000883
130 0.000878
131 0.000872
132 0.000864
133 0.000854
134 0.000840
135 0.000852
136 0.000864
137 0.000863
138 0.000854
139 0.000848
140 0.000848
141 0.000848
142 0.000836
143 0.000824
144 0.000810
145 0.000801
146 0.000781
147 0.000770
148 0.000754
149 0.000729
150 0.000721
151 0.000719
152 0.000715
153 0.000716
154 0.000710
155 0.000711
156 0.000714
157 0.000723
158 0.000709
159 0.000694
160 0.000694
161 0.000692
162 0.000694
163 0.000693
164 0.000688
165 0.000684
166 0.000674
167 0.000661
168 0.000651
169 0.000640
170 0.000633
171 0.000631
172 0.000636
173 0.000629
174 0.000622
175 0.000610
176 0.000599
177 0.000587
178 0.000576
179 0.000572
180 0.000566
181 0.000553
182 0.000555
183 0.000543
184 0.000517
185 0.000509
186 0.000502
187 0.000507
188 0.000515
189 0.000513
190 0.000525
191 0.000535
192 0.000538
193 0.000551
194 0.000563
195 0.000571
196 0.000580
197 0.000577
198 0.000580
199 0.000590
200 0.000596
201 0.000603
202 0.000609
203 0.000618
204 0.000618
205 0.000613
206 0.000594
207 0.000577
208 0.000563
209 0.000564
210 0.000566
211 0.000568
212 0.000567
213 0.000562
214 0.000567
215 0.000571
216 0.000585
217 0.000592
218 0.000576
219 0.000568
220 0.000564
221 0.000568
222 0.000575
223 0.000584
224 0.000577
225 0.000571
226 0.000570
227 0.000562
228 0.000563
229 0.000565
230 0.000575
231 0.000573
232 0.000568
233 0.000557
234 0.000538
235 0.000536
236 0.000551
237 0.000564
238 0.000576
239 0.000582
240 0.000589
241 0.000592
242 0.000589
243 0.000564
244 0.000548
245 0.000534
246 0.000529
247 0.000516
248 0.000492
249 0.000486
