# i correlation
1 0.002016
2 0.001890
3 0.001786
4 0.001710
5 0.001652
6 0.001594
7 0.001540
8 0.001483
9 0.001437
10 0.001391
11 0.001355
12 0.001329
13 0.001315
14 0.001296
15 0.001287
16 0.001273
17 0.001260
18 0.001249
19 0.001241
20 0.001241
21 0.001240
22 0.001228
23 0.001212
24 0.001198
25 0.001194
26 0.001204
27 0.001206
28 0.001202
29 0.001207
30 0.001201
31 0.001200
32 0.001188
33 0.001177
34 0.001177
35 0.001184
36 0.001194
37 0.001208
38 0.001210
39 0.001208
40 0.001202
41 0.001196
42 0.001201
43 0.001202
44 0.001205
45 0.001197
46 0.001183
47 0.001165
48 0.001140
49 0.001121
50 0.001108
51 0.001103
52 0.001107
53 0.001092
54 0.001076
55 0.001050
56 0.001031
57 0.001040
58 0.001049
59 0.001048
60 0.001047
61 0.001049
62 0.001039
63 0.001023
64 0.001008
65 0.001002
66 0.000996
67 0.000995
68 0.000987
69 0.000985
70 0.000986
71 0.000991
72 0.000994
73 0.001009
74 0.001014
75 0.000999
76 0.000998
77 0.000998
78 0.001000
79 0.001004
80 0.001009
81 0.001022
82 0.001021
83 0.001024
84 0.001017
85 0.001015
86 0.001012
87 0.001003
88 0.001009
89 0.001002
90 0.001005
91 0.001002
92 0.001004
93 0.001003
94 0.001003
95 0.000999
96 0.001006
97 0.001010
98 0.001006
99 0.001010
100 0.001015
101 0.001008
102 0.001003
103 0.001004
104 0.000996
105 0.000978
106 0.000957
107 0.000949
108 0.000929
109 0.000903
110 0.000879
111 0.000860
112 0.000849
113 0.000843
114 0.000844
115 0.000836
116 0.000830
117 0.000817
118 0.000808
119 0.000810
120 0.000814
121 0.000811
122 0.000807
123 0.000810
124 0.000804
125 0.000810
126 0.000822
127 0.000828
128 0.000844
129 0.000839
130 0.000837
131 0.000850
132 0.000852
133 0.000870
134 0.000873
135 0.000865
136 0.000844
137 0.000830
138 0.000825
139 0.000820
140 0.000813
141 0.000817
142 0.000812
143 0.000813
144 0.000807
145 0.000793
146 0.000784
147 0.000772
148 0.000768
149 0.000758
150 0.000745
151 0.000737
152 0.000727
153 0.000715
154 0.000717
155 0.000719
156 0.000709
157 0.000704
158 0.000697
159 0.000694
160 0.000687
161 0.000681
162 0.000677
163 0.000670
164 0.000687
165 0.000700
166 0.000706
167 0.000708
168 0.000709
169 0.000707
170 0.000705
171 0.000709
172 0.000702
173 0.000706
174 0.000722
175 0.000725
176 0.000730
177 0.000737
178 0.000737
179 0.000722
180 0.000711
181 0.000696
182 0.000681
183 0.000668
184 0.000656
185 0.000653
186 0.000642
187 0.000630
188 0.000625
189 0.000616
190 0.000611
191 0.000612
192 0.000621
193 0.000640
194 0.000662
195 0.000675
196 0.000692
197 0.000697
198 0.000689
199 0.000686
200 0.000675
201 0.000660
202 0.000648
203 0.000633
204 0.000623
205 0.000612
206 0.000605
207 0.000588
208 0.000566
209 0.000540
210 0.000519
211 0.000513
212 0.000499
213 0.000485
214 0.000487
215 0.000501
216 0.000526
217 0.000537
218 0.000557
219 0.000573
220 0.000590
221 0.000598
222 0.000610
223 0.000617
224 0.000612
225 0.000611
226 0.000612
227 0.000617
228 0.000633
229 0.000627
230 0.000611
231 0.000608
232 0.000607
233 0.000604
234 0.000597
235 0.000593
236 0.000594
237 0.000596
238 0.000584
239 0.000562
240 0.000537
241 0.000516
242 0.000509
243 0.000499
244 0.000483
245 0.000474
246 0.000461
247 0.000452
248 0.000451
249 0.000456
