# i correlation
1 0.002329
2 0.002216
3 0.002114
4 0.002013
5 0.001918
6 0.001844
7 0.001772
8 0.001706
9 0.001646
10 0.001604
11 0.001563
12 0.001551
13 0.001526
14 0.001514
15 0.001500
16 0.001486
17 0.001457
18 0.001436
19 0.001427
20 0.001411
21 0.001393
22 0.001386
23 0.001366
24 0.001358
25 0.001352
26 0.001358
27 0.001363
28 0.001371
29 0.001370
30 0.001364
31 0.001356
32 0.001355
33 0.001342
34 0.001341
35 0.001336
36 0.001329
37 0.001314
38 0.001310
39 0.001298
40 0.001293
41 0.001286
42 0.001271
43 0.001242
44 0.001224
45 0.001201
46 0.001179
47 0.001161
48 0.001174
49 0.001173
50 0.001176
51 0.001183
52 0.001197
53 0.001203
54 0.001210
55 0.001212
56 0.001225
57 0.001240
58 0.001249
59 0.001257
60 0.001256
61 0.001248
62 0.001235
63 0.001226
64 0.001219
65 0.001222
66 0.001206
67 0.001187
68 0.001176
69 0.001165
70 0.001159
71 0.001148
72 0.001150
73 0.001139
74 0.001126
75 0.001113
76 0.001111
77 0.001106
78 0.001102
79 0.001112
80 0.001128
81 0.001149
82 0.001163
83 0.001180
84 0.001201
85 0.001205
86 0.001207
87 0.001201
88 0.001188
89 0.001168
90 0.001155
91 0.001153
92 0.001153
93 0.001151
94 0.001144
95 0.001133
96 0.001123
97 0.001114
98 0.001113
99 0.001111
100 0.001109
101 0.001094
102 0.001079
103 0.001066
104 0.001051
105 0.001028
106 0.001001
107 0.000990
108 0.000987
109 0.000980
110 0.000978
111 0.000972
112 0.000956
113 0.000953
114 0.000954
115 0.000969
116 0.000989
117 0.001002
118 0.001026
119 0.001047
120 0.001065
121 0.001079
122 0.001103
123 0.001117
124 0.001127
125 0.001126
126 0.001116
127 0.001101
128 0.001093
129 0.001083
130 0.001079
131 0.001072
132 0.001072
133 0.001070
134 0.001063
135 0.001067
136 0.001060
137 0.001052
138 0.001060
139 0.001063
140 0.001057
141 0.001055
142 0.001046
143 0.001036
144 0.001037
145 0.001042
146 0.001051
147 0.001059
148 0.001073
149 0.001080
150 0.001089
151 0.001100
152 0.001105
153 0.001113
154 0.001110
155 0.001100
156 0.001096
157 0.001096
158 0.001093
159 0.001093
160 0.001097
161 0.001095
162 0.001088
163 0.001080
164 0.001069
165 0.001047
166 0.001027
167 0.000993
168 0.000961
169 0.000926
170 0.000898
171 0.000876
172 0.000856
173 0.000836
174 0.000829
175 0.000841
176 0.000851
177 0.000849
178 0.000857
179 0.000872
180 0.000895
181 0.000909
182 0.000911
183 0.000923
184 0.000940
185 0.000945
186 0.000941
187 0.000950
188 0.000961
189 0.000961
190 0.000955
191 0.000954
192 0.000949
193 0.000924
194 0.000922
195 0.000919
196 0.000923
197 0.000913
198 0.000907
199 0.000906
200 0.000903
201 0.000899
202 0.000887
203 0.000882
204 0.000885
205 0.000871
206 0.000867
207 0.000849
208 0.000817
209 0.000792
210 0.000774
211 0.000770
212 0.000758
213 0.000755
214 0.000752
215 0.000767
216 0.000789
217 0.000805
218 0.000819
219 0.000826
220 0.000835
221 0.000839
222 0.000838
223 0.000849
224 0.000850
225 0.000853
226 0.000849
227 0.000833
228 0.000815
229 0.000800
230 0.000793
231 0.000788
232 0.000784
233 0.000787
234 0.000782
235 0.000771
236 0.000775
237 0.000777
238 0.000776
239 0.000774
240 0.000777
241 0.000777
242 0.000770
243 0.000774
244 0.000782
245 0.000795
246 0.000811
247 0.000813
248 0.000816
249 0.000807
