# i correlation
1 0.002312
2 0.002197
3 0.002102
4 0.002013
5 0.001941
6 0.001875
7 0.001806
8 0.001748
9 0.001700
10 0.001655
11 0.001618
12 0.001593
13 0.001580
14 0.001553
15 0.001518
16 0.001487
17 0.001447
18 0.001407
19 0.001368
20 0.001332
21 0.001300
22 0.001291
23 0.001290
24 0.001291
25 0.001279
26 0.001270
27 0.001267
28 0.001272
29 0.001276
30 0.001281
31 0.001284
32 0.001265
33 0.001259
34 0.001255
35 0.001261
36 0.001268
37 0.001269
38 0.001275
39 0.001275
40 0.001278
41 0.001280
42 0.001273
43 0.001284
44 0.001292
45 0.001299
46 0.001315
47 0.001320
48 0.001318
49 0.001326
50 0.001335
51 0.001343
52 0.001346
53 0.001338
54 0.001333
55 0.001321
56 0.001292
57 0.001269
58 0.001248
59 0.001214
60 0.001194
61 0.001179
62 0.001158
63 0.001158
64 0.001163
65 0.001162
66 0.001149
67 0.001133
68 0.001110
69 0.001098
70 0.001092
71 0.001090
72 0.001086
73 0.001089
74 0.001091
75 0.001097
76 0.001093
77 0.001088
78 0.001097
79 0.001096
80 0.001094
81 0.001088
82 0.001086
83 0.001092
84 0.001092
85 0.001101
86 0.001114
87 0.001129
88 0.001146
89 0.001159
90 0.001169
91 0.001181
92 0.001193
93 0.001194
94 0.001200
95 0.001204
96 0.001203
97 0.001190
98 0.001182
99 0.001175
100 0.001159
101 0.001166
102 0.001173
103 0.001175
104 0.001186
105 0.001192
106 0.001193
107 0.001186
108 0.001173
109 0.001168
110 0.001164
111 0.001163
112 0.001147
113 0.001131
114 0.001109
115 0.001079
116 0.001051
117 0.001028
118 0.001014
119 0.001012
120 0.001001
121 0.000999
122 0.000996
123 0.000988
124 0.000977
125 0.000968
126 0.000957
127 0.000948
128 0.000941
129 0.000926
130 0.000912
131 0.000899
132 0.000894
133 0.000882
134 0.000870
135 0.000876
136 0.000886
137 0.000900
138 0.000910
139 0.000929
140 0.000953
141 0.000966
142 0.000982
143 0.000985
144 0.000981
145 0.000979
146 0.000971
147 0.000963
148 0.000969
149 0.000972
150 0.000980
151 0.000979
152 0.000988
153 0.000993
154 0.000998
155 0.000997
156 0.000996
157 0.000989
158 0.000977
159 0.000978
160 0.000957
161 0.000938
162 0.000926
163 0.000921
164 0.000913
165 0.000897
166 0.000887
167 0.000875
168 0.000862
169 0.000848
170 0.000834
171 0.000812
172 0.000781
173 0.000754
174 0.000739
175 0.000725
176 0.000711
177 0.000706
178 0.000687
179 0.000677
180 0.000676
181 0.000672
182 0.000666
183 0.000668
184 0.000668
185 0.000671
186 0.000689
187 0.000706
188 0.000717
189 0.000725
190 0.000740
191 0.000752
192 0.000765
193 0.000789
194 0.000817
195 0.000840
196 0.000857
197 0.000886
198 0.000906
199 0.000923
200 0.000936
201 0.000934
202 0.000930
203 0.000924
204 0.000913
205 0.000931
206 0.000935
207 0.000936
208 0.000933
209 0.000931
210 0.000934
211 0.000937
212 0.000930
213 0.000929
214 0.000930
215 0.000928
216 0.000913
217 0.000900
218 0.000888
219 0.000853
220 0.000832
221 0.000812
222 0.000787
223 0.000766
224 0.000752
225 0.000731
226 0.000719
227 0.000705
228 0.000682
229 0.000669
230 0.000663
231 0.000667
232 0.000676
233 0.000684
234 0.000695
235 0.000703
236 0.000706
237 0.000706
238 0.000708
239 0.000700
240 0.000693
241 0.000692
242 0.000704
243 0.000709
244 0.000711
245 0.000708
246 0.000714
247 0.000704
248 0.000706
249 0.000704
