# i correlation
1 0.001692
2 0.001583
3 0.001485
4 0.001404
5 0.001324
6 0.001268
7 0.001225
8 0.001189
9 0.001161
10 0.001154
11 0.001133
12 0.001112
13 0.001082
14 0.001055
15 0.001024
16 0.001003
17 0.000985
18 0.000968
19 0.000960
20 0.000964
21 0.000961
22 0.000971
23 0.000973
24 0.000976
25 0.000974
26 0.000967
27 0.000955
28 0.000938
29 0.000919
30 0.000893
31 0.000880
32 0.000877
33 0.000884
34 0.000903
35 0.000921
36 0.000932
37 0.000940
38 0.000943
39 0.000932
40 0.000913
41 0.000884
42 0.000869
43 0.000852
44 0.000837
45 0.000829
46 0.000819
47 0.000818
48 0.000822
49 0.000823
50 0.000818
51 0.000819
52 0.000826
53 0.000826
54 0.000816
55 0.000820
56 0.000822
57 0.000821
58 0.000814
59 0.000812
60 0.000805
61 0.000803
62 0.000800
63 0.000791
64 0.000773
65 0.000760
66 0.000745
67 0.000726
68 0.000711
69 0.000696
70 0.000684
71 0.000683
72 0.000685
73 0.000703
74 0.000722
75 0.000730
76 0.000737
77 0.000758
78 0.000765
79 0.000763
80 0.000767
81 0.000774
82 0.000775
83 0.000768
84 0.000767
85 0.000763
86 0.000754
87 0.000754
88 0.000759
89 0.000752
90 0.000748
91 0.000757
92 0.000760
93 0.000757
94 0.000753
95 0.000744
96 0.000729
97 0.000718
98 0.000706
99 0.000701
100 0.000699
101 0.000701
102 0.000702
103 0.000706
104 0.000721
105 0.000730
106 0.000747
107 0.000740
108 0.000742
109 0.000738
110 0.000724
111 0.000707
112 0.000692
113 0.000683
114 0.000674
115 0.000677
116 0.000677
117 0.000675
118 0.000676
119 0.000678
120 0.000674
121 0.000664
122 0.000649
123 0.000634
124 0.000628
125 0.000627
126 0.000647
127 0.000658
128 0.000684
129 0.000703
130 0.000722
131 0.000727
132 0.000726
133 0.000716
134 0.000708
135 0.000700
136 0.000693
137 0.000677
138 0.000669
139 0.000659
140 0.000663
141 0.000662
142 0.000656
143 0.000652
144 0.000648
145 0.000639
146 0.000631
147 0.000613
148 0.000589
149 0.000559
150 0.000546
151 0.000546
152 0.000547
153 0.000548
154 0.000548
155 0.000554
156 0.000562
157 0.000568
158 0.000570
159 0.000564
160 0.000564
161 0.000561
162 0.000555
163 0.000554
164 0.000558
165 0.000578
166 0.000594
167 0.000603
168 0.000613
169 0.000621
170 0.000614
171 0.000600
172 0.000588
173 0.000561
174 0.000545
175 0.000522
176 0.000508
177 0.000493
178 0.000486
179 0.000476
180 0.000476
181 0.000477
182 0.000477
183 0.000471
184 0.000468
185 0.000458
186 0.000449
187 0.000436
188 0.000436
189 0.000436
190 0.000447
191 0.000469
192 0.000490
193 0.000506
194 0.000524
195 0.000525
196 0.000523
197 0.000515
198 0.000508
199 0.000501
200 0.000503
201 0.000502
202 0.000494
203 0.000501
204 0.000508
205 0.000502
206 0.000494
207 0.000486
208 0.000482
209 0.000471
210 0.000467
211 0.000462
212 0.000469
213 0.000467
214 0.000472
215 0.000480
216 0.000483
217 0.000482
218 0.000486
219 0.000492
220 0.000504
221 0.000511
222 0.000512
223 0.000509
224 0.000501
225 0.000487
226 0.000483
227 0.000487
228 0.000492
229 0.000498
230 0.000508
231 0.000516
232 0.000517
233 0.000519
234 0.000529
235 0.000532
236 0.000533
237 0.000533
238 0.000540
239 0.000552
240 0.000553
241 0.000546
242 0.000545
243 0.000543
244 0.000540
245 0.000534
246 0.000532
247 0.000527
248 0.000526
249 0.000534
