# i correlation
1 0.002022
2 0.001904
3 0.001817
4 0.001754
5 0.001699
6 0.001658
7 0.001613
8 0.001570
9 0.001534
10 0.001504
11 0.001483
12 0.001450
13 0.001436
14 0.001419
15 0.001392
16 0.001371
17 0.001364
18 0.001348
19 0.001335
20 0.001324
21 0.001326
22 0.001326
23 0.001318
24 0.001326
25 0.001333
26 0.001333
27 0.001335
28 0.001329
29 0.001315
30 0.001297
31 0.001285
32 0.001266
33 0.001241
34 0.001213
35 0.001195
36 0.001163
37 0.001147
38 0.001138
39 0.001130
40 0.001131
41 0.001130
42 0.001133
43 0.001141
44 0.001160
45 0.001171
46 0.001170
47 0.001163
48 0.001161
49 0.001158
50 0.001155
51 0.001154
52 0.001154
53 0.001139
54 0.001125
55 0.001112
56 0.001112
57 0.001119
58 0.001123
59 0.001128
60 0.001123
61 0.001109
62 0.001105
63 0.001093
64 0.001076
65 0.001050
66 0.001034
67 0.001016
68 0.001004
69 0.000996
70 0.001005
71 0.001008
72 0.001010
73 0.001012
74 0.001009
75 0.000997
76 0.000977
77 0.000956
78 0.000936
79 0.000922
80 0.000911
81 0.000899
82 0.000873
83 0.000853
84 0.000843
85 0.000829
86 0.000816
87 0.000822
88 0.000833
89 0.000832
90 0.000807
91 0.000788
92 0.000763
93 0.000752
94 0.000745
95 0.000742
96 0.000743
97 0.000755
98 0.000765
99 0.000771
100 0.000770
101 0.000770
102 0.000764
103 0.000773
104 0.000791
105 0.000788
106 0.000786
107 0.000782
108 0.000781
109 0.000777
110 0.000781
111 0.000782
112 0.000780
113 0.000779
114 0.000791
115 0.000804
116 0.000802
117 0.000791
118 0.000796
119 0.000803
120 0.000806
121 0.000800
122 0.000793
123 0.000792
124 0.000796
125 0.000802
126 0.000807
127 0.000794
128 0.000784
129 0.000776
130 0.000775
131 0.000773
132 0.000786
133 0.000794
134 0.000781
135 0.000766
136 0.000759
137 0.000749
138 0.000739
139 0.000731
140 0.000725
141 0.000723
142 0.000725
143 0.000737
144 0.000735
145 0.000736
146 0.000725
147 0.000715
148 0.000703
149 0.000707
150 0.000708
151 0.000718
152 0.000717
153 0.000704
154 0.000695
155 0.000685
156 0.000669
157 0.000658
158 0.000648
159 0.000640
160 0.000631
161 0.000631
162 0.000632
163 0.000642
164 0.000653
165 0.000667
166 0.000664
167 0.000654
168 0.000657
169 0.000668
170 0.000685
171 0.000695
172 0.000698
173 0.000703
174 0.000702
175 0.000707
176 0.000719
177 0.000742
178 0.000758
179 0.000758
180 0.000744
181 0.000721
182 0.000710
183 0.000695
184 0.000688
185 0.000684
186 0.000667
187 0.000653
188 0.000641
189 0.000641
190 0.000631
191 0.000632
192 0.000641
193 0.000649
194 0.000651
195 0.000653
196 0.000655
197 0.000653
198 0.000646
199 0.000640
200 0.000636
201 0.000632
202 0.000640
203 0.000651
204 0.000654
205 0.000644
206 0.000625
207 0.000615
208 0.000612
209 0.000599
210 0.000581
211 0.000575
212 0.000576
213 0.000578
214 0.000573
215 0.000587
216 0.000597
217 0.000612
218 0.000611
219 0.000614
220 0.000612
221 0.000626
222 0.000650
223 0.000672
224 0.000689
225 0.000698
226 0.000699
227 0.000697
228 0.000689
229 0.000700
230 0.000705
231 0.000692
232 0.000677
233 0.000669
234 0.000670
235 0.000664
236 0.000663
237 0.000663
238 0.000669
239 0.000680
240 0.000693
241 0.000697
242 0.000694
243 0.000692
244 0.000696
245 0.000691
246 0.000689
247 0.000690
248 0.000689
249 0.000696
