# i correlation
1 0.002060
2 0.001948
3 0.001857
4 0.001783
5 0.001724
6 0.001673
7 0.001636
8 0.001599
9 0.001563
10 0.001531
11 0.001499
12 0.001484
13 0.001461
14 0.001445
15 0.001438
16 0.001433
17 0.001422
18 0.001407
19 0.001392
20 0.001368
21 0.001339
22 0.001322
23 0.001302
24 0.001273
25 0.001249
26 0.001226
27 0.001198
28 0.001180
29 0.001171
30 0.001174
31 0.001167
32 0.001180
33 0.001192
34 0.001197
35 0.001202
36 0.001189
37 0.001184
38 0.001185
39 0.001176
40 0.001160
41 0.001147
42 0.001144
43 0.001130
44 0.001121
45 0.001118
46 0.001131
47 0.001140
48 0.001158
49 0.001168
50 0.001184
51 0.001197
52 0.001204
53 0.001210
54 0.001222
55 0.001220
56 0.001205
57 0.001193
58 0.001184
59 0.001165
60 0.001151
61 0.001135
62 0.001115
63 0.001101
64 0.001099
65 0.001093
66 0.001085
67 0.001070
68 0.001050
69 0.001036
70 0.001035
71 0.001028
72 0.001021
73 0.001015
74 0.001015
75 0.001004
76 0.000989
77 0.000978
78 0.000963
79 0.000945
80 0.000927
81 0.000911
82 0.000905
83 0.000919
84 0.000918
85 0.000917
86 0.000924
87 0.000924
88 0.000917
89 0.000911
90 0.000916
91 0.000902
92 0.000896
93 0.000899
94 0.000899
95 0.000873
96 0.000861
97 0.000842
98 0.000822
99 0.000813
100 0.000815
101 0.000812
102 0.000813
103 0.000815
104 0.000809
105 0.000806
106 0.000800
107 0.000790
108 0.000801
109 0.000812
110 0.000822
111 0.000834
112 0.000849
113 0.000860
114 0.000858
115 0.000855
116 0.000864
117 0.000867
118 0.000871
119 0.000866
120 0.000857
121 0.000853
122 0.000852
123 0.000855
124 0.000856
125 0.000858
126 0.000867
127 0.000859
128 0.000862
129 0.000857
130 0.000849
131 0.000860
132 0.000867
133 0.000887
134 0.000911
135 0.000920
136 0.000924
137 0.000920
138 0.000909
139 0.000894
140 0.000907
141 0.000912
142 0.000908
143 0.000901
144 0.000907
145 0.000906
146 0.000899
147 0.000894
148 0.000887
149 0.000874
150 0.000858
151 0.000849
152 0.000834
153 0.000812
154 0.000790
155 0.000773
156 0.000754
157 0.000747
158 0.000736
159 0.000732
160 0.000736
161 0.000730
162 0.000730
163 0.000732
164 0.000740
165 0.000742
166 0.000753
167 0.000764
168 0.000773
169 0.000780
170 0.000784
171 0.000791
172 0.000794
173 0.000803
174 0.000814
175 0.000816
176 0.000817
177 0.000823
178 0.000826
179 0.000835
180 0.000833
181 0.000823
182 0.000812
183 0.000805
184 0.000792
185 0.000779
186 0.000787
187 0.000794
188 0.000800
189 0.000805
190 0.000810
191 0.000807
192 0.000813
193 0.000818
194 0.000823
195 0.000831
196 0.000829
197 0.000832
198 0.000846
199 0.000854
200 0.000846
201 0.000849
202 0.000853
203 0.000853
204 0.000851
205 0.000850
206 0.000852
207 0.000840
208 0.000832
209 0.000829
210 0.000826
211 0.000833
212 0.000836
213 0.000829
214 0.000824
215 0.000807
216 0.000816
217 0.000812
218 0.000805
219 0.000792
220 0.000782
221 0.000788
222 0.000782
223 0.000776
224 0.000764
225 0.000762
226 0.000752
227 0.000751
228 0.000748
229 0.000745
230 0.000732
231 0.000732
232 0.000727
233 0.000721
234 0.000717
235 0.000708
236 0.000700
237 0.000703
238 0.000700
239 0.000692
240 0.000677
241 0.000667
242 0.000649
243 0.000640
244 0.000645
245 0.000651
246 0.000664
247 0.000661
248 0.000639
249 0.000634
