# i correlation
1 0.001725
2 0.001621
3 0.001539
4 0.001477
5 0.001418
6 0.001364
7 0.001323
8 0.001289
9 0.001260
10 0.001227
11 0.001195
12 0.001182
13 0.001164
14 0.001137
15 0.001106
16 0.001077
17 0.001050
18 0.001019
19 0.000991
20 0.000968
21 0.000951
22 0.000943
23 0.000942
24 0.000946
25 0.000938
26 0.000933
27 0.000926
28 0.000906
29 0.000890
30 0.000878
31 0.000854
32 0.000835
33 0.000820
34 0.000818
35 0.000803
36 0.000788
37 0.000768
38 0.000752
39 0.000752
40 0.000741
41 0.000737
42 0.000728
43 0.000723
44 0.000699
45 0.000673
46 0.000661
47 0.000636
48 0.000626
49 0.000616
50 0.000616
51 0.000620
52 0.000630
53 0.000635
54 0.000637
55 0.000647
56 0.000653
57 0.000656
58 0.000675
59 0.000689
60 0.000697
61 0.000706
62 0.000718
63 0.000719
64 0.000720
65 0.000724
66 0.000724
67 0.000724
68 0.000723
69 0.000722
70 0.000702
71 0.000682
72 0.000667
73 0.000659
74 0.000658
75 0.000662
76 0.000663
77 0.000670
78 0.000672
79 0.000663
80 0.000653
81 0.000635
82 0.000622
83 0.000610
84 0.000600
85 0.000603
86 0.000603
87 0.000589
88 0.000580
89 0.000594
90 0.000600
91 0.000596
92 0.000597
93 0.000602
94 0.000612
95 0.000617
96 0.000627
97 0.000646
98 0.000644
99 0.000648
100 0.000643
101 0.000651
102 0.000660
103 0.000673
104 0.000682
105 0.000692
106 0.000723
107 0.000733
108 0.000732
109 0.000717
110 0.000711
111 0.000708
112 0.000707
113 0.000695
114 0.000693
115 0.000691
116 0.000694
117 0.000686
118 0.000684
119 0.000693
120 0.000700
121 0.000698
122 0.000682
123 0.000675
124 0.000665
125 0.000640
126 0.000626
127 0.000613
128 0.000611
129 0.000612
130 0.000619
131 0.000621
132 0.000633
133 0.000640
134 0.000640
135 0.000641
136 0.000647
137 0.000642
138 0.000643
139 0.000636
140 0.000623
141 0.000610
142 0.000601
143 0.000579
144 0.000557
145 0.000546
146 0.000542
147 0.000539
148 0.000547
149 0.000547
150 0.000545
151 0.000533
152 0.000527
153 0.000516
154 0.000515
155 0.000508
156 0.000501
157 0.000493
158 0.000502
159 0.000509
160 0.000520
161 0.000523
162 0.000535
163 0.000551
164 0.000560
165 0.000560
166 0.000569
167 0.000565
168 0.000559
169 0.000550
170 0.000541
171 0.000552
172 0.000565
173 0.000576
174 0.000577
175 0.000587
176 0.000595
177 0.000588
178 0.000577
179 0.000560
180 0.000554
181 0.000550
182 0.000548
183 0.000537
184 0.000538
185 0.000537
186 0.000529
187 0.000511
188 0.000502
189 0.000501
190 0.000505
191 0.000510
192 0.000516
193 0.000515
194 0.000514
195 0.000509
196 0.000504
197 0.000519
198 0.000518
199 0.000517
200 0.000518
201 0.000521
202 0.000525
203 0.000521
204 0.000522
205 0.000526
206 0.000529
207 0.000528
208 0.000513
209 0.000503
210 0.000494
211 0.000491
212 0.000492
213 0.000492
214 0.000491
215 0.000492
216 0.000494
217 0.000492
218 0.000488
219 0.000479
220 0.000458
221 0.000441
222 0.000425
223 0.000410
224 0.000408
225 0.000418
226 0.000424
227 0.000439
228 0.000447
229 0.000450
230 0.000448
231 0.000451
232 0.000455
233 0.000450
234 0.000440
235 0.000438
236 0.000436
237 0.000418
238 0.000402
239 0.000401
240 0.000412
241 0.000408
242 0.000410
243 0.000408
244 0.000404
245 0.000395
246 0.000386
247 0.000376
248 0.000370
249 0.000365
