# i correlation
1 0.002368
2 0.002258
3 0.002165
4 0.002090
5 0.002021
6 0.001974
7 0.001948
8 0.001915
9 0.001880
10 0.001832
11 0.001790
12 0.001753
13 0.001718
14 0.001683
15 0.001655
16 0.001615
17 0.001570
18 0.001527
19 0.001491
20 0.001472
21 0.001454
22 0.001429
23 0.001396
24 0.001369
25 0.001352
26 0.001346
27 0.001356
28 0.001353
29 0.001361
30 0.001349
31 0.001335
32 0.001322
33 0.001313
34 0.001312
35 0.001311
36 0.001319
37 0.001327
38 0.001332
39 0.001327
40 0.001323
41 0.001307
42 0.001302
43 0.001297
44 0.001290
45 0.001277
46 0.001255
47 0.001241
48 0.001235
49 0.001231
50 0.001222
51 0.001212
52 0.001210
53 0.001198
54 0.001169
55 0.001154
56 0.001139
57 0.001134
58 0.001130
59 0.001129
60 0.001119
61 0.001110
62 0.001099
63 0.001097
64 0.001105
65 0.001123
66 0.001132
67 0.001144
68 0.001142
69 0.001149
70 0.001149
71 0.001146
72 0.001145
73 0.001150
74 0.001153
75 0.001160
76 0.001158
77 0.001159
78 0.001154
79 0.001160
80 0.001173
81 0.001166
82 0.001171
83 0.001169
84 0.001169
85 0.001170
86 0.001166
87 0.001152
88 0.001149
89 0.001149
90 0.001155
91 0.001156
92 0.001162
93 0.001161
94 0.001150
95 0.001136
96 0.001117
97 0.001093
98 0.001066
99 0.001049
100 0.001050
101 0.001048
102 0.001039
103 0.001040
104 0.001049
105 0.001053
106 0.001059
107 0.001069
108 0.001073
109 0.001070
110 0.001060
111 0.001038
112 0.001029
113 0.001034
114 0.001026
115 0.001014
116 0.000998
117 0.000996
118 0.000989
119 0.000983
120 0.000985
121 0.000994
122 0.001006
123 0.001015
124 0.001010
125 0.000994
126 0.000975
127 0.000942
128 0.000935
129 0.000914
130 0.000908
131 0.000898
132 0.000884
133 0.000877
134 0.000879
135 0.000878
136 0.000860
137 0.000838
138 0.000823
139 0.000811
140 0.000796
141 0.000776
142 0.000774
143 0.000779
144 0.000791
145 0.000799
146 0.000791
147 0.000776
148 0.000766
149 0.000766
150 0.000765
151 0.000765
152 0.000770
153 0.000768
154 0.000759
155 0.000763
156 0.000759
157 0.000765
158 0.000767
159 0.000786
160 0.000802
161 0.000808
162 0.000810
163 0.000804
164 0.000793
165 0.000785
166 0.000779
167 0.000768
168 0.000751
169 0.000724
170 0.000702
171 0.000686
172 0.000667
173 0.000655
174 0.000645
175 0.000651
176 0.000654
177 0.000651
178 0.000644
179 0.000636
180 0.000635
181 0.000628
182 0.000632
183 0.000628
184 0.000623
185 0.000604
186 0.000597
187 0.000588
188 0.000598
189 0.000606
190 0.000610
191 0.000622
192 0.000640
193 0.000662
194 0.000662
195 0.000674
196 0.000684
197 0.000701
198 0.000707
199 0.000715
200 0.000719
201 0.000724
202 0.000727
203 0.000733
204 0.000737
205 0.000740
206 0.000740
207 0.000725
208 0.000715
209 0.000704
210 0.000713
211 0.000714
212 0.000703
213 0.000703
214 0.000704
215 0.000694
216 0.000686
217 0.000671
218 0.000661
219 0.000649
220 0.000641
221 0.000630
222 0.000623
223 0.000616
224 0.000605
225 0.000602
226 0.000612
227 0.000603
228 0.000600
229 0.000587
230 0.000577
231 0.000558
232 0.000543
233 0.000522
234 0.000506
235 0.000504
236 0.000494
237 0.000485
238 0.000475
239 0.000472
240 0.000477
241 0.000499
242 0.000500
243 0.000504
244 0.000505
245 0.000502
246 0.000494
247 0.000490
248 0.000494
249 0.000492
