# i correlation
1 0.002174
2 0.002050
3 0.001939
4 0.001849
5 0.001782
6 0.001736
7 0.001696
8 0.001659
9 0.001624
10 0.001591
11 0.001563
12 0.001546
13 0.001518
14 0.001490
15 0.001468
16 0.001449
17 0.001438
18 0.001432
19 0.001426
20 0.001415
21 0.001416
22 0.001423
23 0.001429
24 0.001422
25 0.001415
26 0.001398
27 0.001373
28 0.001348
29 0.001336
30 0.001329
31 0.001321
32 0.001298
33 0.001272
34 0.001255
35 0.001246
36 0.001242
37 0.001241
38 0.001233
39 0.001214
40 0.001189
41 0.001177
42 0.001175
43 0.001177
44 0.001188
45 0.001198
46 0.001201
47 0.001197
48 0.001179
49 0.001154
50 0.001129
51 0.001100
52 0.001077
53 0.001066
54 0.001064
55 0.001066
56 0.001072
57 0.001072
58 0.001082
59 0.001097
60 0.001108
61 0.001106
62 0.001109
63 0.001104
64 0.001098
65 0.001097
66 0.001086
67 0.001076
68 0.001073
69 0.001079
70 0.001077
71 0.001081
72 0.001087
73 0.001093
74 0.001096
75 0.001098
76 0.001101
77 0.001101
78 0.001092
79 0.001079
80 0.001072
81 0.001082
82 0.001091
83 0.001113
84 0.001119
85 0.001126
86 0.001116
87 0.001108
88 0.001091
89 0.001083
90 0.001078
91 0.001081
92 0.001093
93 0.001104
94 0.001117
95 0.001121
96 0.001121
97 0.001119
98 0.001098
99 0.001075
100 0.001061
101 0.001059
102 0.001068
103 0.001064
104 0.001061
105 0.001071
106 0.001085
107 0.001090
108 0.001082
109 0.001069
110 0.001049
111 0.001027
112 0.001010
113 0.000996
114 0.000997
115 0.001002
116 0.001000
117 0.001014
118 0.001029
119 0.001047
120 0.001066
121 0.001083
122 0.001100
123 0.001106
124 0.001111
125 0.001107
126 0.001106
127 0.001115
128 0.001122
129 0.001129
130 0.001127
131 0.001121
132 0.001123
133 0.001112
134 0.001101
135 0.001078
136 0.001055
137 0.001045
138 0.001049
139 0.001053
140 0.001058
141 0.001058
142 0.001062
143 0.001055
144 0.001052
145 0.001031
146 0.001025
147 0.001021
148 0.001020
149 0.001036
150 0.001057
151 0.001075
152 0.001083
153 0.001095
154 0.001105
155 0.001111
156 0.001114
157 0.001105
158 0.001094
159 0.001087
160 0.001097
161 0.001108
162 0.001108
163 0.001107
164 0.001103
165 0.001094
166 0.001097
167 0.001090
168 0.001089
169 0.001084
170 0.001078
171 0.001071
172 0.001065
173 0.001061
174 0.001059
175 0.001054
176 0.001054
177 0.001051
178 0.001044
179 0.001033
180 0.001029
181 0.001022
182 0.001012
183 0.001015
184 0.001027
185 0.001029
186 0.001032
187 0.001032
188 0.001024
189 0.001023
190 0.001013
191 0.001019
192 0.001032
193 0.001041
194 0.001048
195 0.001054
196 0.001050
197 0.001051
198 0.001048
199 0.001045
200 0.001027
201 0.001011
202 0.000996
203 0.000972
204 0.000951
205 0.000941
206 0.000938
207 0.000930
208 0.000908
209 0.000890
210 0.000880
211 0.000875
212 0.000871
213 0.000855
214 0.000843
215 0.000831
216 0.000821
217 0.000802
218 0.000780
219 0.000764
220 0.000760
221 0.000756
222 0.000763
223 0.000781
224 0.000805
225 0.000819
226 0.000814
227 0.000807
228 0.000782
229 0.000753
230 0.000730
231 0.000723
232 0.000721
233 0.000731
234 0.000735
235 0.000741
236 0.000754
237 0.000770
238 0.000772
239 0.000773
240 0.000767
241 0.000766
242 0.000758
243 0.000749
244 0.000747
245 0.000739
246 0.000737
247 0.000729
248 0.000727
249 0.000737
