# i correlation
1 0.001890
2 0.001774
3 0.001681
4 0.001596
5 0.001536
6 0.001483
7 0.001442
8 0.001411
9 0.001379
10 0.001348
11 0.001322
12 0.001304
13 0.001293
14 0.001289
15 0.001276
16 0.001267
17 0.001255
18 0.001251
19 0.001240
20 0.001222
21 0.001212
22 0.001198
23 0.001183
24 0.001162
25 0.001143
26 0.001119
27 0.001112
28 0.001094
29 0.001077
30 0.001076
31 0.001068
32 0.001061
33 0.001063
34 0.001064
35 0.001063
36 0.001059
37 0.001058
38 0.001042
39 0.001024
40 0.001015
41 0.001008
42 0.000989
43 0.000973
44 0.000960
45 0.000968
46 0.000980
47 0.000986
48 0.001000
49 0.001008
50 0.001014
51 0.001013
52 0.001000
53 0.000989
54 0.000992
55 0.001003
56 0.001016
57 0.001029
58 0.001032
59 0.001030
60 0.001009
61 0.000994
62 0.000974
63 0.000953
64 0.000951
65 0.000945
66 0.000924
67 0.000911
68 0.000898
69 0.000889
70 0.000884
71 0.000889
72 0.000899
73 0.000892
74 0.000891
75 0.000878
76 0.000864
77 0.000842
78 0.000823
79 0.000802
80 0.000787
81 0.000784
82 0.000791
83 0.000795
84 0.000793
85 0.000799
86 0.000802
87 0.000796
88 0.000789
89 0.000781
90 0.000777
91 0.000792
92 0.000811
93 0.000814
94 0.000816
95 0.000819
96 0.000807
97 0.000804
98 0.000791
99 0.000775
100 0.000769
101 0.000760
102 0.000753
103 0.000751
104 0.000754
105 0.000757
106 0.000754
107 0.000753
108 0.000748
109 0.000745
110 0.000743
111 0.000736
112 0.000725
113 0.000721
114 0.000714
115 0.000709
116 0.000700
117 0.000676
118 0.000667
119 0.000654
120 0.000643
121 0.000645
122 0.000656
123 0.000655
124 0.000651
125 0.000649
126 0.000644
127 0.000649
128 0.000655
129 0.000668
130 0.000685
131 0.000698
132 0.000715
133 0.000726
134 0.000732
135 0.000727
136 0.000712
137 0.000691
138 0.000686
139 0.000694
140 0.000705
141 0.000699
142 0.000686
143 0.000684
144 0.000682
145 0.000681
146 0.000686
147 0.000692
148 0.000681
149 0.000669
150 0.000667
151 0.000672
152 0.000687
153 0.000695
154 0.000695
155 0.000694
156 0.000693
157 0.000690
158 0.000682
159 0.000688
160 0.000685
161 0.000675
162 0.000664
163 0.000645
164 0.000635
165 0.000634
166 0.000629
167 0.000629
168 0.000631
169 0.000631
170 0.000624
171 0.000611
172 0.000587
173 0.000570
174 0.000555
175 0.000544
176 0.000537
177 0.000544
178 0.000558
179 0.000566
180 0.000568
181 0.000560
182 0.000553
183 0.000546
184 0.000537
185 0.000525
186 0.000528
187 0.000528
188 0.000527
189 0.000540
190 0.000552
191 0.000557
192 0.000562
193 0.000569
194 0.000574
195 0.000577
196 0.000583
197 0.000578
198 0.000569
199 0.000552
200 0.000544
201 0.000533
202 0.000524
203 0.000507
204 0.000496
205 0.000496
206 0.000488
207 0.000477
208 0.000475
209 0.000465
210 0.000471
211 0.000471
212 0.000467
213 0.000461
214 0.000450
215 0.000447
216 0.000441
217 0.000430
218 0.000425
219 0.000417
220 0.000413
221 0.000407
222 0.000401
223 0.000389
224 0.000390
225 0.000398
226 0.000412
227 0.000423
228 0.000430
229 0.000439
230 0.000439
231 0.000444
232 0.000443
233 0.000451
234 0.000452
235 0.000440
236 0.000437
237 0.000438
238 0.000437
239 0.000443
240 0.000452
241 0.000454
242 0.000447
243 0.000451
244 0.000447
245 0.000448
246 0.000446
247 0.000450
248 0.000450
249 0.000455
