# i correlation
1 0.002203
2 0.002088
3 0.001990
4 0.001917
5 0.001848
6 0.001787
7 0.001737
8 0.001691
9 0.001645
10 0.001602
11 0.001561
12 0.001521
13 0.001491
14 0.001468
15 0.001457
16 0.001444
17 0.001424
18 0.001401
19 0.001367
20 0.001349
21 0.001330
22 0.001315
23 0.001298
24 0.001282
25 0.001250
26 0.001231
27 0.001220
28 0.001218
29 0.001203
30 0.001191
31 0.001175
32 0.001162
33 0.001162
34 0.001176
35 0.001196
36 0.001225
37 0.001248
38 0.001274
39 0.001289
40 0.001307
41 0.001325
42 0.001330
43 0.001330
44 0.001323
45 0.001305
46 0.001297
47 0.001292
48 0.001271
49 0.001244
50 0.001216
51 0.001185
52 0.001168
53 0.001167
54 0.001166
55 0.001169
56 0.001186
57 0.001194
58 0.001191
59 0.001190
60 0.001193
61 0.001189
62 0.001174
63 0.001159
64 0.001153
65 0.001146
66 0.001123
67 0.001088
68 0.001062
69 0.001034
70 0.001012
71 0.000996
72 0.000973
73 0.000947
74 0.000932
75 0.000919
76 0.000920
77 0.000927
78 0.000932
79 0.000921
80 0.000921
81 0.000926
82 0.000941
83 0.000958
84 0.000977
85 0.000992
86 0.000996
87 0.000996
88 0.001000
89 0.001000
90 0.000996
91 0.000995
92 0.000986
93 0.000987
94 0.000984
95 0.000988
96 0.001000
97 0.001005
98 0.001009
99 0.001026
100 0.001047
101 0.001069
102 0.001074
103 0.001078
104 0.001076
105 0.001077
106 0.001072
107 0.001061
108 0.001046
109 0.001022
110 0.000998
111 0.000969
112 0.000953
113 0.000944
114 0.000933
115 0.000917
116 0.000907
117 0.000901
118 0.000898
119 0.000883
120 0.000871
121 0.000865
122 0.000880
123 0.000890
124 0.000895
125 0.000902
126 0.000899
127 0.000892
128 0.000869
129 0.000842
130 0.000824
131 0.000816
132 0.000808
133 0.000803
134 0.000793
135 0.000790
136 0.000790
137 0.000793
138 0.000791
139 0.000787
140 0.000801
141 0.000820
142 0.000850
143 0.000875
144 0.000903
145 0.000927
146 0.000949
147 0.000951
148 0.000958
149 0.000972
150 0.000984
151 0.000986
152 0.000983
153 0.000976
154 0.000963
155 0.000943
156 0.000928
157 0.000920
158 0.000924
159 0.000935
160 0.000952
161 0.000970
162 0.000992
163 0.001004
164 0.001014
165 0.001019
166 0.001024
167 0.001024
168 0.001013
169 0.000998
170 0.000982
171 0.000968
172 0.000960
173 0.000947
174 0.000942
175 0.000931
176 0.000906
177 0.000899
178 0.000901
179 0.000902
180 0.000902
181 0.000895
182 0.000900
183 0.000906
184 0.000916
185 0.000911
186 0.000915
187 0.000921
188 0.000942
189 0.000965
190 0.000979
191 0.000976
192 0.000976
193 0.000968
194 0.000957
195 0.000940
196 0.000938
197 0.000925
198 0.000912
199 0.000895
200 0.000894
201 0.000895
202 0.000894
203 0.000888
204 0.000887
205 0.000883
206 0.000893
207 0.000904
208 0.000906
209 0.000905
210 0.000899
211 0.000892
212 0.000882
213 0.000875
214 0.000873
215 0.000868
216 0.000868
217 0.000872
218 0.000883
219 0.000873
220 0.000863
221 0.000856
222 0.000867
223 0.000855
224 0.000848
225 0.000849
226 0.000842
227 0.000832
228 0.000829
229 0.000819
230 0.000809
231 0.000796
232 0.000780
233 0.000763
234 0.000742
235 0.000722
236 0.000713
237 0.000716
238 0.000715
239 0.000710
240 0.000705
241 0.000701
242 0.000698
243 0.000683
244 0.000666
245 0.000671
246 0.000671
247 0.000669
248 0.000674
249 0.000688
