# i correlation
1 0.002479
2 0.002374
3 0.002280
4 0.002195
5 0.002112
6 0.002035
7 0.001952
8 0.001883
9 0.001830
10 0.001797
11 0.001777
12 0.001759
13 0.001736
14 0.001722
15 0.001717
16 0.001710
17 0.001717
18 0.001725
19 0.001736
20 0.001751
21 0.001759
22 0.001760
23 0.001752
24 0.001734
25 0.001703
26 0.001669
27 0.001632
28 0.001595
29 0.001556
30 0.001530
31 0.001496
32 0.001480
33 0.001468
34 0.001469
35 0.001476
36 0.001487
37 0.001507
38 0.001515
39 0.001528
40 0.001534
41 0.001537
42 0.001539
43 0.001532
44 0.001514
45 0.001489
46 0.001471
47 0.001450
48 0.001426
49 0.001402
50 0.001380
51 0.001353
52 0.001318
53 0.001282
54 0.001259
55 0.001233
56 0.001209
57 0.001198
58 0.001183
59 0.001193
60 0.001191
61 0.001197
62 0.001206
63 0.001224
64 0.001240
65 0.001245
66 0.001240
67 0.001240
68 0.001235
69 0.001232
70 0.001222
71 0.001214
72 0.001202
73 0.001198
74 0.001203
75 0.001206
76 0.001205
77 0.001202
78 0.001204
79 0.001205
80 0.001212
81 0.001216
82 0.001224
83 0.001223
84 0.001224
85 0.001241
86 0.001251
87 0.001263
88 0.001265
89 0.001267
90 0.001260
91 0.001254
92 0.001254
93 0.001253
94 0.001245
95 0.001240
96 0.001236
97 0.001238
98 0.001235
99 0.001240
100 0.001247
101 0.001249
102 0.001258
103 0.001280
104 0.001299
105 0.001316
106 0.001335
107 0.001348
108 0.001352
109 0.001353
110 0.001361
111 0.001367
112 0.001359
113 0.001353
114 0.001351
115 0.001330
116 0.001307
117 0.001287
118 0.001275
119 0.001268
120 0.001248
121 0.001221
122 0.001202
123 0.001186
124 0.001169
125 0.001175
126 0.001179
127 0.001186
128 0.001186
129 0.001187
130 0.001176
131 0.001170
132 0.001168
133 0.001157
134 0.001138
135 0.001115
136 0.001108
137 0.001102
138 0.001081
139 0.001058
140 0.001028
141 0.001000
142 0.000976
143 0.000960
144 0.000946
145 0.000929
146 0.000927
147 0.000925
148 0.000930
149 0.000938
150 0.000941
151 0.000935
152 0.000934
153 0.000926
154 0.000920
155 0.000918
156 0.000905
157 0.000892
158 0.000880
159 0.000856
160 0.000847
161 0.000838
162 0.000817
163 0.000799
164 0.000773
165 0.000754
166 0.000740
167 0.000737
168 0.000731
169 0.000728
170 0.000731
171 0.000735
172 0.000734
173 0.000730
174 0.000729
175 0.000726
176 0.000718
177 0.000716
178 0.000720
179 0.000705
180 0.000696
181 0.000705
182 0.000715
183 0.000721
184 0.000706
185 0.000692
186 0.000683
187 0.000677
188 0.000670
189 0.000663
190 0.000654
191 0.000653
192 0.000652
193 0.000660
194 0.000662
195 0.000667
196 0.000670
197 0.000669
198 0.000669
199 0.000667
200 0.000666
201 0.000677
202 0.000684
203 0.000693
204 0.000692
205 0.000696
206 0.000701
207 0.000711
208 0.000714
209 0.000708
210 0.000701
211 0.000706
212 0.000698
213 0.000693
214 0.000690
215 0.000689
216 0.000687
217 0.000694
218 0.000704
219 0.000714
220 0.000716
221 0.000727
222 0.000739
223 0.000741
224 0.000752
225 0.000764
226 0.000772
227 0.000760
228 0.000753
229 0.000755
230 0.000748
231 0.000747
232 0.000753
233 0.000753
234 0.000743
235 0.000742
236 0.000735
237 0.000726
238 0.000708
239 0.000694
240 0.000679
241 0.000676
242 0.000674
243 0.000676
244 0.000675
245 0.000686
246 0.000702
247 0.000729
248 0.000748
249 0.000745
