# i correlation
1 0.001525
2 0.001411
3 0.001313
4 0.001257
5 0.001202
6 0.001163
7 0.001122
8 0.001094
9 0.001071
10 0.001057
11 0.001024
12 0.000996
13 0.000968
14 0.000943
15 0.000920
16 0.000893
17 0.000879
18 0.000870
19 0.000872
20 0.000874
21 0.000873
22 0.000870
23 0.000865
24 0.000842
25 0.000811
26 0.000792
27 0.000800
28 0.000792
29 0.000788
30 0.000795
31 0.000810
32 0.000811
33 0.000805
34 0.000787
35 0.000770
36 0.000766
37 0.000756
38 0.000738
39 0.000721
40 0.000717
41 0.000721
42 0.000734
43 0.000733
44 0.000722
45 0.000711
46 0.000709
47 0.000706
48 0.000708
49 0.000698
50 0.000694
51 0.000691
52 0.000695
53 0.000696
54 0.000713
55 0.000712
56 0.000716
57 0.000716
58 0.000720
59 0.000710
60 0.000704
61 0.000690
62 0.000691
63 0.000693
64 0.000713
65 0.000727
66 0.000740
67 0.000752
68 0.000756
69 0.000755
70 0.000741
71 0.000732
72 0.000726
73 0.000730
74 0.000733
75 0.000744
76 0.000742
77 0.000733
78 0.000708
79 0.000701
80 0.000700
81 0.000707
82 0.000698
83 0.000690
84 0.000677
85 0.000676
86 0.000674
87 0.000680
88 0.000665
89 0.000653
90 0.000646
91 0.000639
92 0.000632
93 0.000613
94 0.000613
95 0.000600
96 0.000593
97 0.000583
98 0.000581
99 0.000585
100 0.000588
101 0.000587
102 0.000580
103 0.000570
104 0.000555
105 0.000556
106 0.000543
107 0.000530
108 0.000512
109 0.000502
110 0.000495
111 0.000498
112 0.000497
113 0.000503
114 0.000512
115 0.000507
116 0.000512
117 0.000525
118 0.000543
119 0.000557
120 0.000560
121 0.000569
122 0.000580
123 0.000600
124 0.000613
125 0.000620
126 0.000631
127 0.000627
128 0.000621
129 0.000616
130 0.000598
131 0.000576
132 0.000556
133 0.000551
134 0.000547
135 0.000534
136 0.000512
137 0.000496
138 0.000482
139 0.000486
140 0.000493
141 0.000503
142 0.000507
143 0.000517
144 0.000525
145 0.000531
146 0.000539
147 0.000533
148 0.000525
149 0.000518
150 0.000521
151 0.000519
152 0.000518
153 0.000517
154 0.000520
155 0.000526
156 0.000533
157 0.000534
158 0.000525
159 0.000519
160 0.000512
161 0.000507
162 0.000490
163 0.000478
164 0.000471
165 0.000476
166 0.000484
167 0.000498
168 0.000506
169 0.000495
170 0.000493
171 0.000491
172 0.000480
173 0.000469
174 0.000463
175 0.000470
176 0.000481
177 0.000481
178 0.000468
179 0.000460
180 0.000452
181 0.000447
182 0.000453
183 0.000456
184 0.000450
185 0.000451
186 0.000465
187 0.000477
188 0.000491
189 0.000498
190 0.000504
191 0.000500
192 0.000498
193 0.000496
194 0.000500
195 0.000508
196 0.000516
197 0.000526
198 0.000546
199 0.000571
200 0.000577
201 0.000577
202 0.000585
203 0.000579
204 0.000573
205 0.000550
206 0.000539
207 0.000532
208 0.000520
209 0.000493
210 0.000478
211 0.000468
212 0.000468
213 0.000472
214 0.000473
215 0.000465
216 0.000471
217 0.000479
218 0.000480
219 0.000482
220 0.000482
221 0.000493
222 0.000503
223 0.000516
224 0.000516
225 0.000522
226 0.000521
227 0.000524
228 0.000523
229 0.000523
230 0.000521
231 0.000530
232 0.000535
233 0.000542
234 0.000544
235 0.000538
236 0.000525
237 0.000514
238 0.000499
239 0.000480
240 0.000472
241 0.000457
242 0.000452
243 0.000450
244 0.000464
245 0.000462
246 0.000465
247 0.000457
248 0.000455
249 0.000445
