# i correlation
1 0.002190
2 0.002087
3 0.002007
4 0.001948
5 0.001892
6 0.001827
7 0.001775
8 0.001719
9 0.001674
10 0.001643
11 0.001616
12 0.001592
13 0.001576
14 0.001557
15 0.001540
16 0.001514
17 0.001492
18 0.001477
19 0.001458
20 0.001447
21 0.001433
22 0.001411
23 0.001389
24 0.001362
25 0.001343
26 0.001326
27 0.001313
28 0.001298
29 0.001294
30 0.001295
31 0.001289
32 0.001288
33 0.001288
34 0.001288
35 0.001297
36 0.001289
37 0.001287
38 0.001281
39 0.001270
40 0.001262
41 0.001261
42 0.001266
43 0.001269
44 0.001265
45 0.001254
46 0.001246
47 0.001247
48 0.001243
49 0.001231
50 0.001209
51 0.001200
52 0.001193
53 0.001204
54 0.001205
55 0.001200
56 0.001193
57 0.001195
58 0.001210
59 0.001228
60 0.001247
61 0.001253
62 0.001260
63 0.001263
64 0.001263
65 0.001267
66 0.001260
67 0.001252
68 0.001249
69 0.001241
70 0.001232
71 0.001220
72 0.001200
73 0.001182
74 0.001167
75 0.001146
76 0.001138
77 0.001132
78 0.001126
79 0.001113
80 0.001111
81 0.001111
82 0.001108
83 0.001093
84 0.001083
85 0.001069
86 0.001061
87 0.001045
88 0.001026
89 0.001012
90 0.001003
91 0.000998
92 0.000995
93 0.000971
94 0.000947
95 0.000930
96 0.000922
97 0.000929
98 0.000935
99 0.000936
100 0.000950
101 0.000957
102 0.000954
103 0.000944
104 0.000940
105 0.000928
106 0.000918
107 0.000912
108 0.000894
109 0.000872
110 0.000853
111 0.000844
112 0.000842
113 0.000843
114 0.000840
115 0.000835
116 0.000829
117 0.000829
118 0.000832
119 0.000840
120 0.000843
121 0.000848
122 0.000853
123 0.000866
124 0.000875
125 0.000879
126 0.000868
127 0.000862
128 0.000854
129 0.000847
130 0.000844
131 0.000842
132 0.000839
133 0.000846
134 0.000851
135 0.000852
136 0.000842
137 0.000834
138 0.000837
139 0.000842
140 0.000838
141 0.000828
142 0.000816
143 0.000806
144 0.000799
145 0.000804
146 0.000805
147 0.000800
148 0.000795
149 0.000787
150 0.000782
151 0.000789
152 0.000806
153 0.000816
154 0.000830
155 0.000826
156 0.000826
157 0.000823
158 0.000809
159 0.000805
160 0.000795
161 0.000790
162 0.000782
163 0.000772
164 0.000770
165 0.000777
166 0.000787
167 0.000800
168 0.000811
169 0.000816
170 0.000827
171 0.000834
172 0.000853
173 0.000847
174 0.000839
175 0.000826
176 0.000810
177 0.000802
178 0.000799
179 0.000792
180 0.000786
181 0.000786
182 0.000803
183 0.000817
184 0.000831
185 0.000853
186 0.000867
187 0.000872
188 0.000872
189 0.000878
190 0.000872
191 0.000861
192 0.000858
193 0.000856
194 0.000851
195 0.000853
196 0.000846
197 0.000845
198 0.000833
199 0.000828
200 0.000832
201 0.000831
202 0.000826
203 0.000812
204 0.000806
205 0.000805
206 0.000791
207 0.000775
208 0.000758
209 0.000744
210 0.000735
211 0.000720
212 0.000705
213 0.000692
214 0.000685
215 0.000686
216 0.000685
217 0.000678
218 0.000671
219 0.000658
220 0.000651
221 0.000646
222 0.000650
223 0.000649
224 0.000640
225 0.000645
226 0.000647
227 0.000658
228 0.000656
229 0.000652
230 0.000658
231 0.000655
232 0.000648
233 0.000634
234 0.000629
235 0.000629
236 0.000625
237 0.000630
238 0.000636
239 0.000630
240 0.000626
241 0.000619
242 0.000606
243 0.000602
244 0.000600
245 0.000600
246 0.000592
247 0.000584
248 0.000581
249 0.000586
