# i correlation
1 0.002175
2 0.002066
3 0.001974
4 0.001908
5 0.001845
6 0.001782
7 0.001724
8 0.001678
9 0.001633
10 0.001596
11 0.001577
12 0.001564
13 0.001560
14 0.001559
15 0.001562
16 0.001560
17 0.001572
18 0.001575
19 0.001575
20 0.001581
21 0.001575
22 0.001567
23 0.001560
24 0.001541
25 0.001534
26 0.001520
27 0.001501
28 0.001496
29 0.001486
30 0.001481
31 0.001478
32 0.001479
33 0.001482
34 0.001470
35 0.001456
36 0.001442
37 0.001432
38 0.001427
39 0.001425
40 0.001425
41 0.001414
42 0.001418
43 0.001419
44 0.001414
45 0.001406
46 0.001392
47 0.001388
48 0.001384
49 0.001365
50 0.001341
51 0.001312
52 0.001297
53 0.001295
54 0.001291
55 0.001284
56 0.001275
57 0.001266
58 0.001262
59 0.001254
60 0.001249
61 0.001253
62 0.001256
63 0.001254
64 0.001254
65 0.001251
66 0.001248
67 0.001243
68 0.001233
69 0.001217
70 0.001204
71 0.001198
72 0.001194
73 0.001186
74 0.001167
75 0.001153
76 0.001145
77 0.001131
78 0.001114
79 0.001097
80 0.001096
81 0.001094
82 0.001088
83 0.001075
84 0.001063
85 0.001065
86 0.001064
87 0.001066
88 0.001053
89 0.001055
90 0.001053
91 0.001052
92 0.001049
93 0.001039
94 0.001032
95 0.001009
96 0.000989
97 0.000979
98 0.000980
99 0.000966
100 0.000973
101 0.000970
102 0.000962
103 0.000944
104 0.000926
105 0.000922
106 0.000926
107 0.000930
108 0.000920
109 0.000913
110 0.000914
111 0.000931
112 0.000949
113 0.000966
114 0.000967
115 0.000974
116 0.000966
117 0.000958
118 0.000937
119 0.000919
120 0.000918
121 0.000918
122 0.000911
123 0.000904
124 0.000900
125 0.000906
126 0.000904
127 0.000897
128 0.000890
129 0.000883
130 0.000880
131 0.000876
132 0.000870
133 0.000874
134 0.000873
135 0.000865
136 0.000849
137 0.000838
138 0.000826
139 0.000822
140 0.000817
141 0.000810
142 0.000805
143 0.000801
144 0.000792
145 0.000780
146 0.000779
147 0.000783
148 0.000786
149 0.000783
150 0.000776
151 0.000755
152 0.000733
153 0.000728
154 0.000729
155 0.000726
156 0.000722
157 0.000708
158 0.000691
159 0.000680
160 0.000679
161 0.000687
162 0.000705
163 0.000715
164 0.000706
165 0.000703
166 0.000699
167 0.000702
168 0.000699
169 0.000701
170 0.000708
171 0.000713
172 0.000714
173 0.000704
174 0.000713
175 0.000717
176 0.000724
177 0.000713
178 0.000706
179 0.000705
180 0.000708
181 0.000711
182 0.000716
183 0.000726
184 0.000733
185 0.000738
186 0.000746
187 0.000758
188 0.000768
189 0.000771
190 0.000759
191 0.000758
192 0.000758
193 0.000757
194 0.000741
195 0.000725
196 0.000711
197 0.000693
198 0.000681
199 0.000661
200 0.000657
201 0.000659
202 0.000668
203 0.000672
204 0.000682
205 0.000698
206 0.000702
207 0.000710
208 0.000711
209 0.000712
210 0.000711
211 0.000709
212 0.000701
213 0.000697
214 0.000696
215 0.000690
216 0.000676
217 0.000656
218 0.000654
219 0.000657
220 0.000656
221 0.000638
222 0.000619
223 0.000615
224 0.000611
225 0.000603
226 0.000593
227 0.000582
228 0.000575
229 0.000577
230 0.000578
231 0.000580
232 0.000573
233 0.000572
234 0.000572
235 0.000576
236 0.000586
237 0.000576
238 0.000569
239 0.000555
240 0.000553
241 0.000555
242 0.000563
243 0.000566
244 0.000563
245 0.000554
246 0.000542
247 0.000539
248 0.000548
249 0.000552
