# i correlation
1 0.002193
2 0.002081
3 0.001982
4 0.001907
5 0.001837
6 0.001781
7 0.001732
8 0.001709
9 0.001695
10 0.001672
11 0.001648
12 0.001615
13 0.001586
14 0.001561
15 0.001548
16 0.001540
17 0.001556
18 0.001551
19 0.001563
20 0.001564
21 0.001565
22 0.001567
23 0.001586
24 0.001591
25 0.001596
26 0.001603
27 0.001600
28 0.001600
29 0.001587
30 0.001569
31 0.001557
32 0.001554
33 0.001552
34 0.001562
35 0.001551
36 0.001540
37 0.001529
38 0.001518
39 0.001496
40 0.001480
41 0.001450
42 0.001427
43 0.001416
44 0.001407
45 0.001407
46 0.001408
47 0.001414
48 0.001418
49 0.001434
50 0.001434
51 0.001420
52 0.001406
53 0.001390
54 0.001388
55 0.001382
56 0.001374
57 0.001379
58 0.001388
59 0.001398
60 0.001396
61 0.001399
62 0.001389
63 0.001378
64 0.001361
65 0.001346
66 0.001340
67 0.001339
68 0.001327
69 0.001321
70 0.001307
71 0.001298
72 0.001289
73 0.001285
74 0.001280
75 0.001272
76 0.001268
77 0.001249
78 0.001237
79 0.001223
80 0.001238
81 0.001242
82 0.001239
83 0.001250
84 0.001258
85 0.001257
86 0.001250
87 0.001240
88 0.001241
89 0.001242
90 0.001239
91 0.001243
92 0.001240
93 0.001246
94 0.001236
95 0.001241
96 0.001235
97 0.001229
98 0.001224
99 0.001219
100 0.001206
101 0.001200
102 0.001186
103 0.001181
104 0.001169
105 0.001167
106 0.001164
107 0.001174
108 0.001187
109 0.001183
110 0.001165
111 0.001149
112 0.001155
113 0.001158
114 0.001154
115 0.001147
116 0.001150
117 0.001150
118 0.001154
119 0.001151
120 0.001141
121 0.001140
122 0.001129
123 0.001117
124 0.001106
125 0.001098
126 0.001083
127 0.001067
128 0.001053
129 0.001042
130 0.001035
131 0.001028
132 0.001019
133 0.001011
134 0.001012
135 0.001016
136 0.001009
137 0.000996
138 0.000982
139 0.000975
140 0.000979
141 0.000988
142 0.000992
143 0.000993
144 0.000992
145 0.000986
146 0.000975
147 0.000968
148 0.000968
149 0.000963
150 0.000956
151 0.000953
152 0.000960
153 0.000964
154 0.000969
155 0.000963
156 0.000969
157 0.000972
158 0.000981
159 0.000989
160 0.001000
161 0.000997
162 0.000986
163 0.000985
164 0.000987
165 0.000984
166 0.000988
167 0.000986
168 0.000992
169 0.000988
170 0.000973
171 0.000968
172 0.000959
173 0.000946
174 0.000930
175 0.000932
176 0.000939
177 0.000948
178 0.000945
179 0.000950
180 0.000951
181 0.000958
182 0.000960
183 0.000960
184 0.000955
185 0.000952
186 0.000949
187 0.000940
188 0.000942
189 0.000943
190 0.000936
191 0.000937
192 0.000951
193 0.000960
194 0.000971
195 0.000970
196 0.000971
197 0.000958
198 0.000968
199 0.000961
200 0.000953
201 0.000955
202 0.000956
203 0.000952
204 0.000933
205 0.000920
206 0.000906
207 0.000884
208 0.000869
209 0.000851
210 0.000835
211 0.000831
212 0.000820
213 0.000803
214 0.000794
215 0.000794
216 0.000799
217 0.000812
218 0.000815
219 0.000823
220 0.000839
221 0.000859
222 0.000866
223 0.000866
224 0.000862
225 0.000861
226 0.000868
227 0.000863
228 0.000860
229 0.000869
230 0.000881
231 0.000885
232 0.000883
233 0.000871
234 0.000868
235 0.000870
236 0.000872
237 0.000864
238 0.000857
239 0.000856
240 0.000855
241 0.000852
242 0.000845
243 0.000841
244 0.000831
245 0.000824
246 0.000807
247 0.000800
248 0.000791
249 0.000791
