# i correlation
1 0.001497
2 0.001403
3 0.001322
4 0.001253
5 0.001177
6 0.001121
7 0.001080
8 0.001048
9 0.001021
10 0.000993
11 0.000960
12 0.000935
13 0.000920
14 0.000919
15 0.000910
16 0.000890
17 0.000872
18 0.000857
19 0.000854
20 0.000851
21 0.000857
22 0.000859
23 0.000881
24 0.000886
25 0.000889
26 0.000883
27 0.000879
28 0.000875
29 0.000870
30 0.000864
31 0.000865
32 0.000872
33 0.000881
34 0.000873
35 0.000866
36 0.000858
37 0.000850
38 0.000846
39 0.000853
40 0.000852
41 0.000851
42 0.000849
43 0.000851
44 0.000845
45 0.000822
46 0.000795
47 0.000782
48 0.000763
49 0.000737
50 0.000719
51 0.000700
52 0.000690
53 0.000677
54 0.000669
55 0.000661
56 0.000657
57 0.000654
58 0.000657
59 0.000659
60 0.000655
61 0.000652
62 0.000653
63 0.000665
64 0.000667
65 0.000672
66 0.000662
67 0.000670
68 0.000684
69 0.000689
70 0.000699
71 0.000697
72 0.000708
73 0.000717
74 0.000731
75 0.000734
76 0.000735
77 0.000733
78 0.000727
79 0.000714
80 0.000707
81 0.000707
82 0.000714
83 0.000723
84 0.000741
85 0.000724
86 0.000718
87 0.000705
88 0.000695
89 0.000684
90 0.000667
91 0.000668
92 0.000667
93 0.000669
94 0.000668
95 0.000669
96 0.000677
97 0.000684
98 0.000680
99 0.000675
100 0.000673
101 0.000675
102 0.000672
103 0.000670
104 0.000673
105 0.000678
106 0.000681
107 0.000686
108 0.000700
109 0.000710
110 0.000719
111 0.000720
112 0.000714
113 0.000700
114 0.000684
115 0.000667
116 0.000659
117 0.000662
118 0.000661
119 0.000651
120 0.000645
121 0.000641
122 0.000634
123 0.000631
124 0.000633
125 0.000640
126 0.000648
127 0.000658
128 0.000665
129 0.000673
130 0.000671
131 0.000674
132 0.000675
133 0.000685
134 0.000675
135 0.000682
136 0.000675
137 0.000682
138 0.000683
139 0.000679
140 0.000673
141 0.000672
142 0.000661
143 0.000653
144 0.000639
145 0.000623
146 0.000615
147 0.000608
148 0.000593
149 0.000586
150 0.000578
151 0.000586
152 0.000597
153 0.000596
154 0.000591
155 0.000578
156 0.000583
157 0.000578
158 0.000584
159 0.000580
160 0.000586
161 0.000588
162 0.000574
163 0.000564
164 0.000562
165 0.000560
166 0.000563
167 0.000556
168 0.000556
169 0.000550
170 0.000549
171 0.000545
172 0.000558
173 0.000559
174 0.000569
175 0.000587
176 0.000604
177 0.000613
178 0.000621
179 0.000636
180 0.000648
181 0.000654
182 0.000648
183 0.000640
184 0.000628
185 0.000621
186 0.000608
187 0.000592
188 0.000570
189 0.000561
190 0.000540
191 0.000528
192 0.000526
193 0.000520
194 0.000522
195 0.000541
196 0.000552
197 0.000555
198 0.000555
199 0.000557
200 0.000557
201 0.000556
202 0.000552
203 0.000551
204 0.000552
205 0.000559
206 0.000568
207 0.000564
208 0.000554
209 0.000553
210 0.000548
211 0.000552
212 0.000556
213 0.000556
214 0.000554
215 0.000559
216 0.000567
217 0.000573
218 0.000567
219 0.000568
220 0.000573
221 0.000580
222 0.000575
223 0.000560
224 0.000553
225 0.000538
226 0.000529
227 0.000511
228 0.000506
229 0.000504
230 0.000500
231 0.000490
232 0.000484
233 0.000483
234 0.000489
235 0.000504
236 0.000528
237 0.000544
238 0.000561
239 0.000581
240 0.000601
241 0.000607
242 0.000602
243 0.000593
244 0.000588
245 0.000581
246 0.000555
247 0.000546
248 0.000539
249 0.000537
