# i correlation
1 0.001882
2 0.001757
3 0.001654
4 0.001556
5 0.001465
6 0.001384
7 0.001302
8 0.001245
9 0.001204
10 0.001174
11 0.001143
12 0.001117
13 0.001095
14 0.001070
15 0.001056
16 0.001042
17 0.001044
18 0.001048
19 0.001044
20 0.001046
21 0.001048
22 0.001033
23 0.001007
24 0.000984
25 0.000962
26 0.000925
27 0.000893
28 0.000872
29 0.000839
30 0.000816
31 0.000807
32 0.000817
33 0.000826
34 0.000838
35 0.000856
36 0.000874
37 0.000889
38 0.000901
39 0.000914
40 0.000919
41 0.000924
42 0.000935
43 0.000946
44 0.000960
45 0.000975
46 0.000982
47 0.000990
48 0.000994
49 0.001000
50 0.000988
51 0.000969
52 0.000952
53 0.000938
54 0.000925
55 0.000918
56 0.000898
57 0.000887
58 0.000889
59 0.000888
60 0.000893
61 0.000901
62 0.000900
63 0.000906
64 0.000911
65 0.000909
66 0.000917
67 0.000925
68 0.000919
69 0.000914
70 0.000906
71 0.000890
72 0.000876
73 0.000858
74 0.000851
75 0.000837
76 0.000822
77 0.000805
78 0.000781
79 0.000747
80 0.000731
81 0.000710
82 0.000691
83 0.000676
84 0.000669
85 0.000676
86 0.000698
87 0.000711
88 0.000713
89 0.000716
90 0.000713
91 0.000705
92 0.000707
93 0.000705
94 0.000710
95 0.000724
96 0.000718
97 0.000712
98 0.000717
99 0.000711
100 0.000698
101 0.000685
102 0.000663
103 0.000649
104 0.000649
105 0.000634
106 0.000625
107 0.000631
108 0.000642
109 0.000648
110 0.000656
111 0.000666
112 0.000672
113 0.000683
114 0.000692
115 0.000690
116 0.000690
117 0.000689
118 0.000672
119 0.000677
120 0.000668
121 0.000664
122 0.000661
123 0.000650
124 0.000628
125 0.000610
126 0.000605
127 0.000599
128 0.000594
129 0.000591
130 0.000578
131 0.000570
132 0.000570
133 0.000573
134 0.000570
135 0.000561
136 0.000579
137 0.000590
138 0.000598
139 0.000600
140 0.000601
141 0.000598
142 0.000590
143 0.000585
144 0.000582
145 0.000577
146 0.000572
147 0.000569
148 0.000550
149 0.000535
150 0.000537
151 0.000533
152 0.000527
153 0.000529
154 0.000542
155 0.000555
156 0.000572
157 0.000571
158 0.000579
159 0.000591
160 0.000596
161 0.000612
162 0.000621
163 0.000621
164 0.000632
165 0.000635
166 0.000642
167 0.000649
168 0.000664
169 0.000677
170 0.000693
171 0.000713
172 0.000734
173 0.000748
174 0.000756
175 0.000756
176 0.000743
177 0.000732
178 0.000721
179 0.000724
180 0.000728
181 0.000727
182 0.000724
183 0.000718
184 0.000718
185 0.000713
186 0.000705
187 0.000695
188 0.000676
189 0.000671
190 0.000671
191 0.000660
192 0.000639
193 0.000621
194 0.000613
195 0.000607
196 0.000601
197 0.000606
198 0.000606
199 0.000608
200 0.000607
201 0.000604
202 0.000599
203 0.000599
204 0.000595
205 0.000591
206 0.000589
207 0.000593
208 0.000610
209 0.000622
210 0.000613
211 0.000603
212 0.000589
213 0.000562
214 0.000552
215 0.000546
216 0.000532
217 0.000536
218 0.000541
219 0.000553
220 0.000555
221 0.000560
222 0.000569
223 0.000579
224 0.000582
225 0.000585
226 0.000581
227 0.000582
228 0.000579
229 0.000587
230 0.000580
231 0.000570
232 0.000552
233 0.000542
234 0.000543
235 0.000535
236 0.000534
237 0.000528
238 0.000512
239 0.000499
240 0.000500
241 0.000504
242 0.000513
243 0.000518
244 0.000524
245 0.000539
246 0.000560
247 0.000578
248 0.000604
249 0.000615
