# i correlation
1 0.001747
2 0.001619
3 0.001517
4 0.001443
5 0.001387
6 0.001348
7 0.001326
8 0.001315
9 0.001285
10 0.001258
11 0.001239
12 0.001224
13 0.001209
14 0.001198
15 0.001188
16 0.001181
17 0.001177
18 0.001166
19 0.001158
20 0.001138
21 0.001120
22 0.001093
23 0.001063
24 0.001044
25 0.001045
26 0.001052
27 0.001054
28 0.001045
29 0.001039
30 0.001030
31 0.001016
32 0.001011
33 0.001011
34 0.001011
35 0.001005
36 0.000987
37 0.000962
38 0.000925
39 0.000888
40 0.000860
41 0.000843
42 0.000845
43 0.000844
44 0.000844
45 0.000841
46 0.000837
47 0.000828
48 0.000814
49 0.000807
50 0.000796
51 0.000777
52 0.000764
53 0.000766
54 0.000753
55 0.000747
56 0.000737
57 0.000729
58 0.000721
59 0.000722
60 0.000728
61 0.000740
62 0.000751
63 0.000747
64 0.000758
65 0.000759
66 0.000747
67 0.000740
68 0.000734
69 0.000737
70 0.000734
71 0.000737
72 0.000749
73 0.000760
74 0.000770
75 0.000765
76 0.000764
77 0.000751
78 0.000745
79 0.000739
80 0.000746
81 0.000751
82 0.000769
83 0.000778
84 0.000760
85 0.000748
86 0.000736
87 0.000737
88 0.000738
89 0.000728
90 0.000726
91 0.000733
92 0.000738
93 0.000737
94 0.000738
95 0.000748
96 0.000757
97 0.000761
98 0.000754
99 0.000738
100 0.000730
101 0.000737
102 0.000737
103 0.000740
104 0.000743
105 0.000747
106 0.000754
107 0.000759
108 0.000751
109 0.000755
110 0.000740
111 0.000736
112 0.000720
113 0.000704
114 0.000703
115 0.000717
116 0.000727
117 0.000738
118 0.000740
119 0.000732
120 0.000727
121 0.000710
122 0.000709
123 0.000719
124 0.000729
125 0.000733
126 0.000731
127 0.000728
128 0.000720
129 0.000716
130 0.000719
131 0.000723
132 0.000708
133 0.000694
134 0.000684
135 0.000678
136 0.000665
137 0.000667
138 0.000668
139 0.000664
140 0.000660
141 0.000670
142 0.000685
143 0.000697
144 0.000709
145 0.000715
146 0.000712
147 0.000707
148 0.000684
149 0.000677
150 0.000673
151 0.000665
152 0.000659
153 0.000649
154 0.000640
155 0.000637
156 0.000648
157 0.000651
158 0.000657
159 0.000664
160 0.000665
161 0.000671
162 0.000686
163 0.000695
164 0.000697
165 0.000686
166 0.000669
167 0.000655
168 0.000641
169 0.000631
170 0.000631
171 0.000640
172 0.000650
173 0.000665
174 0.000657
175 0.000641
176 0.000631
177 0.000621
178 0.000628
179 0.000646
180 0.000667
181 0.000680
182 0.000680
183 0.000676
184 0.000668
185 0.000652
186 0.000627
187 0.000618
188 0.000608
189 0.000612
190 0.000617
191 0.000630
192 0.000650
193 0.000658
194 0.000662
195 0.000661
196 0.000656
197 0.000652
198 0.000659
199 0.000677
200 0.000684
201 0.000677
202 0.000669
203 0.000666
204 0.000662
205 0.000661
206 0.000662
207 0.000673
208 0.000676
209 0.000673
210 0.000652
211 0.000642
212 0.000634
213 0.000633
214 0.000620
215 0.000608
216 0.000594
217 0.000590
218 0.000589
219 0.000590
220 0.000583
221 0.000568
222 0.000557
223 0.000552
224 0.000545
225 0.000548
226 0.000566
227 0.000586
228 0.000607
229 0.000615
230 0.000608
231 0.000598
232 0.000601
233 0.000603
234 0.000609
235 0.000615
236 0.000622
237 0.000622
238 0.000633
239 0.000635
240 0.000634
241 0.000627
242 0.000616
243 0.000609
244 0.000612
245 0.000613
246 0.000617
247 0.000618
248 0.000616
249 0.000609
