# i correlation
1 0.002123
2 0.002002
3 0.001900
4 0.001829
5 0.001758
6 0.001691
7 0.001624
8 0.001565
9 0.001507
10 0.001450
11 0.001416
12 0.001387
13 0.001360
14 0.001318
15 0.001286
16 0.001272
17 0.001258
18 0.001235
19 0.001214
20 0.001205
21 0.001186
22 0.001173
23 0.001150
24 0.001130
25 0.001110
26 0.001098
27 0.001082
28 0.001078
29 0.001076
30 0.001076
31 0.001074
32 0.001076
33 0.001087
34 0.001112
35 0.001134
36 0.001148
37 0.001138
38 0.001125
39 0.001121
40 0.001135
41 0.001150
42 0.001155
43 0.001145
44 0.001142
45 0.001143
46 0.001145
47 0.001146
48 0.001138
49 0.001136
50 0.001127
51 0.001113
52 0.001107
53 0.001106
54 0.001101
55 0.001087
56 0.001082
57 0.001074
58 0.001065
59 0.001041
60 0.001024
61 0.001000
62 0.001001
63 0.000999
64 0.001004
65 0.001004
66 0.001001
67 0.000988
68 0.000968
69 0.000965
70 0.000976
71 0.000983
72 0.000987
73 0.000997
74 0.001007
75 0.001023
76 0.001029
77 0.001033
78 0.001046
79 0.001056
80 0.001062
81 0.001063
82 0.001068
83 0.001061
84 0.001065
85 0.001066
86 0.001067
87 0.001066
88 0.001061
89 0.001064
90 0.001073
91 0.001078
92 0.001088
93 0.001100
94 0.001104
95 0.001093
96 0.001078
97 0.001058
98 0.001058
99 0.001055
100 0.001051
101 0.001049
102 0.001041
103 0.001026
104 0.001022
105 0.001026
106 0.001038
107 0.001039
108 0.001023
109 0.001006
110 0.000996
111 0.000983
112 0.000970
113 0.000963
114 0.000957
115 0.000936
116 0.000918
117 0.000891
118 0.000871
119 0.000857
120 0.000855
121 0.000845
122 0.000840
123 0.000823
124 0.000807
125 0.000796
126 0.000795
127 0.000796
128 0.000796
129 0.000779
130 0.000763
131 0.000756
132 0.000749
133 0.000725
134 0.000705
135 0.000690
136 0.000679
137 0.000661
138 0.000642
139 0.000635
140 0.000643
141 0.000647
142 0.000649
143 0.000646
144 0.000644
145 0.000638
146 0.000639
147 0.000656
148 0.000683
149 0.000699
150 0.000707
151 0.000705
152 0.000692
153 0.000678
154 0.000667
155 0.000667
156 0.000677
157 0.000691
158 0.000701
159 0.000691
160 0.000689
161 0.000679
162 0.000669
163 0.000665
164 0.000668
165 0.000665
166 0.000659
167 0.000658
168 0.000665
169 0.000669
170 0.000669
171 0.000672
172 0.000672
173 0.000667
174 0.000660
175 0.000649
176 0.000637
177 0.000620
178 0.000603
179 0.000575
180 0.000558
181 0.000545
182 0.000528
183 0.000511
184 0.000503
185 0.000505
186 0.000517
187 0.000512
188 0.000510
189 0.000508
190 0.000515
191 0.000523
192 0.000545
193 0.000561
194 0.000563
195 0.000560
196 0.000548
197 0.000550
198 0.000557
199 0.000568
200 0.000578
201 0.000585
202 0.000580
203 0.000582
204 0.000584
205 0.000584
206 0.000589
207 0.000592
208 0.000585
209 0.000576
210 0.000575
211 0.000580
212 0.000589
213 0.000597
214 0.000599
215 0.000588
216 0.000567
217 0.000546
218 0.000518
219 0.000486
220 0.000475
221 0.000455
222 0.000435
223 0.000425
224 0.000415
225 0.000401
226 0.000388
227 0.000379
228 0.000379
229 0.000373
230 0.000370
231 0.000363
232 0.000359
233 0.000359
234 0.000357
235 0.000358
236 0.000363
237 0.000372
238 0.000371
239 0.000363
240 0.000360
241 0.000360
242 0.000375
243 0.000380
244 0.000391
245 0.000398
246 0.000403
247 0.000416
248 0.000442
249 0.000457
