# i correlation
1 0.001269
2 0.001227
3 0.001189
4 0.001157
5 0.001128
6 0.001106
7 0.001091
8 0.001080
9 0.001068
10 0.001057
11 0.001048
12 0.001040
13 0.001037
14 0.001033
15 0.001027
16 0.001017
17 0.001008
18 0.001000
19 0.000993
20 0.000991
21 0.000990
22 0.000989
23 0.000988
24 0.000983
25 0.000979
26 0.000970
27 0.000960
28 0.000953
29 0.000945
30 0.000941
31 0.000936
32 0.000930
33 0.000926
34 0.000922
35 0.000920
36 0.000919
37 0.000913
38 0.000906
39 0.000899
40 0.000894
41 0.000886
42 0.000881
43 0.000875
44 0.000871
45 0.000865
46 0.000857
47 0.000849
48 0.000842
49 0.000836
50 0.000830
51 0.000824
52 0.000818
53 0.000813
54 0.000805
55 0.000804
56 0.000805
57 0.000808
58 0.000808
59 0.000809
60 0.000810
61 0.000812
62 0.000808
63 0.000802
64 0.000795
65 0.000788
66 0.000784
67 0.000781
68 0.000779
69 0.000780
70 0.000782
71 0.000778
72 0.000771
73 0.000769
74 0.000765
75 0.000764
76 0.000760
77 0.000756
78 0.000753
79 0.000750
80 0.000751
81 0.000746
82 0.000742
83 0.000742
84 0.000736
85 0.000727
86 0.000719
87 0.000716
88 0.000714
89 0.000716
90 0.000721
91 0.000722
92 0.000725
93 0.000728
94 0.000730
95 0.000732
96 0.000727
97 0.000728
98 0.000728
99 0.000730
100 0.000730
101 0.000732
102 0.000733
103 0.000733
104 0.000730
105 0.000732
106 0.000731
107 0.000727
108 0.000724
109 0.000723
110 0.000721
111 0.000715
112 0.000713
113 0.000712
114 0.000711
115 0.000708
116 0.000705
117 0.000699
118 0.000694
119 0.000692
120 0.000692
121 0.000689
122 0.000685
123 0.000687
124 0.000687
125 0.000683
126 0.000679
127 0.000675
128 0.000672
129 0.000669
130 0.000668
131 0.000671
132 0.000670
133 0.000668
134 0.000666
135 0.000664
136 0.000665
137 0.000667
138 0.000668
139 0.000670
140 0.000666
141 0.000663
142 0.000660
143 0.000658
144 0.000652
145 0.000647
146 0.000645
147 0.000642
148 0.000640
149 0.000636
150 0.000630
151 0.000626
152 0.000624
153 0.000621
154 0.000618
155 0.000613
156 0.000609
157 0.000607
158 0.000604
159 0.000603
160 0.000605
161 0.000605
162 0.000606
163 0.000608
164 0.000610
165 0.000614
166 0.000612
167 0.000611
168 0.000610
169 0.000613
170 0.000614
171 0.000611
172 0.000612
173 0.000607
174 0.000606
175 0.000603
176 0.000602
177 0.000600
178 0.000598
179 0.000594
180 0.000591
181 0.000589
182 0.000587
183 0.000587
184 0.000591
185 0.000593
186 0.000594
187 0.000592
188 0.000589
189 0.000585
190 0.000579
191 0.000571
192 0.000569
193 0.000566
194 0.000563
195 0.000562
196 0.000558
197 0.000550
198 0.000541
199 0.000540
200 0.000542
201 0.000539
202 0.000533
203 0.000530
204 0.000527
205 0.000524
206 0.000519
207 0.000515
208 0.000510
209 0.000504
210 0.000497
211 0.000489
212 0.000489
213 0.000489
214 0.000491
215 0.000490
216 0.000490
217 0.000488
218 0.000488
219 0.000486
220 0.000482
221 0.000483
222 0.000481
223 0.000479
224 0.000478
225 0.000478
226 0.000484
227 0.000490
228 0.000496
229 0.000503
230 0.000503
231 0.000503
232 0.000504
233 0.000504
234 0.000499
235 0.000501
236 0.000500
237 0.000501
238 0.000498
239 0.000495
240 0.000490
241 0.000491
242 0.000491
243 0.000491
244 0.000489
245 0.000490
246 0.000488
247 0.000483
248 0.000476
249 0.000473
