# i correlation
1 0.001587
2 0.001548
3 0.001512
4 0.001484
5 0.001461
6 0.001444
7 0.001432
8 0.001422
9 0.001413
10 0.001405
11 0.001399
12 0.001394
13 0.001388
14 0.001382
15 0.001377
16 0.001371
17 0.001366
18 0.001360
19 0.001355
20 0.001350
21 0.001342
22 0.001332
23 0.001320
24 0.001308
25 0.001296
26 0.001289
27 0.001283
28 0.001279
29 0.001274
30 0.001268
31 0.001265
32 0.001254
33 0.001247
34 0.001239
35 0.001230
36 0.001220
37 0.001214
38 0.001209
39 0.001204
40 0.001197
41 0.001190
42 0.001182
43 0.001173
44 0.001168
45 0.001161
46 0.001154
47 0.001147
48 0.001138
49 0.001129
50 0.001121
51 0.001116
52 0.001110
53 0.001103
54 0.001099
55 0.001096
56 0.001092
57 0.001089
58 0.001084
59 0.001080
60 0.001074
61 0.001070
62 0.001065
63 0.001063
64 0.001061
65 0.001058
66 0.001057
67 0.001056
68 0.001053
69 0.001048
70 0.001044
71 0.001041
72 0.001040
73 0.001034
74 0.001029
75 0.001024
76 0.001017
77 0.001015
78 0.001014
79 0.001015
80 0.001018
81 0.001018
82 0.001018
83 0.001019
84 0.001019
85 0.001018
86 0.001013
87 0.001010
88 0.001006
89 0.001003
90 0.001004
91 0.001002
92 0.001002
93 0.000999
94 0.000996
95 0.000996
96 0.000996
97 0.000994
98 0.000993
99 0.000990
100 0.000986
101 0.000984
102 0.000978
103 0.000972
104 0.000967
105 0.000967
106 0.000965
107 0.000961
108 0.000958
109 0.000956
110 0.000959
111 0.000963
112 0.000963
113 0.000958
114 0.000952
115 0.000945
116 0.000940
117 0.000937
118 0.000936
119 0.000935
120 0.000929
121 0.000925
122 0.000921
123 0.000920
124 0.000921
125 0.000922
126 0.000920
127 0.000916
128 0.000911
129 0.000904
130 0.000899
131 0.000897
132 0.000896
133 0.000893
134 0.000889
135 0.000881
136 0.000878
137 0.000877
138 0.000875
139 0.000875
140 0.000874
141 0.000872
142 0.000867
143 0.000863
144 0.000861
145 0.000862
146 0.000862
147 0.000862
148 0.000859
149 0.000858
150 0.000855
151 0.000852
152 0.000847
153 0.000845
154 0.000842
155 0.000839
156 0.000836
157 0.000827
158 0.000819
159 0.000810
160 0.000800
161 0.000792
162 0.000786
163 0.000782
164 0.000779
165 0.000779
166 0.000776
167 0.000779
168 0.000780
169 0.000781
170 0.000780
171 0.000776
172 0.000774
173 0.000771
174 0.000766
175 0.000763
176 0.000760
177 0.000756
178 0.000752
179 0.000748
180 0.000745
181 0.000742
182 0.000741
183 0.000741
184 0.000744
185 0.000742
186 0.000739
187 0.000734
188 0.000733
189 0.000730
190 0.000725
191 0.000725
192 0.000723
193 0.000717
194 0.000710
195 0.000707
196 0.000703
197 0.000697
198 0.000691
199 0.000689
200 0.000690
201 0.000689
202 0.000691
203 0.000693
204 0.000692
205 0.000690
206 0.000687
207 0.000681
208 0.000678
209 0.000677
210 0.000677
211 0.000677
212 0.000679
213 0.000679
214 0.000678
215 0.000678
216 0.000677
217 0.000678
218 0.000677
219 0.000676
220 0.000675
221 0.000672
222 0.000672
223 0.000670
224 0.000669
225 0.000666
226 0.000661
227 0.000655
228 0.000650
229 0.000648
230 0.000649
231 0.000650
232 0.000650
233 0.000652
234 0.000653
235 0.000652
236 0.000651
237 0.000652
238 0.000651
239 0.000648
240 0.000642
241 0.000637
242 0.000634
243 0.000632
244 0.000631
245 0.000629
246 0.000626
247 0.000622
248 0.000617
249 0.000612
