# i correlation
1 0.001653
2 0.001614
3 0.001581
4 0.001549
5 0.001523
6 0.001502
7 0.001484
8 0.001467
9 0.001456
10 0.001442
11 0.001429
12 0.001417
13 0.001406
14 0.001396
15 0.001382
16 0.001369
17 0.001356
18 0.001344
19 0.001331
20 0.001322
21 0.001309
22 0.001295
23 0.001278
24 0.001262
25 0.001248
26 0.001237
27 0.001228
28 0.001220
29 0.001213
30 0.001203
31 0.001192
32 0.001181
33 0.001172
34 0.001163
35 0.001159
36 0.001154
37 0.001146
38 0.001140
39 0.001132
40 0.001124
41 0.001113
42 0.001104
43 0.001098
44 0.001093
45 0.001090
46 0.001089
47 0.001091
48 0.001092
49 0.001090
50 0.001082
51 0.001078
52 0.001072
53 0.001069
54 0.001065
55 0.001065
56 0.001065
57 0.001066
58 0.001063
59 0.001058
60 0.001053
61 0.001046
62 0.001039
63 0.001030
64 0.001024
65 0.001019
66 0.001014
67 0.001012
68 0.001009
69 0.001001
70 0.000992
71 0.000987
72 0.000982
73 0.000979
74 0.000978
75 0.000978
76 0.000976
77 0.000975
78 0.000972
79 0.000965
80 0.000956
81 0.000946
82 0.000935
83 0.000924
84 0.000917
85 0.000913
86 0.000913
87 0.000910
88 0.000910
89 0.000910
90 0.000906
91 0.000901
92 0.000896
93 0.000888
94 0.000884
95 0.000882
96 0.000882
97 0.000882
98 0.000876
99 0.000871
100 0.000866
101 0.000862
102 0.000858
103 0.000856
104 0.000854
105 0.000847
106 0.000842
107 0.000840
108 0.000840
109 0.000839
110 0.000840
111 0.000842
112 0.000842
113 0.000843
114 0.000841
115 0.000835
116 0.000828
117 0.000824
118 0.000820
119 0.000818
120 0.000815
121 0.000813
122 0.000814
123 0.000814
124 0.000815
125 0.000815
126 0.000815
127 0.000811
128 0.000805
129 0.000797
130 0.000791
131 0.000787
132 0.000786
133 0.000787
134 0.000789
135 0.000787
136 0.000788
137 0.000786
138 0.000783
139 0.000780
140 0.000771
141 0.000764
142 0.000760
143 0.000762
144 0.000764
145 0.000766
146 0.000769
147 0.000769
148 0.000770
149 0.000771
150 0.000777
151 0.000777
152 0.000785
153 0.000790
154 0.000792
155 0.000790
156 0.000790
157 0.000788
158 0.000785
159 0.000787
160 0.000785
161 0.000785
162 0.000783
163 0.000779
164 0.000774
165 0.000770
166 0.000770
167 0.000767
168 0.000770
169 0.000773
170 0.000777
171 0.000777
172 0.000777
173 0.000772
174 0.000765
175 0.000761
176 0.000755
177 0.000751
178 0.000749
179 0.000751
180 0.000749
181 0.000751
182 0.000750
183 0.000750
184 0.000748
185 0.000746
186 0.000743
187 0.000740
188 0.000735
189 0.000731
190 0.000727
191 0.000724
192 0.000722
193 0.000719
194 0.000716
195 0.000713
196 0.000706
197 0.000703
198 0.000697
199 0.000698
200 0.000700
201 0.000706
202 0.000706
203 0.000703
204 0.000699
205 0.000696
206 0.000695
207 0.000694
208 0.000695
209 0.000694
210 0.000691
211 0.000691
212 0.000692
213 0.000690
214 0.000690
215 0.000685
216 0.000680
217 0.000677
218 0.000673
219 0.000669
220 0.000663
221 0.000663
222 0.000660
223 0.000655
224 0.000649
225 0.000639
226 0.000633
227 0.000628
228 0.000628
229 0.000625
230 0.000625
231 0.000623
232 0.000621
233 0.000617
234 0.000613
235 0.000609
236 0.000608
237 0.000607
238 0.000605
239 0.000605
240 0.000602
241 0.000602
242 0.000597
243 0.000591
244 0.000586
245 0.000580
246 0.000578
247 0.000575
248 0.000573
249 0.000572
