# i correlation
1 0.001827
2 0.001785
3 0.001748
4 0.001720
5 0.001696
6 0.001677
7 0.001663
8 0.001649
9 0.001636
10 0.001626
11 0.001616
12 0.001605
13 0.001596
14 0.001586
15 0.001574
16 0.001561
17 0.001552
18 0.001542
19 0.001532
20 0.001523
21 0.001511
22 0.001504
23 0.001500
24 0.001495
25 0.001488
26 0.001478
27 0.001467
28 0.001452
29 0.001437
30 0.001423
31 0.001410
32 0.001398
33 0.001392
34 0.001386
35 0.001380
36 0.001370
37 0.001365
38 0.001355
39 0.001346
40 0.001338
41 0.001329
42 0.001324
43 0.001316
44 0.001313
45 0.001319
46 0.001321
47 0.001320
48 0.001315
49 0.001309
50 0.001308
51 0.001306
52 0.001300
53 0.001291
54 0.001284
55 0.001280
56 0.001273
57 0.001269
58 0.001264
59 0.001260
60 0.001253
61 0.001250
62 0.001244
63 0.001240
64 0.001236
65 0.001232
66 0.001223
67 0.001214
68 0.001205
69 0.001195
70 0.001187
71 0.001179
72 0.001178
73 0.001172
74 0.001164
75 0.001155
76 0.001152
77 0.001151
78 0.001150
79 0.001147
80 0.001144
81 0.001139
82 0.001137
83 0.001136
84 0.001136
85 0.001137
86 0.001137
87 0.001138
88 0.001141
89 0.001141
90 0.001140
91 0.001134
92 0.001126
93 0.001117
94 0.001107
95 0.001098
96 0.001095
97 0.001094
98 0.001091
99 0.001090
100 0.001093
101 0.001096
102 0.001095
103 0.001093
104 0.001089
105 0.001083
106 0.001078
107 0.001077
108 0.001071
109 0.001066
110 0.001062
111 0.001058
112 0.001055
113 0.001053
114 0.001052
115 0.001052
116 0.001048
117 0.001044
118 0.001043
119 0.001042
120 0.001037
121 0.001030
122 0.001024
123 0.001021
124 0.001023
125 0.001022
126 0.001018
127 0.001018
128 0.001016
129 0.001014
130 0.001012
131 0.001010
132 0.001008
133 0.001007
134 0.001005
135 0.001003
136 0.000999
137 0.000995
138 0.000994
139 0.000990
140 0.000987
141 0.000987
142 0.000986
143 0.000984
144 0.000982
145 0.000980
146 0.000978
147 0.000974
148 0.000975
149 0.000972
150 0.000964
151 0.000958
152 0.000956
153 0.000953
154 0.000951
155 0.000948
156 0.000945
157 0.000945
158 0.000946
159 0.000944
160 0.000942
161 0.000941
162 0.000938
163 0.000933
164 0.000930
165 0.000927
166 0.000923
167 0.000918
168 0.000917
169 0.000915
170 0.000910
171 0.000904
172 0.000898
173 0.000890
174 0.000882
175 0.000876
176 0.000869
177 0.000863
178 0.000858
179 0.000857
180 0.000854
181 0.000851
182 0.000851
183 0.000853
184 0.000848
185 0.000845
186 0.000841
187 0.000837
188 0.000836
189 0.000832
190 0.000828
191 0.000824
192 0.000821
193 0.000820
194 0.000816
195 0.000815
196 0.000815
197 0.000816
198 0.000814
199 0.000814
200 0.000812
201 0.000808
202 0.000806
203 0.000807
204 0.000810
205 0.000813
206 0.000812
207 0.000811
208 0.000811
209 0.000810
210 0.000808
211 0.000805
212 0.000806
213 0.000809
214 0.000807
215 0.000808
216 0.000810
217 0.000809
218 0.000808
219 0.000804
220 0.000805
221 0.000802
222 0.000799
223 0.000797
224 0.000793
225 0.000790
226 0.000787
227 0.000784
228 0.000781
229 0.000779
230 0.000777
231 0.000773
232 0.000768
233 0.000762
234 0.000760
235 0.000759
236 0.000751
237 0.000745
238 0.000736
239 0.000725
240 0.000712
241 0.000700
242 0.000693
243 0.000687
244 0.000682
245 0.000680
246 0.000681
247 0.000683
248 0.000683
249 0.000685
