# i correlation
1 0.001899
2 0.001857
3 0.001821
4 0.001789
5 0.001764
6 0.001743
7 0.001724
8 0.001712
9 0.001696
10 0.001684
11 0.001675
12 0.001668
13 0.001663
14 0.001660
15 0.001650
16 0.001640
17 0.001631
18 0.001618
19 0.001607
20 0.001595
21 0.001585
22 0.001577
23 0.001565
24 0.001555
25 0.001546
26 0.001534
27 0.001525
28 0.001517
29 0.001510
30 0.001503
31 0.001491
32 0.001486
33 0.001477
34 0.001471
35 0.001461
36 0.001450
37 0.001442
38 0.001432
39 0.001421
40 0.001413
41 0.001406
42 0.001404
43 0.001394
44 0.001381
45 0.001372
46 0.001364
47 0.001356
48 0.001352
49 0.001352
50 0.001352
51 0.001350
52 0.001348
53 0.001344
54 0.001338
55 0.001332
56 0.001325
57 0.001322
58 0.001317
59 0.001311
60 0.001302
61 0.001292
62 0.001281
63 0.001273
64 0.001259
65 0.001250
66 0.001244
67 0.001235
68 0.001222
69 0.001213
70 0.001205
71 0.001199
72 0.001194
73 0.001184
74 0.001174
75 0.001162
76 0.001150
77 0.001138
78 0.001123
79 0.001114
80 0.001107
81 0.001100
82 0.001094
83 0.001090
84 0.001087
85 0.001085
86 0.001081
87 0.001074
88 0.001065
89 0.001055
90 0.001046
91 0.001040
92 0.001033
93 0.001024
94 0.001013
95 0.001010
96 0.001005
97 0.001002
98 0.000998
99 0.000994
100 0.000990
101 0.000985
102 0.000979
103 0.000977
104 0.000970
105 0.000963
106 0.000958
107 0.000949
108 0.000942
109 0.000940
110 0.000935
111 0.000935
112 0.000935
113 0.000934
114 0.000932
115 0.000929
116 0.000927
117 0.000929
118 0.000928
119 0.000929
120 0.000929
121 0.000928
122 0.000927
123 0.000923
124 0.000919
125 0.000917
126 0.000910
127 0.000904
128 0.000899
129 0.000892
130 0.000887
131 0.000880
132 0.000874
133 0.000871
134 0.000868
135 0.000864
136 0.000859
137 0.000853
138 0.000850
139 0.000850
140 0.000847
141 0.000840
142 0.000834
143 0.000826
144 0.000822
145 0.000820
146 0.000814
147 0.000814
148 0.000815
149 0.000815
150 0.000811
151 0.000804
152 0.000799
153 0.000794
154 0.000791
155 0.000789
156 0.000789
157 0.000793
158 0.000794
159 0.000793
160 0.000788
161 0.000787
162 0.000791
163 0.000794
164 0.000791
165 0.000787
166 0.000787
167 0.000786
168 0.000785
169 0.000789
170 0.000793
171 0.000798
172 0.000802
173 0.000803
174 0.000804
175 0.000802
176 0.000801
177 0.000797
178 0.000791
179 0.000790
180 0.000786
181 0.000786
182 0.000792
183 0.000795
184 0.000800
185 0.000806
186 0.000805
187 0.000807
188 0.000807
189 0.000806
190 0.000803
191 0.000804
192 0.000801
193 0.000797
194 0.000790
195 0.000786
196 0.000783
197 0.000782
198 0.000784
199 0.000788
200 0.000790
201 0.000792
202 0.000787
203 0.000786
204 0.000783
205 0.000779
206 0.000772
207 0.000767
208 0.000759
209 0.000749
210 0.000743
211 0.000737
212 0.000737
213 0.000735
214 0.000734
215 0.000730
216 0.000727
217 0.000724
218 0.000725
219 0.000725
220 0.000726
221 0.000725
222 0.000725
223 0.000728
224 0.000735
225 0.000739
226 0.000744
227 0.000747
228 0.000748
229 0.000751
230 0.000754
231 0.000761
232 0.000764
233 0.000766
234 0.000768
235 0.000768
236 0.000766
237 0.000765
238 0.000764
239 0.000760
240 0.000757
241 0.000759
242 0.000760
243 0.000757
244 0.000754
245 0.000756
246 0.000757
247 0.000753
248 0.000756
249 0.000757
