# i correlation
1 0.001780
2 0.001737
3 0.001697
4 0.001665
5 0.001638
6 0.001615
7 0.001592
8 0.001573
9 0.001558
10 0.001543
11 0.001524
12 0.001510
13 0.001493
14 0.001476
15 0.001461
16 0.001446
17 0.001433
18 0.001421
19 0.001415
20 0.001412
21 0.001408
22 0.001403
23 0.001402
24 0.001397
25 0.001397
26 0.001395
27 0.001391
28 0.001382
29 0.001370
30 0.001355
31 0.001344
32 0.001337
33 0.001328
34 0.001325
35 0.001320
36 0.001320
37 0.001320
38 0.001320
39 0.001319
40 0.001319
41 0.001317
42 0.001311
43 0.001301
44 0.001295
45 0.001289
46 0.001284
47 0.001284
48 0.001284
49 0.001279
50 0.001275
51 0.001270
52 0.001262
53 0.001255
54 0.001255
55 0.001251
56 0.001248
57 0.001239
58 0.001231
59 0.001226
60 0.001224
61 0.001221
62 0.001217
63 0.001211
64 0.001204
65 0.001200
66 0.001192
67 0.001187
68 0.001181
69 0.001172
70 0.001169
71 0.001168
72 0.001162
73 0.001155
74 0.001149
75 0.001142
76 0.001133
77 0.001123
78 0.001113
79 0.001107
80 0.001099
81 0.001093
82 0.001087
83 0.001083
84 0.001078
85 0.001075
86 0.001071
87 0.001069
88 0.001067
89 0.001065
90 0.001062
91 0.001064
92 0.001064
93 0.001064
94 0.001060
95 0.001056
96 0.001050
97 0.001041
98 0.001036
99 0.001034
100 0.001029
101 0.001019
102 0.001011
103 0.001002
104 0.000992
105 0.000982
106 0.000974
107 0.000963
108 0.000956
109 0.000950
110 0.000944
111 0.000939
112 0.000936
113 0.000932
114 0.000926
115 0.000917
116 0.000912
117 0.000905
118 0.000898
119 0.000894
120 0.000890
121 0.000889
122 0.000885
123 0.000880
124 0.000873
125 0.000869
126 0.000865
127 0.000858
128 0.000856
129 0.000856
130 0.000855
131 0.000859
132 0.000860
133 0.000863
134 0.000863
135 0.000863
136 0.000860
137 0.000850
138 0.000838
139 0.000828
140 0.000819
141 0.000813
142 0.000811
143 0.000810
144 0.000806
145 0.000803
146 0.000799
147 0.000792
148 0.000782
149 0.000774
150 0.000766
151 0.000760
152 0.000756
153 0.000752
154 0.000747
155 0.000739
156 0.000734
157 0.000731
158 0.000734
159 0.000730
160 0.000730
161 0.000727
162 0.000727
163 0.000729
164 0.000726
165 0.000717
166 0.000709
167 0.000705
168 0.000699
169 0.000692
170 0.000689
171 0.000685
172 0.000683
173 0.000684
174 0.000684
175 0.000682
176 0.000681
177 0.000679
178 0.000674
179 0.000670
180 0.000667
181 0.000665
182 0.000665
183 0.000666
184 0.000667
185 0.000668
186 0.000666
187 0.000665
188 0.000661
189 0.000655
190 0.000650
191 0.000644
192 0.000638
193 0.000627
194 0.000614
195 0.000601
196 0.000594
197 0.000587
198 0.000581
199 0.000576
200 0.000571
201 0.000567
202 0.000562
203 0.000555
204 0.000549
205 0.000544
206 0.000538
207 0.000533
208 0.000533
209 0.000532
210 0.000531
211 0.000530
212 0.000534
213 0.000537
214 0.000542
215 0.000548
216 0.000551
217 0.000558
218 0.000558
219 0.000555
220 0.000553
221 0.000548
222 0.000543
223 0.000547
224 0.000549
225 0.000551
226 0.000554
227 0.000555
228 0.000557
229 0.000559
230 0.000558
231 0.000557
232 0.000556
233 0.000553
234 0.000553
235 0.000554
236 0.000555
237 0.000553
238 0.000557
239 0.000558
240 0.000561
241 0.000561
242 0.000562
243 0.000559
244 0.000557
245 0.000557
246 0.000557
247 0.000556
248 0.000549
249 0.000542
