# i correlation
1 0.001590
2 0.001547
3 0.001507
4 0.001470
5 0.001442
6 0.001419
7 0.001394
8 0.001371
9 0.001352
10 0.001335
11 0.001316
12 0.001304
13 0.001295
14 0.001286
15 0.001279
16 0.001274
17 0.001271
18 0.001269
19 0.001266
20 0.001263
21 0.001261
22 0.001256
23 0.001249
24 0.001245
25 0.001241
26 0.001239
27 0.001238
28 0.001237
29 0.001232
30 0.001232
31 0.001230
32 0.001225
33 0.001218
34 0.001212
35 0.001211
36 0.001213
37 0.001211
38 0.001206
39 0.001199
40 0.001187
41 0.001179
42 0.001173
43 0.001169
44 0.001164
45 0.001163
46 0.001158
47 0.001154
48 0.001151
49 0.001151
50 0.001148
51 0.001142
52 0.001141
53 0.001139
54 0.001136
55 0.001130
56 0.001128
57 0.001125
58 0.001124
59 0.001122
60 0.001118
61 0.001110
62 0.001108
63 0.001107
64 0.001107
65 0.001105
66 0.001104
67 0.001101
68 0.001098
69 0.001092
70 0.001091
71 0.001088
72 0.001086
73 0.001079
74 0.001073
75 0.001062
76 0.001052
77 0.001043
78 0.001037
79 0.001029
80 0.001025
81 0.001021
82 0.001018
83 0.001020
84 0.001021
85 0.001019
86 0.001015
87 0.001007
88 0.000999
89 0.000992
90 0.000984
91 0.000978
92 0.000973
93 0.000970
94 0.000967
95 0.000966
96 0.000962
97 0.000959
98 0.000956
99 0.000953
100 0.000947
101 0.000948
102 0.000954
103 0.000956
104 0.000957
105 0.000954
106 0.000950
107 0.000947
108 0.000943
109 0.000945
110 0.000946
111 0.000943
112 0.000942
113 0.000938
114 0.000935
115 0.000932
116 0.000923
117 0.000914
118 0.000903
119 0.000895
120 0.000889
121 0.000880
122 0.000871
123 0.000863
124 0.000857
125 0.000852
126 0.000845
127 0.000841
128 0.000837
129 0.000830
130 0.000824
131 0.000820
132 0.000817
133 0.000816
134 0.000815
135 0.000810
136 0.000807
137 0.000807
138 0.000810
139 0.000816
140 0.000822
141 0.000822
142 0.000825
143 0.000823
144 0.000819
145 0.000818
146 0.000819
147 0.000814
148 0.000811
149 0.000808
150 0.000803
151 0.000803
152 0.000799
153 0.000795
154 0.000792
155 0.000790
156 0.000787
157 0.000782
158 0.000780
159 0.000774
160 0.000769
161 0.000761
162 0.000757
163 0.000752
164 0.000749
165 0.000744
166 0.000740
167 0.000738
168 0.000739
169 0.000739
170 0.000742
171 0.000743
172 0.000743
173 0.000746
174 0.000743
175 0.000738
176 0.000735
177 0.000730
178 0.000729
179 0.000727
180 0.000721
181 0.000718
182 0.000715
183 0.000711
184 0.000709
185 0.000705
186 0.000699
187 0.000696
188 0.000694
189 0.000691
190 0.000688
191 0.000684
192 0.000682
193 0.000680
194 0.000673
195 0.000668
196 0.000665
197 0.000658
198 0.000655
199 0.000654
200 0.000651
201 0.000648
202 0.000647
203 0.000644
204 0.000641
205 0.000634
206 0.000626
207 0.000619
208 0.000616
209 0.000615
210 0.000613
211 0.000611
212 0.000608
213 0.000605
214 0.000605
215 0.000607
216 0.000608
217 0.000614
218 0.000616
219 0.000619
220 0.000621
221 0.000622
222 0.000628
223 0.000637
224 0.000640
225 0.000639
226 0.000639
227 0.000633
228 0.000627
229 0.000621
230 0.000615
231 0.000610
232 0.000607
233 0.000602
234 0.000600
235 0.000603
236 0.000605
237 0.000607
238 0.000609
239 0.000612
240 0.000615
241 0.000621
242 0.000632
243 0.000638
244 0.000640
245 0.000638
246 0.000634
247 0.000632
248 0.000632
249 0.000632
