# i correlation
1 0.001862
2 0.001817
3 0.001779
4 0.001746
5 0.001721
6 0.001696
7 0.001675
8 0.001652
9 0.001635
10 0.001618
11 0.001602
12 0.001585
13 0.001568
14 0.001557
15 0.001544
16 0.001532
17 0.001517
18 0.001503
19 0.001492
20 0.001487
21 0.001480
22 0.001473
23 0.001469
24 0.001466
25 0.001459
26 0.001448
27 0.001438
28 0.001430
29 0.001426
30 0.001423
31 0.001418
32 0.001415
33 0.001408
34 0.001400
35 0.001395
36 0.001387
37 0.001378
38 0.001374
39 0.001370
40 0.001365
41 0.001354
42 0.001347
43 0.001336
44 0.001328
45 0.001321
46 0.001310
47 0.001305
48 0.001298
49 0.001294
50 0.001289
51 0.001281
52 0.001278
53 0.001273
54 0.001268
55 0.001263
56 0.001260
57 0.001252
58 0.001240
59 0.001236
60 0.001234
61 0.001229
62 0.001227
63 0.001226
64 0.001224
65 0.001222
66 0.001215
67 0.001209
68 0.001198
69 0.001190
70 0.001184
71 0.001181
72 0.001177
73 0.001175
74 0.001172
75 0.001166
76 0.001167
77 0.001165
78 0.001159
79 0.001148
80 0.001135
81 0.001126
82 0.001122
83 0.001116
84 0.001112
85 0.001111
86 0.001107
87 0.001104
88 0.001098
89 0.001091
90 0.001083
91 0.001081
92 0.001080
93 0.001075
94 0.001077
95 0.001074
96 0.001072
97 0.001066
98 0.001060
99 0.001055
100 0.001051
101 0.001050
102 0.001049
103 0.001050
104 0.001048
105 0.001043
106 0.001044
107 0.001042
108 0.001044
109 0.001047
110 0.001043
111 0.001034
112 0.001026
113 0.001013
114 0.001003
115 0.000994
116 0.000986
117 0.000978
118 0.000972
119 0.000965
120 0.000959
121 0.000951
122 0.000947
123 0.000948
124 0.000942
125 0.000938
126 0.000936
127 0.000931
128 0.000928
129 0.000927
130 0.000927
131 0.000925
132 0.000924
133 0.000923
134 0.000923
135 0.000919
136 0.000916
137 0.000909
138 0.000901
139 0.000897
140 0.000890
141 0.000886
142 0.000877
143 0.000867
144 0.000855
145 0.000843
146 0.000835
147 0.000833
148 0.000834
149 0.000831
150 0.000829
151 0.000824
152 0.000817
153 0.000809
154 0.000800
155 0.000795
156 0.000791
157 0.000790
158 0.000792
159 0.000793
160 0.000790
161 0.000791
162 0.000793
163 0.000797
164 0.000797
165 0.000801
166 0.000805
167 0.000809
168 0.000814
169 0.000813
170 0.000814
171 0.000816
172 0.000824
173 0.000835
174 0.000841
175 0.000842
176 0.000838
177 0.000835
178 0.000831
179 0.000830
180 0.000826
181 0.000819
182 0.000816
183 0.000815
184 0.000814
185 0.000816
186 0.000818
187 0.000811
188 0.000802
189 0.000793
190 0.000791
191 0.000787
192 0.000783
193 0.000778
194 0.000771
195 0.000769
196 0.000769
197 0.000769
198 0.000769
199 0.000770
200 0.000771
201 0.000774
202 0.000778
203 0.000779
204 0.000779
205 0.000779
206 0.000780
207 0.000773
208 0.000769
209 0.000759
210 0.000753
211 0.000751
212 0.000750
213 0.000750
214 0.000748
215 0.000749
216 0.000746
217 0.000743
218 0.000742
219 0.000738
220 0.000729
221 0.000720
222 0.000716
223 0.000711
224 0.000709
225 0.000710
226 0.000712
227 0.000712
228 0.000706
229 0.000700
230 0.000698
231 0.000694
232 0.000688
233 0.000684
234 0.000683
235 0.000686
236 0.000689
237 0.000687
238 0.000686
239 0.000687
240 0.000690
241 0.000690
242 0.000692
243 0.000692
244 0.000693
245 0.000693
246 0.000689
247 0.000684
248 0.000677
249 0.000668
