# i correlation
1 0.001718
2 0.001679
3 0.001644
4 0.001614
5 0.001588
6 0.001564
7 0.001543
8 0.001520
9 0.001505
10 0.001490
11 0.001475
12 0.001462
13 0.001450
14 0.001441
15 0.001432
16 0.001425
17 0.001416
18 0.001403
19 0.001392
20 0.001381
21 0.001367
22 0.001351
23 0.001338
24 0.001324
25 0.001317
26 0.001310
27 0.001308
28 0.001303
29 0.001294
30 0.001286
31 0.001277
32 0.001267
33 0.001258
34 0.001252
35 0.001246
36 0.001238
37 0.001230
38 0.001230
39 0.001229
40 0.001226
41 0.001218
42 0.001217
43 0.001214
44 0.001208
45 0.001202
46 0.001195
47 0.001190
48 0.001187
49 0.001180
50 0.001175
51 0.001170
52 0.001164
53 0.001158
54 0.001154
55 0.001153
56 0.001152
57 0.001151
58 0.001149
59 0.001140
60 0.001133
61 0.001129
62 0.001124
63 0.001117
64 0.001109
65 0.001102
66 0.001091
67 0.001079
68 0.001068
69 0.001057
70 0.001050
71 0.001045
72 0.001039
73 0.001033
74 0.001025
75 0.001013
76 0.001002
77 0.000999
78 0.000998
79 0.000997
80 0.000993
81 0.000989
82 0.000990
83 0.000990
84 0.000987
85 0.000984
86 0.000983
87 0.000981
88 0.000979
89 0.000977
90 0.000972
91 0.000963
92 0.000956
93 0.000954
94 0.000952
95 0.000947
96 0.000942
97 0.000938
98 0.000934
99 0.000933
100 0.000934
101 0.000933
102 0.000928
103 0.000924
104 0.000922
105 0.000918
106 0.000917
107 0.000917
108 0.000909
109 0.000901
110 0.000893
111 0.000879
112 0.000873
113 0.000868
114 0.000864
115 0.000863
116 0.000861
117 0.000862
118 0.000859
119 0.000855
120 0.000854
121 0.000853
122 0.000849
123 0.000841
124 0.000831
125 0.000819
126 0.000806
127 0.000798
128 0.000792
129 0.000779
130 0.000764
131 0.000753
132 0.000747
133 0.000741
134 0.000733
135 0.000730
136 0.000724
137 0.000721
138 0.000717
139 0.000713
140 0.000710
141 0.000710
142 0.000709
143 0.000706
144 0.000707
145 0.000709
146 0.000708
147 0.000707
148 0.000707
149 0.000710
150 0.000712
151 0.000717
152 0.000725
153 0.000728
154 0.000730
155 0.000732
156 0.000737
157 0.000736
158 0.000732
159 0.000727
160 0.000722
161 0.000717
162 0.000713
163 0.000709
164 0.000703
165 0.000702
166 0.000701
167 0.000702
168 0.000701
169 0.000699
170 0.000696
171 0.000696
172 0.000696
173 0.000695
174 0.000691
175 0.000689
176 0.000685
177 0.000683
178 0.000678
179 0.000676
180 0.000671
181 0.000664
182 0.000657
183 0.000651
184 0.000645
185 0.000640
186 0.000636
187 0.000634
188 0.000629
189 0.000625
190 0.000622
191 0.000618
192 0.000618
193 0.000615
194 0.000613
195 0.000608
196 0.000605
197 0.000601
198 0.000596
199 0.000593
200 0.000594
201 0.000596
202 0.000600
203 0.000604
204 0.000607
205 0.000608
206 0.000612
207 0.000616
208 0.000616
209 0.000620
210 0.000624
211 0.000628
212 0.000631
213 0.000634
214 0.000634
215 0.000635
216 0.000637
217 0.000639
218 0.000638
219 0.000636
220 0.000635
221 0.000638
222 0.000642
223 0.000643
224 0.000641
225 0.000641
226 0.000635
227 0.000631
228 0.000626
229 0.000620
230 0.000615
231 0.000611
232 0.000609
233 0.000605
234 0.000601
235 0.000594
236 0.000588
237 0.000581
238 0.000574
239 0.000570
240 0.000568
241 0.000567
242 0.000566
243 0.000568
244 0.000571
245 0.000571
246 0.000573
247 0.000575
248 0.000575
249 0.000580
