# i correlation
1 0.001546
2 0.001503
3 0.001459
4 0.001421
5 0.001394
6 0.001370
7 0.001346
8 0.001325
9 0.001306
10 0.001288
11 0.001271
12 0.001253
13 0.001240
14 0.001228
15 0.001220
16 0.001214
17 0.001203
18 0.001192
19 0.001182
20 0.001174
21 0.001172
22 0.001167
23 0.001164
24 0.001158
25 0.001154
26 0.001151
27 0.001149
28 0.001146
29 0.001139
30 0.001133
31 0.001126
32 0.001119
33 0.001111
34 0.001101
35 0.001088
36 0.001076
37 0.001069
38 0.001068
39 0.001068
40 0.001068
41 0.001073
42 0.001073
43 0.001075
44 0.001079
45 0.001080
46 0.001081
47 0.001086
48 0.001089
49 0.001090
50 0.001087
51 0.001083
52 0.001079
53 0.001072
54 0.001059
55 0.001050
56 0.001041
57 0.001030
58 0.001023
59 0.001016
60 0.001008
61 0.001000
62 0.000996
63 0.000993
64 0.000991
65 0.000985
66 0.000979
67 0.000966
68 0.000952
69 0.000939
70 0.000927
71 0.000918
72 0.000910
73 0.000902
74 0.000895
75 0.000886
76 0.000879
77 0.000867
78 0.000857
79 0.000844
80 0.000835
81 0.000821
82 0.000811
83 0.000803
84 0.000797
85 0.000795
86 0.000791
87 0.000785
88 0.000781
89 0.000774
90 0.000773
91 0.000771
92 0.000771
93 0.000779
94 0.000786
95 0.000792
96 0.000797
97 0.000803
98 0.000806
99 0.000810
100 0.000813
101 0.000810
102 0.000805
103 0.000802
104 0.000802
105 0.000804
106 0.000805
107 0.000798
108 0.000793
109 0.000788
110 0.000777
111 0.000768
112 0.000759
113 0.000752
114 0.000749
115 0.000746
116 0.000744
117 0.000738
118 0.000730
119 0.000727
120 0.000715
121 0.000710
122 0.000703
123 0.000701
124 0.000698
125 0.000695
126 0.000694
127 0.000691
128 0.000688
129 0.000680
130 0.000675
131 0.000672
132 0.000672
133 0.000668
134 0.000662
135 0.000651
136 0.000644
137 0.000642
138 0.000643
139 0.000645
140 0.000646
141 0.000648
142 0.000653
143 0.000659
144 0.000667
145 0.000672
146 0.000676
147 0.000676
148 0.000670
149 0.000671
150 0.000673
151 0.000672
152 0.000673
153 0.000673
154 0.000670
155 0.000665
156 0.000661
157 0.000656
158 0.000651
159 0.000649
160 0.000650
161 0.000650
162 0.000651
163 0.000649
164 0.000650
165 0.000650
166 0.000652
167 0.000656
168 0.000663
169 0.000669
170 0.000677
171 0.000684
172 0.000691
173 0.000693
174 0.000690
175 0.000684
176 0.000677
177 0.000675
178 0.000675
179 0.000673
180 0.000671
181 0.000667
182 0.000660
183 0.000657
184 0.000650
185 0.000653
186 0.000649
187 0.000647
188 0.000643
189 0.000641
190 0.000645
191 0.000652
192 0.000658
193 0.000665
194 0.000673
195 0.000674
196 0.000675
197 0.000676
198 0.000673
199 0.000674
200 0.000673
201 0.000670
202 0.000670
203 0.000666
204 0.000660
205 0.000650
206 0.000638
207 0.000623
208 0.000611
209 0.000601
210 0.000594
211 0.000588
212 0.000583
213 0.000580
214 0.000577
215 0.000577
216 0.000574
217 0.000575
218 0.000578
219 0.000582
220 0.000584
221 0.000586
222 0.000584
223 0.000580
224 0.000578
225 0.000578
226 0.000578
227 0.000577
228 0.000580
229 0.000578
230 0.000579
231 0.000577
232 0.000574
233 0.000571
234 0.000568
235 0.000565
236 0.000560
237 0.000561
238 0.000563
239 0.000564
240 0.000568
241 0.000570
242 0.000574
243 0.000581
244 0.000586
245 0.000588
246 0.000588
247 0.000587
248 0.000584
249 0.000585
