# i correlation
1 0.001624
2 0.001582
3 0.001541
4 0.001504
5 0.001472
6 0.001438
7 0.001408
8 0.001384
9 0.001367
10 0.001358
11 0.001346
12 0.001334
13 0.001321
14 0.001313
15 0.001307
16 0.001305
17 0.001302
18 0.001296
19 0.001292
20 0.001294
21 0.001290
22 0.001285
23 0.001280
24 0.001281
25 0.001283
26 0.001285
27 0.001284
28 0.001279
29 0.001276
30 0.001275
31 0.001271
32 0.001264
33 0.001254
34 0.001248
35 0.001244
36 0.001239
37 0.001233
38 0.001227
39 0.001220
40 0.001214
41 0.001211
42 0.001206
43 0.001201
44 0.001196
45 0.001193
46 0.001192
47 0.001197
48 0.001202
49 0.001207
50 0.001206
51 0.001208
52 0.001211
53 0.001213
54 0.001209
55 0.001204
56 0.001195
57 0.001184
58 0.001178
59 0.001171
60 0.001159
61 0.001146
62 0.001135
63 0.001124
64 0.001114
65 0.001104
66 0.001094
67 0.001084
68 0.001076
69 0.001070
70 0.001066
71 0.001061
72 0.001063
73 0.001064
74 0.001063
75 0.001064
76 0.001063
77 0.001064
78 0.001066
79 0.001063
80 0.001062
81 0.001060
82 0.001056
83 0.001050
84 0.001044
85 0.001032
86 0.001018
87 0.001009
88 0.001002
89 0.001001
90 0.001001
91 0.000994
92 0.000996
93 0.000997
94 0.000995
95 0.000995
96 0.000992
97 0.000991
98 0.000988
99 0.000985
100 0.000983
101 0.000983
102 0.000985
103 0.000987
104 0.000990
105 0.000989
106 0.000986
107 0.000985
108 0.000982
109 0.000977
110 0.000969
111 0.000960
112 0.000952
113 0.000941
114 0.000932
115 0.000922
116 0.000911
117 0.000899
118 0.000889
119 0.000882
120 0.000874
121 0.000866
122 0.000861
123 0.000858
124 0.000858
125 0.000859
126 0.000857
127 0.000859
128 0.000864
129 0.000868
130 0.000871
131 0.000877
132 0.000879
133 0.000881
134 0.000879
135 0.000874
136 0.000873
137 0.000870
138 0.000866
139 0.000863
140 0.000857
141 0.000854
142 0.000853
143 0.000852
144 0.000851
145 0.000845
146 0.000837
147 0.000827
148 0.000817
149 0.000811
150 0.000806
151 0.000801
152 0.000798
153 0.000798
154 0.000799
155 0.000802
156 0.000802
157 0.000804
158 0.000804
159 0.000799
160 0.000794
161 0.000787
162 0.000780
163 0.000774
164 0.000767
165 0.000766
166 0.000757
167 0.000752
168 0.000747
169 0.000739
170 0.000733
171 0.000729
172 0.000724
173 0.000721
174 0.000721
175 0.000721
176 0.000720
177 0.000717
178 0.000715
179 0.000712
180 0.000711
181 0.000708
182 0.000709
183 0.000709
184 0.000710
185 0.000714
186 0.000718
187 0.000720
188 0.000723
189 0.000723
190 0.000722
191 0.000723
192 0.000727
193 0.000727
194 0.000729
195 0.000734
196 0.000738
197 0.000740
198 0.000737
199 0.000729
200 0.000718
201 0.000707
202 0.000699
203 0.000692
204 0.000688
205 0.000681
206 0.000680
207 0.000679
208 0.000680
209 0.000680
210 0.000677
211 0.000677
212 0.000680
213 0.000682
214 0.000681
215 0.000678
216 0.000679
217 0.000682
218 0.000678
219 0.000671
220 0.000665
221 0.000662
222 0.000663
223 0.000663
224 0.000664
225 0.000663
226 0.000662
227 0.000662
228 0.000661
229 0.000659
230 0.000653
231 0.000644
232 0.000638
233 0.000636
234 0.000635
235 0.000636
236 0.000637
237 0.000640
238 0.000648
239 0.000651
240 0.000652
241 0.000647
242 0.000642
243 0.000640
244 0.000635
245 0.000628
246 0.000621
247 0.000616
248 0.000616
249 0.000614
