# i correlation
1 0.001569
2 0.001522
3 0.001480
4 0.001447
5 0.001422
6 0.001400
7 0.001378
8 0.001361
9 0.001349
10 0.001335
11 0.001322
12 0.001304
13 0.001282
14 0.001265
15 0.001256
16 0.001245
17 0.001233
18 0.001223
19 0.001214
20 0.001209
21 0.001204
22 0.001198
23 0.001191
24 0.001184
25 0.001180
26 0.001172
27 0.001167
28 0.001158
29 0.001148
30 0.001139
31 0.001130
32 0.001117
33 0.001103
34 0.001090
35 0.001082
36 0.001072
37 0.001066
38 0.001059
39 0.001052
40 0.001045
41 0.001038
42 0.001024
43 0.001012
44 0.001002
45 0.000993
46 0.000986
47 0.000984
48 0.000979
49 0.000973
50 0.000966
51 0.000961
52 0.000960
53 0.000960
54 0.000958
55 0.000955
56 0.000950
57 0.000940
58 0.000934
59 0.000932
60 0.000931
61 0.000930
62 0.000927
63 0.000924
64 0.000918
65 0.000910
66 0.000898
67 0.000886
68 0.000879
69 0.000875
70 0.000873
71 0.000869
72 0.000863
73 0.000857
74 0.000853
75 0.000849
76 0.000843
77 0.000835
78 0.000829
79 0.000825
80 0.000823
81 0.000819
82 0.000813
83 0.000804
84 0.000801
85 0.000799
86 0.000800
87 0.000801
88 0.000806
89 0.000808
90 0.000809
91 0.000808
92 0.000805
93 0.000801
94 0.000799
95 0.000801
96 0.000802
97 0.000800
98 0.000797
99 0.000795
100 0.000798
101 0.000796
102 0.000793
103 0.000788
104 0.000783
105 0.000777
106 0.000770
107 0.000757
108 0.000749
109 0.000744
110 0.000744
111 0.000745
112 0.000746
113 0.000746
114 0.000746
115 0.000750
116 0.000750
117 0.000755
118 0.000752
119 0.000747
120 0.000745
121 0.000744
122 0.000740
123 0.000739
124 0.000738
125 0.000737
126 0.000740
127 0.000745
128 0.000750
129 0.000750
130 0.000749
131 0.000747
132 0.000746
133 0.000746
134 0.000745
135 0.000745
136 0.000742
137 0.000740
138 0.000737
139 0.000738
140 0.000741
141 0.000744
142 0.000743
143 0.000745
144 0.000748
145 0.000750
146 0.000751
147 0.000749
148 0.000746
149 0.000748
150 0.000748
151 0.000749
152 0.000749
153 0.000751
154 0.000754
155 0.000758
156 0.000763
157 0.000768
158 0.000774
159 0.000776
160 0.000778
161 0.000779
162 0.000779
163 0.000778
164 0.000779
165 0.000779
166 0.000777
167 0.000777
168 0.000782
169 0.000783
170 0.000780
171 0.000777
172 0.000777
173 0.000779
174 0.000784
175 0.000789
176 0.000793
177 0.000793
178 0.000795
179 0.000796
180 0.000801
181 0.000801
182 0.000802
183 0.000799
184 0.000799
185 0.000797
186 0.000798
187 0.000793
188 0.000787
189 0.000783
190 0.000776
191 0.000770
192 0.000763
193 0.000759
194 0.000753
195 0.000752
196 0.000751
197 0.000751
198 0.000748
199 0.000746
200 0.000740
201 0.000734
202 0.000732
203 0.000731
204 0.000727
205 0.000727
206 0.000723
207 0.000721
208 0.000720
209 0.000722
210 0.000726
211 0.000730
212 0.000729
213 0.000729
214 0.000731
215 0.000730
216 0.000727
217 0.000724
218 0.000717
219 0.000710
220 0.000704
221 0.000703
222 0.000698
223 0.000693
224 0.000685
225 0.000677
226 0.000667
227 0.000659
228 0.000654
229 0.000652
230 0.000651
231 0.000645
232 0.000640
233 0.000636
234 0.000632
235 0.000625
236 0.000621
237 0.000616
238 0.000609
239 0.000601
240 0.000597
241 0.000592
242 0.000589
243 0.000588
244 0.000588
245 0.000592
246 0.000590
247 0.000579
248 0.000567
249 0.000556
