# i correlation
1 0.001741
2 0.001697
3 0.001662
4 0.001630
5 0.001603
6 0.001584
7 0.001562
8 0.001539
9 0.001522
10 0.001509
11 0.001495
12 0.001481
13 0.001464
14 0.001449
15 0.001437
16 0.001429
17 0.001421
18 0.001415
19 0.001410
20 0.001406
21 0.001402
22 0.001398
23 0.001394
24 0.001390
25 0.001382
26 0.001377
27 0.001368
28 0.001355
29 0.001349
30 0.001350
31 0.001348
32 0.001350
33 0.001345
34 0.001340
35 0.001332
36 0.001326
37 0.001316
38 0.001307
39 0.001293
40 0.001283
41 0.001276
42 0.001272
43 0.001269
44 0.001268
45 0.001266
46 0.001263
47 0.001257
48 0.001253
49 0.001250
50 0.001250
51 0.001249
52 0.001247
53 0.001245
54 0.001244
55 0.001240
56 0.001235
57 0.001228
58 0.001224
59 0.001214
60 0.001201
61 0.001188
62 0.001178
63 0.001170
64 0.001168
65 0.001162
66 0.001153
67 0.001142
68 0.001133
69 0.001124
70 0.001118
71 0.001110
72 0.001102
73 0.001094
74 0.001089
75 0.001084
76 0.001079
77 0.001068
78 0.001059
79 0.001049
80 0.001043
81 0.001036
82 0.001031
83 0.001024
84 0.001019
85 0.001016
86 0.001012
87 0.001011
88 0.001014
89 0.001016
90 0.001017
91 0.001014
92 0.001005
93 0.000995
94 0.000987
95 0.000978
96 0.000974
97 0.000967
98 0.000955
99 0.000943
100 0.000937
101 0.000932
102 0.000927
103 0.000922
104 0.000916
105 0.000909
106 0.000908
107 0.000905
108 0.000901
109 0.000898
110 0.000892
111 0.000890
112 0.000892
113 0.000894
114 0.000892
115 0.000884
116 0.000876
117 0.000866
118 0.000853
119 0.000844
120 0.000836
121 0.000828
122 0.000823
123 0.000821
124 0.000820
125 0.000814
126 0.000809
127 0.000807
128 0.000806
129 0.000808
130 0.000808
131 0.000805
132 0.000803
133 0.000805
134 0.000805
135 0.000800
136 0.000797
137 0.000791
138 0.000787
139 0.000786
140 0.000787
141 0.000784
142 0.000781
143 0.000777
144 0.000774
145 0.000771
146 0.000775
147 0.000774
148 0.000772
149 0.000772
150 0.000773
151 0.000770
152 0.000765
153 0.000758
154 0.000756
155 0.000753
156 0.000752
157 0.000748
158 0.000745
159 0.000746
160 0.000746
161 0.000743
162 0.000738
163 0.000736
164 0.000736
165 0.000738
166 0.000744
167 0.000745
168 0.000744
169 0.000739
170 0.000735
171 0.000731
172 0.000725
173 0.000718
174 0.000712
175 0.000707
176 0.000707
177 0.000704
178 0.000704
179 0.000699
180 0.000692
181 0.000691
182 0.000689
183 0.000687
184 0.000684
185 0.000682
186 0.000679
187 0.000676
188 0.000676
189 0.000674
190 0.000671
191 0.000669
192 0.000668
193 0.000664
194 0.000661
195 0.000657
196 0.000656
197 0.000657
198 0.000659
199 0.000658
200 0.000661
201 0.000664
202 0.000667
203 0.000667
204 0.000670
205 0.000671
206 0.000667
207 0.000666
208 0.000666
209 0.000662
210 0.000662
211 0.000658
212 0.000653
213 0.000649
214 0.000648
215 0.000645
216 0.000644
217 0.000644
218 0.000646
219 0.000645
220 0.000645
221 0.000650
222 0.000651
223 0.000652
224 0.000657
225 0.000659
226 0.000659
227 0.000661
228 0.000660
229 0.000653
230 0.000651
231 0.000647
232 0.000644
233 0.000640
234 0.000639
235 0.000636
236 0.000633
237 0.000632
238 0.000630
239 0.000627
240 0.000626
241 0.000627
242 0.000624
243 0.000627
244 0.000632
245 0.000637
246 0.000640
247 0.000639
248 0.000638
249 0.000634
