# i correlation
1 0.001505
2 0.001466
3 0.001433
4 0.001406
5 0.001381
6 0.001355
7 0.001333
8 0.001314
9 0.001304
10 0.001292
11 0.001280
12 0.001268
13 0.001254
14 0.001246
15 0.001235
16 0.001223
17 0.001215
18 0.001213
19 0.001211
20 0.001202
21 0.001191
22 0.001186
23 0.001180
24 0.001174
25 0.001166
26 0.001163
27 0.001158
28 0.001154
29 0.001150
30 0.001150
31 0.001149
32 0.001144
33 0.001141
34 0.001137
35 0.001133
36 0.001125
37 0.001122
38 0.001122
39 0.001120
40 0.001119
41 0.001117
42 0.001118
43 0.001111
44 0.001103
45 0.001096
46 0.001091
47 0.001087
48 0.001081
49 0.001075
50 0.001069
51 0.001063
52 0.001058
53 0.001055
54 0.001052
55 0.001043
56 0.001037
57 0.001032
58 0.001027
59 0.001017
60 0.001013
61 0.001010
62 0.001007
63 0.000999
64 0.000992
65 0.000983
66 0.000976
67 0.000969
68 0.000965
69 0.000958
70 0.000949
71 0.000943
72 0.000938
73 0.000930
74 0.000921
75 0.000913
76 0.000907
77 0.000904
78 0.000899
79 0.000897
80 0.000899
81 0.000900
82 0.000898
83 0.000894
84 0.000893
85 0.000889
86 0.000888
87 0.000889
88 0.000888
89 0.000885
90 0.000881
91 0.000880
92 0.000877
93 0.000872
94 0.000867
95 0.000866
96 0.000865
97 0.000860
98 0.000857
99 0.000856
100 0.000855
101 0.000856
102 0.000854
103 0.000854
104 0.000853
105 0.000848
106 0.000844
107 0.000839
108 0.000830
109 0.000819
110 0.000813
111 0.000804
112 0.000791
113 0.000775
114 0.000762
115 0.000753
116 0.000746
117 0.000738
118 0.000731
119 0.000728
120 0.000721
121 0.000717
122 0.000715
123 0.000715
124 0.000713
125 0.000711
126 0.000709
127 0.000707
128 0.000705
129 0.000705
130 0.000705
131 0.000702
132 0.000701
133 0.000703
134 0.000710
135 0.000715
136 0.000717
137 0.000724
138 0.000732
139 0.000742
140 0.000744
141 0.000747
142 0.000752
143 0.000754
144 0.000755
145 0.000755
146 0.000752
147 0.000747
148 0.000747
149 0.000748
150 0.000746
151 0.000741
152 0.000729
153 0.000721
154 0.000715
155 0.000708
156 0.000702
157 0.000692
158 0.000686
159 0.000680
160 0.000674
161 0.000672
162 0.000665
163 0.000659
164 0.000655
165 0.000656
166 0.000657
167 0.000657
168 0.000659
169 0.000661
170 0.000657
171 0.000652
172 0.000649
173 0.000649
174 0.000648
175 0.000648
176 0.000650
177 0.000654
178 0.000655
179 0.000657
180 0.000656
181 0.000656
182 0.000653
183 0.000652
184 0.000649
185 0.000645
186 0.000642
187 0.000646
188 0.000651
189 0.000650
190 0.000646
191 0.000647
192 0.000647
193 0.000646
194 0.000644
195 0.000644
196 0.000650
197 0.000653
198 0.000655
199 0.000659
200 0.000657
201 0.000653
202 0.000648
203 0.000641
204 0.000631
205 0.000624
206 0.000616
207 0.000615
208 0.000613
209 0.000610
210 0.000605
211 0.000603
212 0.000597
213 0.000596
214 0.000598
215 0.000595
216 0.000591
217 0.000590
218 0.000587
219 0.000585
220 0.000584
221 0.000580
222 0.000579
223 0.000579
224 0.000576
225 0.000577
226 0.000581
227 0.000583
228 0.000583
229 0.000586
230 0.000591
231 0.000595
232 0.000596
233 0.000597
234 0.000595
235 0.000593
236 0.000592
237 0.000594
238 0.000597
239 0.000599
240 0.000603
241 0.000602
242 0.000602
243 0.000598
244 0.000595
245 0.000593
246 0.000593
247 0.000592
248 0.000594
249 0.000601
