# i correlation
1 0.001789
2 0.001752
3 0.001723
4 0.001691
5 0.001666
6 0.001642
7 0.001620
8 0.001600
9 0.001586
10 0.001577
11 0.001565
12 0.001551
13 0.001536
14 0.001520
15 0.001509
16 0.001500
17 0.001496
18 0.001488
19 0.001480
20 0.001475
21 0.001470
22 0.001462
23 0.001455
24 0.001445
25 0.001439
26 0.001434
27 0.001425
28 0.001421
29 0.001414
30 0.001405
31 0.001392
32 0.001381
33 0.001369
34 0.001358
35 0.001345
36 0.001333
37 0.001328
38 0.001324
39 0.001316
40 0.001311
41 0.001306
42 0.001297
43 0.001288
44 0.001276
45 0.001262
46 0.001254
47 0.001243
48 0.001238
49 0.001232
50 0.001227
51 0.001223
52 0.001213
53 0.001210
54 0.001205
55 0.001201
56 0.001195
57 0.001184
58 0.001172
59 0.001163
60 0.001155
61 0.001147
62 0.001138
63 0.001132
64 0.001129
65 0.001124
66 0.001121
67 0.001118
68 0.001113
69 0.001109
70 0.001105
71 0.001103
72 0.001101
73 0.001096
74 0.001095
75 0.001091
76 0.001089
77 0.001086
78 0.001079
79 0.001073
80 0.001063
81 0.001058
82 0.001052
83 0.001047
84 0.001041
85 0.001039
86 0.001036
87 0.001029
88 0.001025
89 0.001020
90 0.001013
91 0.001011
92 0.001012
93 0.001010
94 0.001005
95 0.000997
96 0.000994
97 0.000992
98 0.000988
99 0.000981
100 0.000975
101 0.000969
102 0.000967
103 0.000966
104 0.000963
105 0.000960
106 0.000953
107 0.000944
108 0.000937
109 0.000933
110 0.000930
111 0.000928
112 0.000927
113 0.000926
114 0.000927
115 0.000931
116 0.000931
117 0.000927
118 0.000922
119 0.000917
120 0.000912
121 0.000906
122 0.000901
123 0.000894
124 0.000886
125 0.000881
126 0.000878
127 0.000872
128 0.000867
129 0.000866
130 0.000864
131 0.000864
132 0.000866
133 0.000866
134 0.000867
135 0.000868
136 0.000872
137 0.000873
138 0.000874
139 0.000873
140 0.000870
141 0.000869
142 0.000864
143 0.000856
144 0.000848
145 0.000834
146 0.000826
147 0.000820
148 0.000814
149 0.000810
150 0.000809
151 0.000807
152 0.000809
153 0.000810
154 0.000808
155 0.000803
156 0.000802
157 0.000802
158 0.000802
159 0.000802
160 0.000802
161 0.000803
162 0.000803
163 0.000801
164 0.000799
165 0.000796
166 0.000795
167 0.000795
168 0.000794
169 0.000793
170 0.000793
171 0.000792
172 0.000789
173 0.000785
174 0.000779
175 0.000773
176 0.000767
177 0.000760
178 0.000756
179 0.000752
180 0.000753
181 0.000750
182 0.000745
183 0.000743
184 0.000739
185 0.000734
186 0.000728
187 0.000727
188 0.000725
189 0.000725
190 0.000728
191 0.000730
192 0.000736
193 0.000739
194 0.000739
195 0.000734
196 0.000729
197 0.000726
198 0.000720
199 0.000712
200 0.000707
201 0.000702
202 0.000698
203 0.000698
204 0.000692
205 0.000690
206 0.000689
207 0.000685
208 0.000684
209 0.000681
210 0.000678
211 0.000673
212 0.000670
213 0.000671
214 0.000670
215 0.000669
216 0.000665
217 0.000665
218 0.000667
219 0.000665
220 0.000663
221 0.000661
222 0.000662
223 0.000662
224 0.000660
225 0.000656
226 0.000653
227 0.000651
228 0.000650
229 0.000649
230 0.000650
231 0.000654
232 0.000653
233 0.000651
234 0.000649
235 0.000646
236 0.000648
237 0.000642
238 0.000638
239 0.000632
240 0.000625
241 0.000618
242 0.000609
243 0.000604
244 0.000602
245 0.000599
246 0.000599
247 0.000599
248 0.000598
249 0.000595
