# i correlation
1 0.001619
2 0.001584
3 0.001549
4 0.001519
5 0.001493
6 0.001473
7 0.001451
8 0.001427
9 0.001411
10 0.001395
11 0.001376
12 0.001365
13 0.001351
14 0.001339
15 0.001327
16 0.001316
17 0.001308
18 0.001301
19 0.001292
20 0.001281
21 0.001270
22 0.001259
23 0.001252
24 0.001244
25 0.001235
26 0.001222
27 0.001213
28 0.001204
29 0.001202
30 0.001199
31 0.001201
32 0.001200
33 0.001195
34 0.001187
35 0.001179
36 0.001174
37 0.001172
38 0.001171
39 0.001171
40 0.001171
41 0.001167
42 0.001167
43 0.001167
44 0.001163
45 0.001158
46 0.001150
47 0.001139
48 0.001133
49 0.001124
50 0.001118
51 0.001108
52 0.001101
53 0.001092
54 0.001088
55 0.001083
56 0.001081
57 0.001080
58 0.001078
59 0.001078
60 0.001078
61 0.001078
62 0.001076
63 0.001077
64 0.001075
65 0.001074
66 0.001072
67 0.001072
68 0.001073
69 0.001070
70 0.001064
71 0.001057
72 0.001046
73 0.001033
74 0.001022
75 0.001014
76 0.001008
77 0.001007
78 0.001000
79 0.000994
80 0.000986
81 0.000983
82 0.000983
83 0.000981
84 0.000976
85 0.000965
86 0.000959
87 0.000952
88 0.000945
89 0.000939
90 0.000932
91 0.000925
92 0.000916
93 0.000910
94 0.000908
95 0.000903
96 0.000898
97 0.000893
98 0.000884
99 0.000882
100 0.000881
101 0.000882
102 0.000880
103 0.000880
104 0.000880
105 0.000877
106 0.000880
107 0.000884
108 0.000886
109 0.000890
110 0.000890
111 0.000892
112 0.000892
113 0.000897
114 0.000899
115 0.000896
116 0.000893
117 0.000889
118 0.000886
119 0.000885
120 0.000887
121 0.000890
122 0.000892
123 0.000892
124 0.000893
125 0.000892
126 0.000896
127 0.000896
128 0.000896
129 0.000891
130 0.000885
131 0.000878
132 0.000872
133 0.000868
134 0.000860
135 0.000851
136 0.000844
137 0.000840
138 0.000834
139 0.000827
140 0.000822
141 0.000817
142 0.000813
143 0.000810
144 0.000807
145 0.000802
146 0.000798
147 0.000793
148 0.000786
149 0.000784
150 0.000779
151 0.000779
152 0.000778
153 0.000782
154 0.000780
155 0.000779
156 0.000776
157 0.000770
158 0.000770
159 0.000769
160 0.000766
161 0.000762
162 0.000759
163 0.000755
164 0.000752
165 0.000748
166 0.000741
167 0.000738
168 0.000741
169 0.000743
170 0.000747
171 0.000752
172 0.000756
173 0.000756
174 0.000755
175 0.000751
176 0.000745
177 0.000743
178 0.000743
179 0.000736
180 0.000727
181 0.000719
182 0.000713
183 0.000708
184 0.000704
185 0.000704
186 0.000702
187 0.000702
188 0.000696
189 0.000695
190 0.000693
191 0.000696
192 0.000699
193 0.000703
194 0.000705
195 0.000703
196 0.000700
197 0.000696
198 0.000687
199 0.000678
200 0.000668
201 0.000663
202 0.000659
203 0.000657
204 0.000652
205 0.000647
206 0.000640
207 0.000629
208 0.000619
209 0.000611
210 0.000607
211 0.000604
212 0.000601
213 0.000598
214 0.000598
215 0.000598
216 0.000596
217 0.000596
218 0.000596
219 0.000594
220 0.000593
221 0.000592
222 0.000586
223 0.000584
224 0.000585
225 0.000586
226 0.000589
227 0.000592
228 0.000593
229 0.000593
230 0.000598
231 0.000605
232 0.000610
233 0.000618
234 0.000622
235 0.000630
236 0.000635
237 0.000646
238 0.000653
239 0.000661
240 0.000660
241 0.000662
242 0.000661
243 0.000658
244 0.000658
245 0.000655
246 0.000653
247 0.000649
248 0.000646
249 0.000640
