# i correlation
1 0.001495
2 0.001454
3 0.001414
4 0.001374
5 0.001348
6 0.001323
7 0.001302
8 0.001285
9 0.001269
10 0.001262
11 0.001252
12 0.001242
13 0.001233
14 0.001222
15 0.001209
16 0.001198
17 0.001189
18 0.001180
19 0.001176
20 0.001173
21 0.001173
22 0.001173
23 0.001171
24 0.001167
25 0.001158
26 0.001148
27 0.001143
28 0.001138
29 0.001125
30 0.001112
31 0.001096
32 0.001085
33 0.001075
34 0.001071
35 0.001066
36 0.001057
37 0.001049
38 0.001044
39 0.001038
40 0.001036
41 0.001036
42 0.001036
43 0.001037
44 0.001034
45 0.001030
46 0.001032
47 0.001032
48 0.001033
49 0.001034
50 0.001035
51 0.001035
52 0.001033
53 0.001032
54 0.001028
55 0.001022
56 0.001019
57 0.001011
58 0.001004
59 0.000993
60 0.000986
61 0.000977
62 0.000968
63 0.000961
64 0.000957
65 0.000951
66 0.000951
67 0.000947
68 0.000949
69 0.000948
70 0.000948
71 0.000950
72 0.000952
73 0.000952
74 0.000955
75 0.000955
76 0.000954
77 0.000953
78 0.000952
79 0.000954
80 0.000951
81 0.000947
82 0.000942
83 0.000939
84 0.000934
85 0.000931
86 0.000922
87 0.000913
88 0.000903
89 0.000892
90 0.000879
91 0.000869
92 0.000856
93 0.000842
94 0.000829
95 0.000819
96 0.000810
97 0.000802
98 0.000796
99 0.000794
100 0.000793
101 0.000793
102 0.000792
103 0.000790
104 0.000786
105 0.000779
106 0.000774
107 0.000773
108 0.000774
109 0.000775
110 0.000772
111 0.000770
112 0.000767
113 0.000761
114 0.000757
115 0.000753
116 0.000751
117 0.000749
118 0.000742
119 0.000735
120 0.000729
121 0.000723
122 0.000723
123 0.000722
124 0.000724
125 0.000724
126 0.000722
127 0.000724
128 0.000723
129 0.000724
130 0.000723
131 0.000720
132 0.000719
133 0.000714
134 0.000708
135 0.000700
136 0.000693
137 0.000686
138 0.000677
139 0.000673
140 0.000663
141 0.000659
142 0.000651
143 0.000644
144 0.000640
145 0.000638
146 0.000634
147 0.000629
148 0.000624
149 0.000625
150 0.000625
151 0.000627
152 0.000627
153 0.000625
154 0.000621
155 0.000617
156 0.000615
157 0.000613
158 0.000606
159 0.000602
160 0.000595
161 0.000587
162 0.000575
163 0.000568
164 0.000566
165 0.000562
166 0.000560
167 0.000560
168 0.000559
169 0.000562
170 0.000567
171 0.000567
172 0.000568
173 0.000572
174 0.000574
175 0.000574
176 0.000573
177 0.000572
178 0.000570
179 0.000568
180 0.000568
181 0.000564
182 0.000562
183 0.000556
184 0.000551
185 0.000545
186 0.000537
187 0.000531
188 0.000527
189 0.000522
190 0.000517
191 0.000521
192 0.000523
193 0.000526
194 0.000533
195 0.000537
196 0.000539
197 0.000545
198 0.000548
199 0.000549
200 0.000541
201 0.000532
202 0.000525
203 0.000519
204 0.000515
205 0.000513
206 0.000510
207 0.000513
208 0.000516
209 0.000519
210 0.000522
211 0.000521
212 0.000516
213 0.000513
214 0.000506
215 0.000498
216 0.000497
217 0.000489
218 0.000488
219 0.000489
220 0.000489
221 0.000489
222 0.000487
223 0.000484
224 0.000480
225 0.000474
226 0.000469
227 0.000462
228 0.000456
229 0.000451
230 0.000449
231 0.000450
232 0.000452
233 0.000454
234 0.000454
235 0.000452
236 0.000446
237 0.000442
238 0.000439
239 0.000437
240 0.000439
241 0.000438
242 0.000430
243 0.000422
244 0.000415
245 0.000408
246 0.000402
247 0.000395
248 0.000393
249 0.000389
