# i correlation
1 0.001692
2 0.001645
3 0.001606
4 0.001574
5 0.001547
6 0.001525
7 0.001505
8 0.001486
9 0.001467
10 0.001452
11 0.001439
12 0.001421
13 0.001404
14 0.001392
15 0.001384
16 0.001378
17 0.001369
18 0.001363
19 0.001358
20 0.001348
21 0.001340
22 0.001332
23 0.001326
24 0.001322
25 0.001321
26 0.001323
27 0.001326
28 0.001327
29 0.001328
30 0.001326
31 0.001326
32 0.001323
33 0.001317
34 0.001314
35 0.001308
36 0.001300
37 0.001293
38 0.001282
39 0.001271
40 0.001257
41 0.001245
42 0.001236
43 0.001228
44 0.001217
45 0.001210
46 0.001200
47 0.001185
48 0.001172
49 0.001161
50 0.001156
51 0.001152
52 0.001148
53 0.001145
54 0.001141
55 0.001135
56 0.001131
57 0.001124
58 0.001117
59 0.001114
60 0.001109
61 0.001110
62 0.001107
63 0.001107
64 0.001109
65 0.001108
66 0.001111
67 0.001111
68 0.001108
69 0.001105
70 0.001104
71 0.001098
72 0.001092
73 0.001087
74 0.001078
75 0.001067
76 0.001057
77 0.001051
78 0.001039
79 0.001025
80 0.001020
81 0.001011
82 0.001000
83 0.000989
84 0.000985
85 0.000979
86 0.000973
87 0.000965
88 0.000962
89 0.000959
90 0.000959
91 0.000961
92 0.000969
93 0.000975
94 0.000978
95 0.000980
96 0.000985
97 0.000982
98 0.000982
99 0.000985
100 0.000989
101 0.000994
102 0.000998
103 0.001000
104 0.001003
105 0.001002
106 0.000999
107 0.000996
108 0.000991
109 0.000985
110 0.000979
111 0.000974
112 0.000964
113 0.000953
114 0.000945
115 0.000939
116 0.000934
117 0.000920
118 0.000907
119 0.000899
120 0.000896
121 0.000895
122 0.000896
123 0.000895
124 0.000891
125 0.000889
126 0.000884
127 0.000881
128 0.000876
129 0.000869
130 0.000868
131 0.000873
132 0.000878
133 0.000885
134 0.000889
135 0.000890
136 0.000893
137 0.000895
138 0.000899
139 0.000897
140 0.000895
141 0.000896
142 0.000896
143 0.000894
144 0.000891
145 0.000880
146 0.000875
147 0.000876
148 0.000872
149 0.000869
150 0.000867
151 0.000864
152 0.000861
153 0.000856
154 0.000853
155 0.000848
156 0.000843
157 0.000843
158 0.000842
159 0.000838
160 0.000836
161 0.000835
162 0.000839
163 0.000841
164 0.000838
165 0.000837
166 0.000839
167 0.000840
168 0.000837
169 0.000834
170 0.000830
171 0.000827
172 0.000821
173 0.000818
174 0.000813
175 0.000810
176 0.000810
177 0.000811
178 0.000812
179 0.000813
180 0.000806
181 0.000800
182 0.000792
183 0.000783
184 0.000774
185 0.000768
186 0.000764
187 0.000755
188 0.000750
189 0.000748
190 0.000742
191 0.000734
192 0.000729
193 0.000726
194 0.000724
195 0.000724
196 0.000726
197 0.000727
198 0.000724
199 0.000719
200 0.000719
201 0.000719
202 0.000717
203 0.000718
204 0.000720
205 0.000721
206 0.000725
207 0.000733
208 0.000743
209 0.000743
210 0.000745
211 0.000745
212 0.000745
213 0.000745
214 0.000745
215 0.000744
216 0.000743
217 0.000740
218 0.000736
219 0.000726
220 0.000721
221 0.000716
222 0.000710
223 0.000702
224 0.000696
225 0.000685
226 0.000676
227 0.000664
228 0.000654
229 0.000645
230 0.000639
231 0.000635
232 0.000631
233 0.000626
234 0.000621
235 0.000620
236 0.000617
237 0.000617
238 0.000621
239 0.000624
240 0.000628
241 0.000626
242 0.000626
243 0.000625
244 0.000620
245 0.000615
246 0.000614
247 0.000616
248 0.000614
249 0.000613
