# i correlation
1 0.001410
2 0.001367
3 0.001332
4 0.001302
5 0.001275
6 0.001253
7 0.001237
8 0.001220
9 0.001206
10 0.001196
11 0.001186
12 0.001177
13 0.001164
14 0.001150
15 0.001139
16 0.001131
17 0.001124
18 0.001118
19 0.001113
20 0.001109
21 0.001102
22 0.001090
23 0.001083
24 0.001080
25 0.001078
26 0.001076
27 0.001075
28 0.001077
29 0.001077
30 0.001074
31 0.001066
32 0.001063
33 0.001055
34 0.001051
35 0.001046
36 0.001041
37 0.001042
38 0.001042
39 0.001040
40 0.001037
41 0.001026
42 0.001016
43 0.001003
44 0.000992
45 0.000985
46 0.000977
47 0.000974
48 0.000970
49 0.000968
50 0.000964
51 0.000958
52 0.000956
53 0.000955
54 0.000956
55 0.000959
56 0.000960
57 0.000957
58 0.000952
59 0.000952
60 0.000951
61 0.000951
62 0.000950
63 0.000950
64 0.000946
65 0.000943
66 0.000944
67 0.000945
68 0.000946
69 0.000946
70 0.000948
71 0.000945
72 0.000943
73 0.000940
74 0.000938
75 0.000937
76 0.000934
77 0.000932
78 0.000927
79 0.000924
80 0.000922
81 0.000917
82 0.000914
83 0.000915
84 0.000914
85 0.000913
86 0.000912
87 0.000912
88 0.000908
89 0.000902
90 0.000900
91 0.000895
92 0.000894
93 0.000894
94 0.000896
95 0.000898
96 0.000901
97 0.000899
98 0.000898
99 0.000899
100 0.000900
101 0.000901
102 0.000903
103 0.000900
104 0.000898
105 0.000892
106 0.000885
107 0.000880
108 0.000868
109 0.000857
110 0.000849
111 0.000841
112 0.000836
113 0.000835
114 0.000834
115 0.000834
116 0.000832
117 0.000834
118 0.000832
119 0.000833
120 0.000833
121 0.000829
122 0.000828
123 0.000829
124 0.000831
125 0.000833
126 0.000829
127 0.000827
128 0.000821
129 0.000816
130 0.000814
131 0.000811
132 0.000808
133 0.000806
134 0.000802
135 0.000799
136 0.000803
137 0.000807
138 0.000806
139 0.000804
140 0.000804
141 0.000802
142 0.000802
143 0.000802
144 0.000798
145 0.000794
146 0.000793
147 0.000793
148 0.000790
149 0.000787
150 0.000784
151 0.000783
152 0.000778
153 0.000775
154 0.000773
155 0.000772
156 0.000770
157 0.000771
158 0.000768
159 0.000766
160 0.000764
161 0.000760
162 0.000757
163 0.000749
164 0.000739
165 0.000732
166 0.000734
167 0.000733
168 0.000727
169 0.000722
170 0.000720
171 0.000712
172 0.000705
173 0.000697
174 0.000691
175 0.000682
176 0.000674
177 0.000668
178 0.000664
179 0.000660
180 0.000659
181 0.000660
182 0.000660
183 0.000660
184 0.000658
185 0.000660
186 0.000660
187 0.000658
188 0.000649
189 0.000640
190 0.000637
191 0.000635
192 0.000632
193 0.000631
194 0.000631
195 0.000630
196 0.000627
197 0.000627
198 0.000628
199 0.000632
200 0.000634
201 0.000629
202 0.000633
203 0.000634
204 0.000636
205 0.000633
206 0.000632
207 0.000631
208 0.000627
209 0.000624
210 0.000624
211 0.000622
212 0.000620
213 0.000623
214 0.000626
215 0.000626
216 0.000624
217 0.000625
218 0.000626
219 0.000626
220 0.000634
221 0.000636
222 0.000636
223 0.000639
224 0.000642
225 0.000645
226 0.000642
227 0.000639
228 0.000634
229 0.000631
230 0.000627
231 0.000623
232 0.000620
233 0.000616
234 0.000611
235 0.000603
236 0.000596
237 0.000593
238 0.000591
239 0.000593
240 0.000591
241 0.000590
242 0.000589
243 0.000586
244 0.000584
245 0.000583
246 0.000580
247 0.000575
248 0.000568
249 0.000562
