# i correlation
1 0.001864
2 0.001822
3 0.001788
4 0.001759
5 0.001735
6 0.001708
7 0.001685
8 0.001664
9 0.001645
10 0.001629
11 0.001618
12 0.001606
13 0.001597
14 0.001590
15 0.001580
16 0.001571
17 0.001561
18 0.001553
19 0.001543
20 0.001529
21 0.001515
22 0.001505
23 0.001495
24 0.001490
25 0.001482
26 0.001477
27 0.001468
28 0.001459
29 0.001451
30 0.001446
31 0.001435
32 0.001428
33 0.001417
34 0.001410
35 0.001405
36 0.001396
37 0.001390
38 0.001387
39 0.001385
40 0.001388
41 0.001390
42 0.001393
43 0.001393
44 0.001388
45 0.001383
46 0.001376
47 0.001370
48 0.001361
49 0.001354
50 0.001346
51 0.001341
52 0.001337
53 0.001334
54 0.001332
55 0.001328
56 0.001326
57 0.001322
58 0.001318
59 0.001315
60 0.001315
61 0.001311
62 0.001307
63 0.001304
64 0.001300
65 0.001291
66 0.001280
67 0.001271
68 0.001264
69 0.001258
70 0.001248
71 0.001241
72 0.001232
73 0.001227
74 0.001221
75 0.001214
76 0.001201
77 0.001193
78 0.001188
79 0.001185
80 0.001178
81 0.001171
82 0.001172
83 0.001169
84 0.001167
85 0.001168
86 0.001164
87 0.001158
88 0.001150
89 0.001142
90 0.001134
91 0.001128
92 0.001119
93 0.001111
94 0.001102
95 0.001093
96 0.001090
97 0.001084
98 0.001077
99 0.001074
100 0.001068
101 0.001059
102 0.001049
103 0.001045
104 0.001039
105 0.001032
106 0.001028
107 0.001024
108 0.001020
109 0.001011
110 0.001002
111 0.000989
112 0.000975
113 0.000963
114 0.000954
115 0.000945
116 0.000935
117 0.000932
118 0.000928
119 0.000928
120 0.000932
121 0.000933
122 0.000936
123 0.000941
124 0.000942
125 0.000945
126 0.000946
127 0.000946
128 0.000944
129 0.000940
130 0.000937
131 0.000932
132 0.000928
133 0.000925
134 0.000926
135 0.000923
136 0.000922
137 0.000918
138 0.000921
139 0.000922
140 0.000917
141 0.000914
142 0.000910
143 0.000904
144 0.000896
145 0.000892
146 0.000884
147 0.000876
148 0.000871
149 0.000870
150 0.000871
151 0.000869
152 0.000865
153 0.000859
154 0.000851
155 0.000845
156 0.000841
157 0.000838
158 0.000831
159 0.000823
160 0.000818
161 0.000813
162 0.000811
163 0.000808
164 0.000808
165 0.000806
166 0.000803
167 0.000797
168 0.000793
169 0.000792
170 0.000789
171 0.000784
172 0.000774
173 0.000762
174 0.000757
175 0.000752
176 0.000749
177 0.000744
178 0.000742
179 0.000743
180 0.000746
181 0.000752
182 0.000755
183 0.000757
184 0.000761
185 0.000765
186 0.000764
187 0.000761
188 0.000760
189 0.000760
190 0.000760
191 0.000761
192 0.000763
193 0.000766
194 0.000767
195 0.000769
196 0.000772
197 0.000772
198 0.000771
199 0.000772
200 0.000770
201 0.000768
202 0.000768
203 0.000764
204 0.000763
205 0.000762
206 0.000760
207 0.000761
208 0.000759
209 0.000760
210 0.000759
211 0.000754
212 0.000750
213 0.000746
214 0.000739
215 0.000731
216 0.000721
217 0.000713
218 0.000706
219 0.000701
220 0.000700
221 0.000700
222 0.000699
223 0.000699
224 0.000702
225 0.000700
226 0.000696
227 0.000692
228 0.000685
229 0.000679
230 0.000674
231 0.000674
232 0.000673
233 0.000672
234 0.000672
235 0.000672
236 0.000670
237 0.000671
238 0.000671
239 0.000675
240 0.000675
241 0.000673
242 0.000670
243 0.000664
244 0.000661
245 0.000659
246 0.000655
247 0.000653
248 0.000656
249 0.000661
