# i correlation
1 0.001865
2 0.001816
3 0.001778
4 0.001742
5 0.001708
6 0.001678
7 0.001653
8 0.001635
9 0.001624
10 0.001611
11 0.001596
12 0.001575
13 0.001554
14 0.001533
15 0.001513
16 0.001492
17 0.001472
18 0.001455
19 0.001441
20 0.001435
21 0.001431
22 0.001427
23 0.001423
24 0.001420
25 0.001413
26 0.001405
27 0.001399
28 0.001392
29 0.001387
30 0.001380
31 0.001377
32 0.001372
33 0.001367
34 0.001363
35 0.001359
36 0.001355
37 0.001350
38 0.001343
39 0.001337
40 0.001334
41 0.001331
42 0.001326
43 0.001320
44 0.001315
45 0.001313
46 0.001310
47 0.001309
48 0.001303
49 0.001305
50 0.001304
51 0.001301
52 0.001300
53 0.001298
54 0.001292
55 0.001285
56 0.001276
57 0.001263
58 0.001253
59 0.001241
60 0.001227
61 0.001218
62 0.001211
63 0.001198
64 0.001191
65 0.001182
66 0.001171
67 0.001158
68 0.001145
69 0.001139
70 0.001135
71 0.001128
72 0.001123
73 0.001117
74 0.001112
75 0.001104
76 0.001097
77 0.001091
78 0.001083
79 0.001078
80 0.001075
81 0.001077
82 0.001078
83 0.001079
84 0.001079
85 0.001079
86 0.001083
87 0.001083
88 0.001079
89 0.001076
90 0.001071
91 0.001072
92 0.001072
93 0.001069
94 0.001068
95 0.001067
96 0.001066
97 0.001067
98 0.001069
99 0.001066
100 0.001064
101 0.001064
102 0.001062
103 0.001060
104 0.001057
105 0.001051
106 0.001045
107 0.001040
108 0.001038
109 0.001034
110 0.001033
111 0.001032
112 0.001025
113 0.001018
114 0.001010
115 0.000999
116 0.000989
117 0.000981
118 0.000970
119 0.000962
120 0.000954
121 0.000945
122 0.000940
123 0.000936
124 0.000928
125 0.000929
126 0.000929
127 0.000928
128 0.000934
129 0.000936
130 0.000937
131 0.000938
132 0.000939
133 0.000937
134 0.000934
135 0.000932
136 0.000931
137 0.000925
138 0.000921
139 0.000919
140 0.000916
141 0.000915
142 0.000917
143 0.000919
144 0.000915
145 0.000912
146 0.000908
147 0.000908
148 0.000909
149 0.000909
150 0.000905
151 0.000901
152 0.000899
153 0.000895
154 0.000894
155 0.000889
156 0.000890
157 0.000896
158 0.000897
159 0.000896
160 0.000894
161 0.000887
162 0.000883
163 0.000881
164 0.000877
165 0.000869
166 0.000865
167 0.000860
168 0.000853
169 0.000848
170 0.000839
171 0.000832
172 0.000833
173 0.000834
174 0.000829
175 0.000824
176 0.000818
177 0.000812
178 0.000809
179 0.000809
180 0.000811
181 0.000814
182 0.000817
183 0.000822
184 0.000824
185 0.000823
186 0.000818
187 0.000816
188 0.000812
189 0.000809
190 0.000804
191 0.000795
192 0.000789
193 0.000785
194 0.000783
195 0.000780
196 0.000774
197 0.000769
198 0.000769
199 0.000766
200 0.000760
201 0.000755
202 0.000752
203 0.000750
204 0.000749
205 0.000748
206 0.000746
207 0.000742
208 0.000742
209 0.000741
210 0.000736
211 0.000732
212 0.000730
213 0.000729
214 0.000729
215 0.000727
216 0.000727
217 0.000730
218 0.000729
219 0.000726
220 0.000720
221 0.000712
222 0.000706
223 0.000696
224 0.000689
225 0.000687
226 0.000683
227 0.000681
228 0.000683
229 0.000686
230 0.000686
231 0.000685
232 0.000684
233 0.000683
234 0.000682
235 0.000683
236 0.000685
237 0.000684
238 0.000685
239 0.000688
240 0.000688
241 0.000690
242 0.000694
243 0.000698
244 0.000697
245 0.000701
246 0.000705
247 0.000702
248 0.000698
249 0.000697
