# i correlation
1 0.001828
2 0.001788
3 0.001752
4 0.001718
5 0.001687
6 0.001662
7 0.001642
8 0.001625
9 0.001611
10 0.001592
11 0.001578
12 0.001563
13 0.001545
14 0.001531
15 0.001517
16 0.001508
17 0.001498
18 0.001493
19 0.001487
20 0.001481
21 0.001475
22 0.001468
23 0.001462
24 0.001460
25 0.001454
26 0.001447
27 0.001443
28 0.001436
29 0.001430
30 0.001427
31 0.001427
32 0.001427
33 0.001425
34 0.001422
35 0.001419
36 0.001410
37 0.001400
38 0.001387
39 0.001374
40 0.001361
41 0.001350
42 0.001340
43 0.001335
44 0.001328
45 0.001325
46 0.001321
47 0.001317
48 0.001311
49 0.001308
50 0.001304
51 0.001300
52 0.001298
53 0.001295
54 0.001293
55 0.001288
56 0.001289
57 0.001287
58 0.001283
59 0.001280
60 0.001276
61 0.001270
62 0.001261
63 0.001249
64 0.001242
65 0.001237
66 0.001232
67 0.001231
68 0.001232
69 0.001237
70 0.001238
71 0.001238
72 0.001234
73 0.001231
74 0.001225
75 0.001221
76 0.001219
77 0.001217
78 0.001221
79 0.001221
80 0.001224
81 0.001226
82 0.001226
83 0.001222
84 0.001224
85 0.001223
86 0.001221
87 0.001219
88 0.001216
89 0.001213
90 0.001210
91 0.001209
92 0.001209
93 0.001204
94 0.001198
95 0.001188
96 0.001180
97 0.001173
98 0.001167
99 0.001161
100 0.001156
101 0.001147
102 0.001143
103 0.001138
104 0.001127
105 0.001121
106 0.001118
107 0.001113
108 0.001103
109 0.001092
110 0.001079
111 0.001068
112 0.001057
113 0.001050
114 0.001042
115 0.001040
116 0.001038
117 0.001038
118 0.001041
119 0.001039
120 0.001034
121 0.001031
122 0.001023
123 0.001019
124 0.001016
125 0.001013
126 0.001009
127 0.001011
128 0.001009
129 0.001012
130 0.001018
131 0.001017
132 0.001015
133 0.001013
134 0.001012
135 0.001008
136 0.001005
137 0.001005
138 0.001008
139 0.001007
140 0.001008
141 0.001005
142 0.000996
143 0.000989
144 0.000978
145 0.000968
146 0.000960
147 0.000950
148 0.000942
149 0.000944
150 0.000945
151 0.000944
152 0.000943
153 0.000941
154 0.000937
155 0.000929
156 0.000921
157 0.000913
158 0.000910
159 0.000911
160 0.000916
161 0.000922
162 0.000928
163 0.000932
164 0.000933
165 0.000932
166 0.000929
167 0.000927
168 0.000925
169 0.000927
170 0.000927
171 0.000925
172 0.000925
173 0.000924
174 0.000922
175 0.000918
176 0.000915
177 0.000912
178 0.000911
179 0.000905
180 0.000899
181 0.000891
182 0.000884
183 0.000881
184 0.000880
185 0.000876
186 0.000877
187 0.000879
188 0.000878
189 0.000874
190 0.000867
191 0.000860
192 0.000854
193 0.000848
194 0.000845
195 0.000842
196 0.000843
197 0.000841
198 0.000842
199 0.000843
200 0.000845
201 0.000841
202 0.000836
203 0.000832
204 0.000826
205 0.000823
206 0.000819
207 0.000817
208 0.000814
209 0.000810
210 0.000808
211 0.000805
212 0.000800
213 0.000797
214 0.000792
215 0.000788
216 0.000782
217 0.000775
218 0.000769
219 0.000765
220 0.000761
221 0.000760
222 0.000764
223 0.000763
224 0.000759
225 0.000755
226 0.000752
227 0.000748
228 0.000746
229 0.000744
230 0.000742
231 0.000743
232 0.000738
233 0.000735
234 0.000731
235 0.000728
236 0.000728
237 0.000724
238 0.000725
239 0.000724
240 0.000727
241 0.000729
242 0.000732
243 0.000735
244 0.000729
245 0.000725
246 0.000720
247 0.000718
248 0.000716
249 0.000712
