# i correlation
1 0.001538
2 0.001499
3 0.001463
4 0.001432
5 0.001404
6 0.001382
7 0.001356
8 0.001330
9 0.001308
10 0.001287
11 0.001265
12 0.001245
13 0.001226
14 0.001208
15 0.001195
16 0.001187
17 0.001176
18 0.001163
19 0.001155
20 0.001148
21 0.001142
22 0.001135
23 0.001129
24 0.001121
25 0.001111
26 0.001108
27 0.001102
28 0.001095
29 0.001091
30 0.001089
31 0.001085
32 0.001082
33 0.001077
34 0.001072
35 0.001066
36 0.001061
37 0.001054
38 0.001049
39 0.001047
40 0.001047
41 0.001046
42 0.001042
43 0.001035
44 0.001025
45 0.001018
46 0.001015
47 0.001006
48 0.000997
49 0.000988
50 0.000981
51 0.000973
52 0.000965
53 0.000959
54 0.000949
55 0.000941
56 0.000933
57 0.000931
58 0.000932
59 0.000930
60 0.000929
61 0.000929
62 0.000934
63 0.000937
64 0.000938
65 0.000932
66 0.000931
67 0.000929
68 0.000924
69 0.000918
70 0.000910
71 0.000904
72 0.000897
73 0.000887
74 0.000882
75 0.000878
76 0.000872
77 0.000871
78 0.000869
79 0.000866
80 0.000861
81 0.000854
82 0.000849
83 0.000844
84 0.000841
85 0.000839
86 0.000834
87 0.000826
88 0.000823
89 0.000817
90 0.000815
91 0.000814
92 0.000818
93 0.000828
94 0.000835
95 0.000839
96 0.000842
97 0.000839
98 0.000840
99 0.000845
100 0.000849
101 0.000850
102 0.000847
103 0.000845
104 0.000847
105 0.000847
106 0.000848
107 0.000846
108 0.000845
109 0.000843
110 0.000839
111 0.000833
112 0.000830
113 0.000826
114 0.000823
115 0.000823
116 0.000823
117 0.000822
118 0.000823
119 0.000821
120 0.000820
121 0.000818
122 0.000819
123 0.000816
124 0.000811
125 0.000810
126 0.000806
127 0.000801
128 0.000795
129 0.000790
130 0.000785
131 0.000774
132 0.000761
133 0.000753
134 0.000741
135 0.000735
136 0.000727
137 0.000715
138 0.000710
139 0.000708
140 0.000704
141 0.000700
142 0.000701
143 0.000700
144 0.000700
145 0.000698
146 0.000695
147 0.000687
148 0.000682
149 0.000677
150 0.000675
151 0.000673
152 0.000673
153 0.000672
154 0.000672
155 0.000671
156 0.000666
157 0.000664
158 0.000655
159 0.000647
160 0.000642
161 0.000633
162 0.000630
163 0.000628
164 0.000625
165 0.000621
166 0.000619
167 0.000613
168 0.000607
169 0.000599
170 0.000598
171 0.000598
172 0.000598
173 0.000596
174 0.000589
175 0.000581
176 0.000574
177 0.000567
178 0.000559
179 0.000554
180 0.000549
181 0.000542
182 0.000535
183 0.000531
184 0.000527
185 0.000525
186 0.000524
187 0.000519
188 0.000520
189 0.000517
190 0.000516
191 0.000514
192 0.000515
193 0.000512
194 0.000510
195 0.000508
196 0.000505
197 0.000506
198 0.000503
199 0.000499
200 0.000499
201 0.000501
202 0.000503
203 0.000505
204 0.000504
205 0.000506
206 0.000511
207 0.000520
208 0.000526
209 0.000529
210 0.000532
211 0.000533
212 0.000536
213 0.000542
214 0.000546
215 0.000549
216 0.000549
217 0.000554
218 0.000560
219 0.000565
220 0.000565
221 0.000568
222 0.000567
223 0.000570
224 0.000570
225 0.000565
226 0.000558
227 0.000550
228 0.000544
229 0.000541
230 0.000536
231 0.000531
232 0.000527
233 0.000521
234 0.000517
235 0.000511
236 0.000505
237 0.000500
238 0.000496
239 0.000490
240 0.000487
241 0.000484
242 0.000481
243 0.000483
244 0.000486
245 0.000487
246 0.000487
247 0.000488
248 0.000493
249 0.000499
