# i correlation
1 0.001335
2 0.001289
3 0.001255
4 0.001225
5 0.001197
6 0.001169
7 0.001143
8 0.001124
9 0.001105
10 0.001084
11 0.001067
12 0.001050
13 0.001033
14 0.001020
15 0.001015
16 0.001012
17 0.001011
18 0.001011
19 0.001013
20 0.001008
21 0.000999
22 0.000990
23 0.000985
24 0.000976
25 0.000972
26 0.000969
27 0.000964
28 0.000960
29 0.000958
30 0.000960
31 0.000959
32 0.000953
33 0.000951
34 0.000950
35 0.000949
36 0.000951
37 0.000948
38 0.000943
39 0.000940
40 0.000932
41 0.000928
42 0.000922
43 0.000915
44 0.000910
45 0.000905
46 0.000897
47 0.000891
48 0.000890
49 0.000890
50 0.000889
51 0.000886
52 0.000879
53 0.000876
54 0.000874
55 0.000868
56 0.000867
57 0.000866
58 0.000866
59 0.000869
60 0.000870
61 0.000871
62 0.000874
63 0.000880
64 0.000883
65 0.000886
66 0.000891
67 0.000895
68 0.000896
69 0.000897
70 0.000891
71 0.000884
72 0.000877
73 0.000868
74 0.000859
75 0.000854
76 0.000845
77 0.000833
78 0.000820
79 0.000808
80 0.000800
81 0.000793
82 0.000788
83 0.000784
84 0.000782
85 0.000780
86 0.000780
87 0.000785
88 0.000786
89 0.000786
90 0.000782
91 0.000782
92 0.000780
93 0.000776
94 0.000775
95 0.000776
96 0.000770
97 0.000765
98 0.000761
99 0.000758
100 0.000754
101 0.000749
102 0.000747
103 0.000749
104 0.000749
105 0.000752
106 0.000755
107 0.000756
108 0.000754
109 0.000749
110 0.000750
111 0.000751
112 0.000749
113 0.000745
114 0.000739
115 0.000735
116 0.000734
117 0.000730
118 0.000721
119 0.000717
120 0.000716
121 0.000718
122 0.000720
123 0.000715
124 0.000712
125 0.000716
126 0.000722
127 0.000724
128 0.000720
129 0.000719
130 0.000723
131 0.000724
132 0.000727
133 0.000731
134 0.000731
135 0.000728
136 0.000724
137 0.000721
138 0.000713
139 0.000706
140 0.000695
141 0.000689
142 0.000685
143 0.000676
144 0.000666
145 0.000658
146 0.000652
147 0.000645
148 0.000638
149 0.000629
150 0.000624
151 0.000621
152 0.000626
153 0.000627
154 0.000626
155 0.000628
156 0.000632
157 0.000635
158 0.000635
159 0.000635
160 0.000634
161 0.000639
162 0.000641
163 0.000644
164 0.000648
165 0.000647
166 0.000645
167 0.000646
168 0.000646
169 0.000644
170 0.000640
171 0.000634
172 0.000626
173 0.000622
174 0.000617
175 0.000617
176 0.000614
177 0.000606
178 0.000601
179 0.000594
180 0.000584
181 0.000573
182 0.000565
183 0.000558
184 0.000551
185 0.000550
186 0.000550
187 0.000550
188 0.000550
189 0.000550
190 0.000549
191 0.000547
192 0.000546
193 0.000550
194 0.000550
195 0.000551
196 0.000554
197 0.000561
198 0.000570
199 0.000577
200 0.000582
201 0.000580
202 0.000580
203 0.000580
204 0.000578
205 0.000575
206 0.000573
207 0.000569
208 0.000565
209 0.000561
210 0.000555
211 0.000553
212 0.000552
213 0.000544
214 0.000536
215 0.000533
216 0.000532
217 0.000532
218 0.000529
219 0.000528
220 0.000526
221 0.000529
222 0.000533
223 0.000540
224 0.000548
225 0.000551
226 0.000553
227 0.000556
228 0.000557
229 0.000555
230 0.000552
231 0.000548
232 0.000543
233 0.000539
234 0.000533
235 0.000529
236 0.000527
237 0.000524
238 0.000521
239 0.000516
240 0.000513
241 0.000509
242 0.000507
243 0.000505
244 0.000506
245 0.000502
246 0.000496
247 0.000491
248 0.000488
249 0.000485
