# i correlation
1 0.001339
2 0.001303
3 0.001271
4 0.001242
5 0.001222
6 0.001204
7 0.001187
8 0.001172
9 0.001164
10 0.001158
11 0.001154
12 0.001148
13 0.001138
14 0.001133
15 0.001126
16 0.001121
17 0.001117
18 0.001112
19 0.001105
20 0.001094
21 0.001086
22 0.001082
23 0.001075
24 0.001069
25 0.001062
26 0.001051
27 0.001039
28 0.001030
29 0.001022
30 0.001014
31 0.001010
32 0.001008
33 0.001009
34 0.001009
35 0.001006
36 0.000996
37 0.000987
38 0.000979
39 0.000967
40 0.000963
41 0.000956
42 0.000948
43 0.000941
44 0.000938
45 0.000932
46 0.000927
47 0.000925
48 0.000920
49 0.000918
50 0.000918
51 0.000921
52 0.000921
53 0.000919
54 0.000916
55 0.000911
56 0.000904
57 0.000899
58 0.000889
59 0.000881
60 0.000872
61 0.000866
62 0.000861
63 0.000859
64 0.000860
65 0.000858
66 0.000858
67 0.000853
68 0.000847
69 0.000841
70 0.000835
71 0.000828
72 0.000819
73 0.000813
74 0.000811
75 0.000811
76 0.000810
77 0.000808
78 0.000802
79 0.000799
80 0.000799
81 0.000800
82 0.000799
83 0.000798
84 0.000797
85 0.000795
86 0.000791
87 0.000790
88 0.000788
89 0.000789
90 0.000793
91 0.000800
92 0.000805
93 0.000805
94 0.000807
95 0.000807
96 0.000806
97 0.000805
98 0.000800
99 0.000794
100 0.000787
101 0.000784
102 0.000782
103 0.000778
104 0.000774
105 0.000773
106 0.000772
107 0.000771
108 0.000771
109 0.000774
110 0.000774
111 0.000776
112 0.000776
113 0.000776
114 0.000779
115 0.000780
116 0.000782
117 0.000782
118 0.000780
119 0.000775
120 0.000774
121 0.000772
122 0.000766
123 0.000760
124 0.000754
125 0.000750
126 0.000748
127 0.000747
128 0.000743
129 0.000742
130 0.000741
131 0.000739
132 0.000739
133 0.000734
134 0.000734
135 0.000729
136 0.000728
137 0.000724
138 0.000726
139 0.000726
140 0.000728
141 0.000730
142 0.000729
143 0.000726
144 0.000722
145 0.000726
146 0.000727
147 0.000731
148 0.000737
149 0.000744
150 0.000745
151 0.000750
152 0.000753
153 0.000750
154 0.000744
155 0.000738
156 0.000736
157 0.000734
158 0.000730
159 0.000727
160 0.000721
161 0.000716
162 0.000711
163 0.000709
164 0.000711
165 0.000708
166 0.000703
167 0.000700
168 0.000694
169 0.000690
170 0.000689
171 0.000690
172 0.000689
173 0.000688
174 0.000688
175 0.000687
176 0.000688
177 0.000684
178 0.000683
179 0.000676
180 0.000669
181 0.000666
182 0.000662
183 0.000661
184 0.000661
185 0.000662
186 0.000664
187 0.000663
188 0.000658
189 0.000657
190 0.000654
191 0.000649
192 0.000642
193 0.000635
194 0.000631
195 0.000630
196 0.000631
197 0.000629
198 0.000625
199 0.000620
200 0.000619
201 0.000615
202 0.000612
203 0.000612
204 0.000616
205 0.000621
206 0.000626
207 0.000626
208 0.000626
209 0.000623
210 0.000621
211 0.000621
212 0.000618
213 0.000613
214 0.000609
215 0.000605
216 0.000600
217 0.000592
218 0.000588
219 0.000582
220 0.000577
221 0.000574
222 0.000575
223 0.000580
224 0.000583
225 0.000586
226 0.000587
227 0.000588
228 0.000591
229 0.000597
230 0.000601
231 0.000603
232 0.000605
233 0.000604
234 0.000600
235 0.000596
236 0.000591
237 0.000588
238 0.000588
239 0.000588
240 0.000589
241 0.000589
242 0.000588
243 0.000588
244 0.000588
245 0.000587
246 0.000587
247 0.000589
248 0.000591
249 0.000590
