# i correlation
1 0.001888
2 0.001845
3 0.001809
4 0.001778
5 0.001754
6 0.001730
7 0.001706
8 0.001687
9 0.001673
10 0.001655
11 0.001642
12 0.001632
13 0.001624
14 0.001612
15 0.001599
16 0.001585
17 0.001570
18 0.001559
19 0.001550
20 0.001535
21 0.001525
22 0.001515
23 0.001504
24 0.001494
25 0.001485
26 0.001479
27 0.001470
28 0.001461
29 0.001449
30 0.001438
31 0.001427
32 0.001418
33 0.001406
34 0.001396
35 0.001388
36 0.001381
37 0.001373
38 0.001366
39 0.001360
40 0.001356
41 0.001353
42 0.001343
43 0.001334
44 0.001323
45 0.001317
46 0.001312
47 0.001304
48 0.001294
49 0.001282
50 0.001271
51 0.001263
52 0.001257
53 0.001250
54 0.001243
55 0.001234
56 0.001224
57 0.001216
58 0.001209
59 0.001202
60 0.001198
61 0.001195
62 0.001193
63 0.001187
64 0.001187
65 0.001182
66 0.001179
67 0.001176
68 0.001170
69 0.001164
70 0.001161
71 0.001156
72 0.001146
73 0.001138
74 0.001125
75 0.001115
76 0.001098
77 0.001079
78 0.001065
79 0.001054
80 0.001048
81 0.001042
82 0.001039
83 0.001035
84 0.001031
85 0.001026
86 0.001026
87 0.001025
88 0.001024
89 0.001023
90 0.001022
91 0.001021
92 0.001022
93 0.001018
94 0.001013
95 0.001005
96 0.000996
97 0.000997
98 0.000998
99 0.000998
100 0.000998
101 0.000997
102 0.000996
103 0.000995
104 0.000994
105 0.000988
106 0.000982
107 0.000977
108 0.000974
109 0.000973
110 0.000972
111 0.000972
112 0.000965
113 0.000960
114 0.000955
115 0.000947
116 0.000943
117 0.000937
118 0.000932
119 0.000925
120 0.000916
121 0.000910
122 0.000906
123 0.000905
124 0.000905
125 0.000906
126 0.000911
127 0.000916
128 0.000921
129 0.000919
130 0.000914
131 0.000908
132 0.000905
133 0.000899
134 0.000891
135 0.000887
136 0.000881
137 0.000876
138 0.000871
139 0.000870
140 0.000869
141 0.000867
142 0.000862
143 0.000853
144 0.000848
145 0.000843
146 0.000836
147 0.000830
148 0.000819
149 0.000815
150 0.000814
151 0.000815
152 0.000814
153 0.000814
154 0.000816
155 0.000817
156 0.000817
157 0.000816
158 0.000814
159 0.000808
160 0.000803
161 0.000797
162 0.000787
163 0.000781
164 0.000779
165 0.000779
166 0.000779
167 0.000776
168 0.000777
169 0.000775
170 0.000773
171 0.000772
172 0.000775
173 0.000778
174 0.000778
175 0.000776
176 0.000775
177 0.000774
178 0.000772
179 0.000769
180 0.000759
181 0.000752
182 0.000747
183 0.000743
184 0.000739
185 0.000734
186 0.000730
187 0.000726
188 0.000723
189 0.000718
190 0.000717
191 0.000717
192 0.000721
193 0.000720
194 0.000719
195 0.000716
196 0.000716
197 0.000717
198 0.000718
199 0.000719
200 0.000721
201 0.000724
202 0.000725
203 0.000725
204 0.000724
205 0.000723
206 0.000719
207 0.000716
208 0.000712
209 0.000710
210 0.000705
211 0.000702
212 0.000697
213 0.000692
214 0.000689
215 0.000690
216 0.000686
217 0.000682
218 0.000677
219 0.000675
220 0.000677
221 0.000677
222 0.000678
223 0.000677
224 0.000675
225 0.000672
226 0.000668
227 0.000668
228 0.000664
229 0.000664
230 0.000668
231 0.000674
232 0.000678
233 0.000680
234 0.000676
235 0.000671
236 0.000672
237 0.000671
238 0.000672
239 0.000674
240 0.000672
241 0.000676
242 0.000677
243 0.000681
244 0.000684
245 0.000686
246 0.000687
247 0.000680
248 0.000674
249 0.000670
