# i correlation
1 0.001880
2 0.001838
3 0.001801
4 0.001773
5 0.001745
6 0.001716
7 0.001688
8 0.001665
9 0.001651
10 0.001637
11 0.001623
12 0.001604
13 0.001589
14 0.001573
15 0.001564
16 0.001557
17 0.001552
18 0.001546
19 0.001541
20 0.001538
21 0.001533
22 0.001525
23 0.001516
24 0.001506
25 0.001497
26 0.001490
27 0.001481
28 0.001475
29 0.001468
30 0.001462
31 0.001452
32 0.001443
33 0.001429
34 0.001419
35 0.001409
36 0.001397
37 0.001387
38 0.001376
39 0.001366
40 0.001358
41 0.001349
42 0.001339
43 0.001326
44 0.001314
45 0.001305
46 0.001301
47 0.001300
48 0.001296
49 0.001292
50 0.001287
51 0.001285
52 0.001281
53 0.001273
54 0.001263
55 0.001256
56 0.001251
57 0.001248
58 0.001249
59 0.001249
60 0.001246
61 0.001247
62 0.001247
63 0.001249
64 0.001249
65 0.001243
66 0.001240
67 0.001235
68 0.001230
69 0.001225
70 0.001221
71 0.001212
72 0.001201
73 0.001192
74 0.001182
75 0.001177
76 0.001170
77 0.001163
78 0.001160
79 0.001156
80 0.001150
81 0.001141
82 0.001138
83 0.001131
84 0.001123
85 0.001118
86 0.001116
87 0.001118
88 0.001117
89 0.001117
90 0.001115
91 0.001113
92 0.001113
93 0.001114
94 0.001109
95 0.001102
96 0.001099
97 0.001094
98 0.001095
99 0.001096
100 0.001096
101 0.001095
102 0.001093
103 0.001092
104 0.001086
105 0.001081
106 0.001071
107 0.001062
108 0.001056
109 0.001054
110 0.001053
111 0.001050
112 0.001051
113 0.001052
114 0.001052
115 0.001052
116 0.001052
117 0.001047
118 0.001043
119 0.001041
120 0.001039
121 0.001035
122 0.001030
123 0.001028
124 0.001025
125 0.001019
126 0.001013
127 0.001012
128 0.001010
129 0.001008
130 0.001007
131 0.001009
132 0.001009
133 0.001009
134 0.001012
135 0.001011
136 0.001012
137 0.001009
138 0.001006
139 0.001001
140 0.001003
141 0.001004
142 0.001003
143 0.001000
144 0.000996
145 0.000992
146 0.000986
147 0.000977
148 0.000966
149 0.000959
150 0.000954
151 0.000953
152 0.000948
153 0.000945
154 0.000938
155 0.000932
156 0.000928
157 0.000926
158 0.000922
159 0.000917
160 0.000910
161 0.000907
162 0.000905
163 0.000905
164 0.000906
165 0.000904
166 0.000901
167 0.000898
168 0.000895
169 0.000890
170 0.000884
171 0.000880
172 0.000873
173 0.000866
174 0.000863
175 0.000857
176 0.000848
177 0.000838
178 0.000830
179 0.000821
180 0.000816
181 0.000807
182 0.000802
183 0.000798
184 0.000794
185 0.000788
186 0.000783
187 0.000774
188 0.000764
189 0.000758
190 0.000751
191 0.000744
192 0.000740
193 0.000738
194 0.000736
195 0.000733
196 0.000731
197 0.000730
198 0.000734
199 0.000738
200 0.000735
201 0.000732
202 0.000733
203 0.000735
204 0.000735
205 0.000731
206 0.000726
207 0.000722
208 0.000720
209 0.000717
210 0.000716
211 0.000713
212 0.000708
213 0.000704
214 0.000701
215 0.000701
216 0.000698
217 0.000695
218 0.000695
219 0.000698
220 0.000699
221 0.000702
222 0.000699
223 0.000694
224 0.000688
225 0.000681
226 0.000674
227 0.000669
228 0.000665
229 0.000661
230 0.000654
231 0.000650
232 0.000645
233 0.000644
234 0.000643
235 0.000642
236 0.000641
237 0.000642
238 0.000644
239 0.000646
240 0.000645
241 0.000645
242 0.000646
243 0.000646
244 0.000645
245 0.000646
246 0.000647
247 0.000651
248 0.000651
249 0.000652
