# i correlation
1 0.001701
2 0.001661
3 0.001627
4 0.001603
5 0.001577
6 0.001553
7 0.001537
8 0.001522
9 0.001505
10 0.001484
11 0.001466
12 0.001452
13 0.001442
14 0.001426
15 0.001415
16 0.001404
17 0.001393
18 0.001375
19 0.001359
20 0.001348
21 0.001337
22 0.001327
23 0.001316
24 0.001311
25 0.001306
26 0.001305
27 0.001304
28 0.001304
29 0.001304
30 0.001304
31 0.001298
32 0.001287
33 0.001278
34 0.001270
35 0.001265
36 0.001257
37 0.001251
38 0.001242
39 0.001232
40 0.001223
41 0.001216
42 0.001206
43 0.001197
44 0.001191
45 0.001186
46 0.001181
47 0.001172
48 0.001165
49 0.001155
50 0.001151
51 0.001151
52 0.001150
53 0.001147
54 0.001143
55 0.001138
56 0.001136
57 0.001137
58 0.001133
59 0.001131
60 0.001128
61 0.001124
62 0.001115
63 0.001104
64 0.001096
65 0.001091
66 0.001087
67 0.001082
68 0.001078
69 0.001071
70 0.001064
71 0.001055
72 0.001044
73 0.001034
74 0.001023
75 0.001011
76 0.001000
77 0.000992
78 0.000983
79 0.000973
80 0.000961
81 0.000952
82 0.000945
83 0.000938
84 0.000929
85 0.000919
86 0.000915
87 0.000910
88 0.000910
89 0.000912
90 0.000915
91 0.000915
92 0.000914
93 0.000909
94 0.000907
95 0.000905
96 0.000905
97 0.000903
98 0.000903
99 0.000899
100 0.000891
101 0.000882
102 0.000874
103 0.000868
104 0.000863
105 0.000860
106 0.000855
107 0.000851
108 0.000843
109 0.000834
110 0.000830
111 0.000824
112 0.000817
113 0.000811
114 0.000807
115 0.000803
116 0.000800
117 0.000800
118 0.000802
119 0.000805
120 0.000811
121 0.000818
122 0.000822
123 0.000824
124 0.000826
125 0.000826
126 0.000825
127 0.000825
128 0.000825
129 0.000824
130 0.000825
131 0.000827
132 0.000826
133 0.000827
134 0.000828
135 0.000831
136 0.000832
137 0.000830
138 0.000826
139 0.000822
140 0.000819
141 0.000816
142 0.000812
143 0.000808
144 0.000800
145 0.000794
146 0.000790
147 0.000786
148 0.000784
149 0.000782
150 0.000780
151 0.000783
152 0.000782
153 0.000780
154 0.000777
155 0.000781
156 0.000785
157 0.000791
158 0.000791
159 0.000789
160 0.000788
161 0.000784
162 0.000777
163 0.000774
164 0.000771
165 0.000768
166 0.000764
167 0.000755
168 0.000750
169 0.000745
170 0.000739
171 0.000730
172 0.000725
173 0.000723
174 0.000722
175 0.000720
176 0.000717
177 0.000712
178 0.000709
179 0.000706
180 0.000698
181 0.000696
182 0.000696
183 0.000698
184 0.000698
185 0.000698
186 0.000706
187 0.000715
188 0.000721
189 0.000726
190 0.000733
191 0.000745
192 0.000752
193 0.000756
194 0.000762
195 0.000765
196 0.000766
197 0.000762
198 0.000758
199 0.000757
200 0.000758
201 0.000753
202 0.000748
203 0.000746
204 0.000743
205 0.000739
206 0.000736
207 0.000732
208 0.000729
209 0.000728
210 0.000728
211 0.000727
212 0.000723
213 0.000719
214 0.000714
215 0.000709
216 0.000708
217 0.000708
218 0.000708
219 0.000704
220 0.000703
221 0.000701
222 0.000696
223 0.000688
224 0.000680
225 0.000676
226 0.000671
227 0.000668
228 0.000663
229 0.000660
230 0.000654
231 0.000646
232 0.000638
233 0.000629
234 0.000623
235 0.000621
236 0.000620
237 0.000616
238 0.000610
239 0.000601
240 0.000598
241 0.000592
242 0.000586
243 0.000584
244 0.000584
245 0.000587
246 0.000589
247 0.000594
248 0.000602
249 0.000606
