# i correlation
1 0.001744
2 0.001698
3 0.001657
4 0.001617
5 0.001585
6 0.001554
7 0.001522
8 0.001494
9 0.001469
10 0.001443
11 0.001423
12 0.001407
13 0.001392
14 0.001378
15 0.001364
16 0.001352
17 0.001342
18 0.001338
19 0.001332
20 0.001326
21 0.001323
22 0.001318
23 0.001309
24 0.001303
25 0.001300
26 0.001292
27 0.001288
28 0.001285
29 0.001279
30 0.001268
31 0.001258
32 0.001249
33 0.001242
34 0.001237
35 0.001232
36 0.001225
37 0.001222
38 0.001219
39 0.001213
40 0.001204
41 0.001191
42 0.001180
43 0.001171
44 0.001162
45 0.001157
46 0.001154
47 0.001147
48 0.001142
49 0.001132
50 0.001123
51 0.001114
52 0.001102
53 0.001091
54 0.001080
55 0.001068
56 0.001058
57 0.001048
58 0.001037
59 0.001025
60 0.001017
61 0.001009
62 0.001002
63 0.000998
64 0.000995
65 0.000995
66 0.000998
67 0.000999
68 0.000995
69 0.000987
70 0.000983
71 0.000979
72 0.000978
73 0.000977
74 0.000972
75 0.000972
76 0.000977
77 0.000982
78 0.000984
79 0.000984
80 0.000979
81 0.000971
82 0.000964
83 0.000960
84 0.000954
85 0.000952
86 0.000948
87 0.000943
88 0.000938
89 0.000936
90 0.000933
91 0.000928
92 0.000925
93 0.000919
94 0.000913
95 0.000908
96 0.000905
97 0.000904
98 0.000902
99 0.000899
100 0.000897
101 0.000890
102 0.000882
103 0.000875
104 0.000866
105 0.000859
106 0.000851
107 0.000843
108 0.000836
109 0.000829
110 0.000825
111 0.000820
112 0.000816
113 0.000812
114 0.000810
115 0.000809
116 0.000806
117 0.000801
118 0.000798
119 0.000794
120 0.000790
121 0.000787
122 0.000785
123 0.000781
124 0.000777
125 0.000771
126 0.000765
127 0.000759
128 0.000754
129 0.000748
130 0.000743
131 0.000735
132 0.000727
133 0.000722
134 0.000721
135 0.000723
136 0.000725
137 0.000723
138 0.000723
139 0.000722
140 0.000718
141 0.000713
142 0.000707
143 0.000712
144 0.000715
145 0.000716
146 0.000711
147 0.000708
148 0.000705
149 0.000706
150 0.000702
151 0.000699
152 0.000695
153 0.000691
154 0.000683
155 0.000673
156 0.000666
157 0.000660
158 0.000658
159 0.000650
160 0.000643
161 0.000635
162 0.000627
163 0.000624
164 0.000619
165 0.000618
166 0.000616
167 0.000613
168 0.000610
169 0.000604
170 0.000599
171 0.000592
172 0.000589
173 0.000586
174 0.000584
175 0.000587
176 0.000589
177 0.000593
178 0.000596
179 0.000599
180 0.000601
181 0.000603
182 0.000601
183 0.000599
184 0.000599
185 0.000602
186 0.000607
187 0.000614
188 0.000619
189 0.000621
190 0.000619
191 0.000618
192 0.000617
193 0.000614
194 0.000609
195 0.000602
196 0.000596
197 0.000588
198 0.000578
199 0.000570
200 0.000565
201 0.000561
202 0.000559
203 0.000558
204 0.000555
205 0.000555
206 0.000555
207 0.000551
208 0.000545
209 0.000538
210 0.000536
211 0.000533
212 0.000536
213 0.000538
214 0.000539
215 0.000543
216 0.000547
217 0.000547
218 0.000546
219 0.000544
220 0.000543
221 0.000544
222 0.000544
223 0.000545
224 0.000550
225 0.000554
226 0.000558
227 0.000561
228 0.000561
229 0.000563
230 0.000566
231 0.000569
232 0.000567
233 0.000561
234 0.000559
235 0.000557
236 0.000553
237 0.000552
238 0.000549
239 0.000547
240 0.000543
241 0.000542
242 0.000545
243 0.000548
244 0.000549
245 0.000550
246 0.000546
247 0.000537
248 0.000529
249 0.000524
