# i correlation
1 0.001624
2 0.001589
3 0.001559
4 0.001536
5 0.001515
6 0.001495
7 0.001475
8 0.001457
9 0.001436
10 0.001418
11 0.001410
12 0.001406
13 0.001398
14 0.001387
15 0.001380
16 0.001374
17 0.001367
18 0.001360
19 0.001351
20 0.001344
21 0.001339
22 0.001332
23 0.001328
24 0.001318
25 0.001309
26 0.001300
27 0.001298
28 0.001294
29 0.001291
30 0.001284
31 0.001280
32 0.001278
33 0.001277
34 0.001272
35 0.001270
36 0.001269
37 0.001265
38 0.001255
39 0.001245
40 0.001239
41 0.001235
42 0.001226
43 0.001217
44 0.001208
45 0.001198
46 0.001192
47 0.001185
48 0.001179
49 0.001173
50 0.001165
51 0.001158
52 0.001156
53 0.001150
54 0.001149
55 0.001145
56 0.001145
57 0.001141
58 0.001137
59 0.001129
60 0.001126
61 0.001122
62 0.001120
63 0.001119
64 0.001118
65 0.001116
66 0.001110
67 0.001105
68 0.001101
69 0.001100
70 0.001097
71 0.001088
72 0.001076
73 0.001062
74 0.001053
75 0.001045
76 0.001036
77 0.001034
78 0.001029
79 0.001026
80 0.001023
81 0.001022
82 0.001021
83 0.001021
84 0.001018
85 0.001016
86 0.001012
87 0.001012
88 0.001012
89 0.001012
90 0.001010
91 0.001009
92 0.001008
93 0.001007
94 0.001003
95 0.001005
96 0.001001
97 0.000995
98 0.000988
99 0.000980
100 0.000976
101 0.000970
102 0.000965
103 0.000963
104 0.000962
105 0.000956
106 0.000949
107 0.000940
108 0.000932
109 0.000928
110 0.000924
111 0.000920
112 0.000915
113 0.000905
114 0.000899
115 0.000896
116 0.000896
117 0.000891
118 0.000892
119 0.000892
120 0.000890
121 0.000888
122 0.000884
123 0.000876
124 0.000869
125 0.000862
126 0.000858
127 0.000860
128 0.000857
129 0.000853
130 0.000850
131 0.000847
132 0.000848
133 0.000847
134 0.000847
135 0.000846
136 0.000846
137 0.000850
138 0.000852
139 0.000856
140 0.000853
141 0.000850
142 0.000846
143 0.000849
144 0.000849
145 0.000851
146 0.000849
147 0.000848
148 0.000845
149 0.000842
150 0.000840
151 0.000840
152 0.000837
153 0.000831
154 0.000826
155 0.000825
156 0.000827
157 0.000828
158 0.000829
159 0.000831
160 0.000836
161 0.000837
162 0.000837
163 0.000837
164 0.000832
165 0.000831
166 0.000831
167 0.000830
168 0.000833
169 0.000833
170 0.000826
171 0.000820
172 0.000815
173 0.000809
174 0.000806
175 0.000805
176 0.000804
177 0.000800
178 0.000796
179 0.000795
180 0.000798
181 0.000803
182 0.000801
183 0.000801
184 0.000802
185 0.000798
186 0.000798
187 0.000796
188 0.000792
189 0.000790
190 0.000785
191 0.000783
192 0.000779
193 0.000772
194 0.000765
195 0.000758
196 0.000754
197 0.000755
198 0.000759
199 0.000764
200 0.000765
201 0.000765
202 0.000761
203 0.000760
204 0.000759
205 0.000755
206 0.000756
207 0.000750
208 0.000746
209 0.000744
210 0.000741
211 0.000737
212 0.000735
213 0.000736
214 0.000739
215 0.000738
216 0.000737
217 0.000737
218 0.000733
219 0.000726
220 0.000722
221 0.000716
222 0.000709
223 0.000702
224 0.000695
225 0.000694
226 0.000692
227 0.000690
228 0.000687
229 0.000683
230 0.000681
231 0.000679
232 0.000681
233 0.000682
234 0.000677
235 0.000672
236 0.000666
237 0.000661
238 0.000656
239 0.000651
240 0.000647
241 0.000642
242 0.000632
243 0.000627
244 0.000625
245 0.000624
246 0.000627
247 0.000628
248 0.000631
249 0.000631
