# i correlation
1 0.001478
2 0.001436
3 0.001400
4 0.001369
5 0.001344
6 0.001319
7 0.001293
8 0.001271
9 0.001254
10 0.001236
11 0.001213
12 0.001194
13 0.001175
14 0.001159
15 0.001142
16 0.001124
17 0.001106
18 0.001093
19 0.001085
20 0.001077
21 0.001067
22 0.001061
23 0.001058
24 0.001056
25 0.001054
26 0.001059
27 0.001060
28 0.001059
29 0.001058
30 0.001058
31 0.001060
32 0.001059
33 0.001052
34 0.001044
35 0.001037
36 0.001029
37 0.001021
38 0.001010
39 0.001001
40 0.000994
41 0.000991
42 0.000984
43 0.000971
44 0.000963
45 0.000959
46 0.000956
47 0.000950
48 0.000943
49 0.000934
50 0.000928
51 0.000923
52 0.000918
53 0.000908
54 0.000896
55 0.000885
56 0.000881
57 0.000882
58 0.000888
59 0.000892
60 0.000896
61 0.000899
62 0.000896
63 0.000890
64 0.000882
65 0.000879
66 0.000876
67 0.000874
68 0.000870
69 0.000866
70 0.000865
71 0.000866
72 0.000866
73 0.000867
74 0.000864
75 0.000860
76 0.000853
77 0.000847
78 0.000842
79 0.000833
80 0.000825
81 0.000814
82 0.000804
83 0.000794
84 0.000785
85 0.000775
86 0.000767
87 0.000761
88 0.000755
89 0.000751
90 0.000748
91 0.000739
92 0.000733
93 0.000731
94 0.000729
95 0.000727
96 0.000723
97 0.000722
98 0.000725
99 0.000727
100 0.000728
101 0.000728
102 0.000728
103 0.000727
104 0.000723
105 0.000720
106 0.000718
107 0.000717
108 0.000718
109 0.000717
110 0.000717
111 0.000715
112 0.000714
113 0.000708
114 0.000705
115 0.000698
116 0.000693
117 0.000695
118 0.000697
119 0.000701
120 0.000701
121 0.000701
122 0.000702
123 0.000703
124 0.000701
125 0.000697
126 0.000692
127 0.000685
128 0.000682
129 0.000675
130 0.000672
131 0.000669
132 0.000663
133 0.000659
134 0.000659
135 0.000658
136 0.000660
137 0.000661
138 0.000662
139 0.000660
140 0.000659
141 0.000658
142 0.000657
143 0.000656
144 0.000650
145 0.000642
146 0.000637
147 0.000633
148 0.000627
149 0.000623
150 0.000620
151 0.000619
152 0.000616
153 0.000614
154 0.000612
155 0.000611
156 0.000609
157 0.000603
158 0.000598
159 0.000590
160 0.000585
161 0.000583
162 0.000581
163 0.000579
164 0.000575
165 0.000575
166 0.000576
167 0.000578
168 0.000577
169 0.000577
170 0.000579
171 0.000581
172 0.000586
173 0.000588
174 0.000588
175 0.000592
176 0.000589
177 0.000586
178 0.000584
179 0.000583
180 0.000584
181 0.000582
182 0.000582
183 0.000584
184 0.000586
185 0.000586
186 0.000580
187 0.000578
188 0.000575
189 0.000575
190 0.000571
191 0.000564
192 0.000561
193 0.000555
194 0.000549
195 0.000547
196 0.000547
197 0.000548
198 0.000554
199 0.000560
200 0.000560
201 0.000561
202 0.000562
203 0.000561
204 0.000559
205 0.000554
206 0.000551
207 0.000548
208 0.000546
209 0.000544
210 0.000539
211 0.000536
212 0.000534
213 0.000531
214 0.000530
215 0.000529
216 0.000528
217 0.000524
218 0.000520
219 0.000519
220 0.000519
221 0.000518
222 0.000514
223 0.000510
224 0.000508
225 0.000508
226 0.000506
227 0.000501
228 0.000492
229 0.000489
230 0.000487
231 0.000484
232 0.000481
233 0.000483
234 0.000480
235 0.000477
236 0.000477
237 0.000475
238 0.000477
239 0.000475
240 0.000476
241 0.000475
242 0.000474
243 0.000473
244 0.000474
245 0.000477
246 0.000480
247 0.000484
248 0.000486
249 0.000492
