# i correlation
1 0.001554
2 0.001513
3 0.001478
4 0.001449
5 0.001423
6 0.001402
7 0.001385
8 0.001370
9 0.001354
10 0.001338
11 0.001330
12 0.001326
13 0.001315
14 0.001305
15 0.001295
16 0.001283
17 0.001278
18 0.001276
19 0.001269
20 0.001262
21 0.001256
22 0.001249
23 0.001241
24 0.001237
25 0.001235
26 0.001227
27 0.001216
28 0.001205
29 0.001197
30 0.001194
31 0.001189
32 0.001188
33 0.001186
34 0.001183
35 0.001182
36 0.001176
37 0.001170
38 0.001165
39 0.001159
40 0.001151
41 0.001143
42 0.001140
43 0.001135
44 0.001126
45 0.001119
46 0.001114
47 0.001113
48 0.001113
49 0.001116
50 0.001119
51 0.001120
52 0.001119
53 0.001116
54 0.001114
55 0.001111
56 0.001108
57 0.001105
58 0.001100
59 0.001094
60 0.001088
61 0.001083
62 0.001074
63 0.001062
64 0.001055
65 0.001048
66 0.001042
67 0.001036
68 0.001030
69 0.001023
70 0.001015
71 0.001004
72 0.000996
73 0.000992
74 0.000987
75 0.000982
76 0.000975
77 0.000969
78 0.000963
79 0.000962
80 0.000960
81 0.000957
82 0.000956
83 0.000953
84 0.000949
85 0.000946
86 0.000947
87 0.000944
88 0.000938
89 0.000933
90 0.000928
91 0.000927
92 0.000928
93 0.000926
94 0.000928
95 0.000926
96 0.000923
97 0.000919
98 0.000916
99 0.000912
100 0.000906
101 0.000902
102 0.000900
103 0.000898
104 0.000895
105 0.000892
106 0.000888
107 0.000883
108 0.000875
109 0.000871
110 0.000869
111 0.000866
112 0.000864
113 0.000860
114 0.000855
115 0.000853
116 0.000850
117 0.000848
118 0.000845
119 0.000846
120 0.000843
121 0.000839
122 0.000835
123 0.000830
124 0.000825
125 0.000820
126 0.000815
127 0.000815
128 0.000815
129 0.000818
130 0.000819
131 0.000819
132 0.000817
133 0.000813
134 0.000811
135 0.000811
136 0.000812
137 0.000816
138 0.000815
139 0.000815
140 0.000816
141 0.000815
142 0.000814
143 0.000811
144 0.000811
145 0.000810
146 0.000805
147 0.000804
148 0.000802
149 0.000803
150 0.000803
151 0.000800
152 0.000800
153 0.000796
154 0.000795
155 0.000792
156 0.000790
157 0.000789
158 0.000785
159 0.000783
160 0.000780
161 0.000780
162 0.000777
163 0.000771
164 0.000771
165 0.000770
166 0.000771
167 0.000767
168 0.000764
169 0.000762
170 0.000758
171 0.000751
172 0.000748
173 0.000744
174 0.000742
175 0.000739
176 0.000735
177 0.000731
178 0.000727
179 0.000724
180 0.000719
181 0.000715
182 0.000708
183 0.000706
184 0.000704
185 0.000702
186 0.000704
187 0.000700
188 0.000696
189 0.000696
190 0.000696
191 0.000698
192 0.000696
193 0.000692
194 0.000689
195 0.000685
196 0.000676
197 0.000671
198 0.000670
199 0.000666
200 0.000662
201 0.000661
202 0.000658
203 0.000656
204 0.000657
205 0.000657
206 0.000655
207 0.000655
208 0.000657
209 0.000657
210 0.000654
211 0.000650
212 0.000646
213 0.000642
214 0.000636
215 0.000635
216 0.000635
217 0.000632
218 0.000631
219 0.000633
220 0.000635
221 0.000633
222 0.000632
223 0.000632
224 0.000631
225 0.000631
226 0.000633
227 0.000637
228 0.000633
229 0.000625
230 0.000624
231 0.000626
232 0.000626
233 0.000625
234 0.000625
235 0.000619
236 0.000614
237 0.000606
238 0.000598
239 0.000596
240 0.000594
241 0.000597
242 0.000597
243 0.000600
244 0.000601
245 0.000607
246 0.000609
247 0.000609
248 0.000605
249 0.000598
