# i correlation
1 0.001886
2 0.001839
3 0.001797
4 0.001762
5 0.001732
6 0.001700
7 0.001674
8 0.001651
9 0.001629
10 0.001611
11 0.001593
12 0.001577
13 0.001564
14 0.001551
15 0.001536
16 0.001522
17 0.001505
18 0.001489
19 0.001477
20 0.001463
21 0.001452
22 0.001442
23 0.001435
24 0.001426
25 0.001418
26 0.001413
27 0.001411
28 0.001406
29 0.001405
30 0.001403
31 0.001400
32 0.001393
33 0.001386
34 0.001371
35 0.001354
36 0.001339
37 0.001326
38 0.001311
39 0.001298
40 0.001291
41 0.001286
42 0.001277
43 0.001270
44 0.001256
45 0.001245
46 0.001234
47 0.001225
48 0.001219
49 0.001215
50 0.001212
51 0.001204
52 0.001199
53 0.001196
54 0.001199
55 0.001198
56 0.001196
57 0.001192
58 0.001189
59 0.001187
60 0.001184
61 0.001177
62 0.001173
63 0.001167
64 0.001158
65 0.001148
66 0.001135
67 0.001121
68 0.001109
69 0.001105
70 0.001100
71 0.001099
72 0.001097
73 0.001096
74 0.001097
75 0.001095
76 0.001088
77 0.001078
78 0.001069
79 0.001064
80 0.001058
81 0.001048
82 0.001045
83 0.001042
84 0.001040
85 0.001040
86 0.001037
87 0.001037
88 0.001032
89 0.001028
90 0.001027
91 0.001024
92 0.001023
93 0.001026
94 0.001024
95 0.001022
96 0.001020
97 0.001017
98 0.001012
99 0.001008
100 0.001006
101 0.001002
102 0.000997
103 0.000994
104 0.000994
105 0.000998
106 0.001000
107 0.000999
108 0.000994
109 0.000988
110 0.000978
111 0.000970
112 0.000968
113 0.000969
114 0.000969
115 0.000968
116 0.000970
117 0.000971
118 0.000974
119 0.000976
120 0.000973
121 0.000971
122 0.000967
123 0.000962
124 0.000957
125 0.000955
126 0.000951
127 0.000948
128 0.000950
129 0.000953
130 0.000957
131 0.000960
132 0.000963
133 0.000967
134 0.000969
135 0.000968
136 0.000966
137 0.000962
138 0.000957
139 0.000951
140 0.000944
141 0.000939
142 0.000938
143 0.000936
144 0.000935
145 0.000933
146 0.000928
147 0.000927
148 0.000926
149 0.000922
150 0.000917
151 0.000912
152 0.000906
153 0.000900
154 0.000896
155 0.000894
156 0.000890
157 0.000886
158 0.000884
159 0.000885
160 0.000882
161 0.000884
162 0.000885
163 0.000885
164 0.000883
165 0.000881
166 0.000876
167 0.000871
168 0.000867
169 0.000862
170 0.000861
171 0.000861
172 0.000859
173 0.000856
174 0.000859
175 0.000858
176 0.000856
177 0.000853
178 0.000851
179 0.000850
180 0.000852
181 0.000856
182 0.000855
183 0.000852
184 0.000849
185 0.000845
186 0.000840
187 0.000834
188 0.000830
189 0.000828
190 0.000825
191 0.000823
192 0.000823
193 0.000822
194 0.000819
195 0.000810
196 0.000807
197 0.000801
198 0.000797
199 0.000789
200 0.000782
201 0.000778
202 0.000777
203 0.000770
204 0.000759
205 0.000753
206 0.000747
207 0.000741
208 0.000741
209 0.000738
210 0.000735
211 0.000732
212 0.000731
213 0.000737
214 0.000742
215 0.000747
216 0.000747
217 0.000746
218 0.000745
219 0.000744
220 0.000744
221 0.000741
222 0.000740
223 0.000742
224 0.000743
225 0.000746
226 0.000749
227 0.000749
228 0.000744
229 0.000737
230 0.000732
231 0.000729
232 0.000723
233 0.000715
234 0.000712
235 0.000709
236 0.000706
237 0.000703
238 0.000696
239 0.000693
240 0.000686
241 0.000681
242 0.000679
243 0.000681
244 0.000685
245 0.000688
246 0.000692
247 0.000695
248 0.000698
249 0.000700
