# i correlation
1 0.001702
2 0.001662
3 0.001626
4 0.001597
5 0.001574
6 0.001554
7 0.001537
8 0.001520
9 0.001504
10 0.001490
11 0.001473
12 0.001455
13 0.001438
14 0.001419
15 0.001405
16 0.001397
17 0.001391
18 0.001382
19 0.001373
20 0.001364
21 0.001359
22 0.001348
23 0.001340
24 0.001331
25 0.001326
26 0.001323
27 0.001323
28 0.001325
29 0.001324
30 0.001322
31 0.001322
32 0.001318
33 0.001317
34 0.001314
35 0.001308
36 0.001303
37 0.001299
38 0.001298
39 0.001293
40 0.001292
41 0.001288
42 0.001285
43 0.001285
44 0.001282
45 0.001278
46 0.001280
47 0.001278
48 0.001275
49 0.001270
50 0.001260
51 0.001256
52 0.001252
53 0.001248
54 0.001243
55 0.001235
56 0.001229
57 0.001223
58 0.001217
59 0.001207
60 0.001197
61 0.001187
62 0.001179
63 0.001170
64 0.001162
65 0.001155
66 0.001144
67 0.001137
68 0.001130
69 0.001122
70 0.001112
71 0.001109
72 0.001105
73 0.001104
74 0.001104
75 0.001101
76 0.001099
77 0.001098
78 0.001097
79 0.001098
80 0.001097
81 0.001098
82 0.001096
83 0.001095
84 0.001096
85 0.001094
86 0.001090
87 0.001087
88 0.001083
89 0.001077
90 0.001072
91 0.001066
92 0.001057
93 0.001048
94 0.001039
95 0.001034
96 0.001032
97 0.001023
98 0.001016
99 0.001010
100 0.001003
101 0.000999
102 0.000995
103 0.000988
104 0.000980
105 0.000973
106 0.000967
107 0.000961
108 0.000953
109 0.000946
110 0.000937
111 0.000932
112 0.000931
113 0.000932
114 0.000934
115 0.000940
116 0.000942
117 0.000944
118 0.000944
119 0.000940
120 0.000935
121 0.000930
122 0.000926
123 0.000922
124 0.000916
125 0.000910
126 0.000905
127 0.000904
128 0.000903
129 0.000903
130 0.000903
131 0.000898
132 0.000892
133 0.000889
134 0.000884
135 0.000876
136 0.000869
137 0.000865
138 0.000866
139 0.000870
140 0.000876
141 0.000878
142 0.000875
143 0.000869
144 0.000863
145 0.000861
146 0.000858
147 0.000854
148 0.000852
149 0.000851
150 0.000849
151 0.000846
152 0.000842
153 0.000838
154 0.000832
155 0.000828
156 0.000829
157 0.000829
158 0.000830
159 0.000832
160 0.000833
161 0.000831
162 0.000824
163 0.000823
164 0.000821
165 0.000817
166 0.000814
167 0.000812
168 0.000811
169 0.000811
170 0.000816
171 0.000818
172 0.000817
173 0.000815
174 0.000812
175 0.000803
176 0.000798
177 0.000792
178 0.000786
179 0.000780
180 0.000775
181 0.000768
182 0.000761
183 0.000754
184 0.000749
185 0.000743
186 0.000739
187 0.000737
188 0.000735
189 0.000734
190 0.000732
191 0.000734
192 0.000733
193 0.000731
194 0.000731
195 0.000728
196 0.000725
197 0.000725
198 0.000725
199 0.000723
200 0.000724
201 0.000724
202 0.000725
203 0.000723
204 0.000725
205 0.000731
206 0.000732
207 0.000730
208 0.000723
209 0.000713
210 0.000706
211 0.000697
212 0.000690
213 0.000683
214 0.000679
215 0.000673
216 0.000667
217 0.000664
218 0.000660
219 0.000657
220 0.000651
221 0.000645
222 0.000642
223 0.000640
224 0.000638
225 0.000638
226 0.000638
227 0.000635
228 0.000632
229 0.000631
230 0.000632
231 0.000634
232 0.000634
233 0.000634
234 0.000633
235 0.000633
236 0.000633
237 0.000631
238 0.000630
239 0.000626
240 0.000624
241 0.000622
242 0.000622
243 0.000620
244 0.000618
245 0.000615
246 0.000609
247 0.000607
248 0.000608
249 0.000605
