# i correlation
1 0.001416
2 0.001377
3 0.001344
4 0.001318
5 0.001292
6 0.001269
7 0.001252
8 0.001234
9 0.001219
10 0.001204
11 0.001189
12 0.001175
13 0.001161
14 0.001148
15 0.001138
16 0.001128
17 0.001120
18 0.001118
19 0.001119
20 0.001117
21 0.001111
22 0.001104
23 0.001099
24 0.001092
25 0.001086
26 0.001079
27 0.001074
28 0.001072
29 0.001066
30 0.001058
31 0.001047
32 0.001035
33 0.001026
34 0.001021
35 0.001019
36 0.001014
37 0.001006
38 0.000999
39 0.000991
40 0.000988
41 0.000986
42 0.000982
43 0.000977
44 0.000973
45 0.000971
46 0.000968
47 0.000962
48 0.000956
49 0.000952
50 0.000950
51 0.000944
52 0.000938
53 0.000934
54 0.000928
55 0.000922
56 0.000916
57 0.000912
58 0.000907
59 0.000905
60 0.000901
61 0.000897
62 0.000891
63 0.000892
64 0.000893
65 0.000892
66 0.000893
67 0.000892
68 0.000889
69 0.000888
70 0.000889
71 0.000890
72 0.000886
73 0.000882
74 0.000877
75 0.000871
76 0.000865
77 0.000858
78 0.000852
79 0.000849
80 0.000845
81 0.000843
82 0.000842
83 0.000843
84 0.000845
85 0.000846
86 0.000847
87 0.000848
88 0.000850
89 0.000848
90 0.000847
91 0.000844
92 0.000838
93 0.000837
94 0.000836
95 0.000834
96 0.000832
97 0.000828
98 0.000821
99 0.000814
100 0.000804
101 0.000801
102 0.000795
103 0.000789
104 0.000784
105 0.000777
106 0.000772
107 0.000767
108 0.000763
109 0.000761
110 0.000762
111 0.000762
112 0.000761
113 0.000762
114 0.000762
115 0.000759
116 0.000758
117 0.000756
118 0.000758
119 0.000756
120 0.000755
121 0.000752
122 0.000749
123 0.000747
124 0.000750
125 0.000751
126 0.000751
127 0.000747
128 0.000741
129 0.000740
130 0.000739
131 0.000735
132 0.000731
133 0.000728
134 0.000725
135 0.000721
136 0.000716
137 0.000707
138 0.000697
139 0.000688
140 0.000678
141 0.000672
142 0.000667
143 0.000663
144 0.000663
145 0.000665
146 0.000667
147 0.000668
148 0.000672
149 0.000671
150 0.000671
151 0.000671
152 0.000671
153 0.000671
154 0.000674
155 0.000674
156 0.000676
157 0.000674
158 0.000667
159 0.000662
160 0.000659
161 0.000658
162 0.000657
163 0.000656
164 0.000655
165 0.000654
166 0.000650
167 0.000649
168 0.000646
169 0.000642
170 0.000640
171 0.000637
172 0.000636
173 0.000638
174 0.000637
175 0.000636
176 0.000640
177 0.000645
178 0.000645
179 0.000646
180 0.000649
181 0.000650
182 0.000653
183 0.000653
184 0.000650
185 0.000647
186 0.000641
187 0.000633
188 0.000627
189 0.000619
190 0.000612
191 0.000605
192 0.000601
193 0.000595
194 0.000586
195 0.000579
196 0.000575
197 0.000575
198 0.000575
199 0.000573
200 0.000572
201 0.000572
202 0.000571
203 0.000571
204 0.000572
205 0.000572
206 0.000569
207 0.000565
208 0.000562
209 0.000557
210 0.000552
211 0.000546
212 0.000544
213 0.000540
214 0.000538
215 0.000539
216 0.000540
217 0.000544
218 0.000547
219 0.000546
220 0.000547
221 0.000549
222 0.000548
223 0.000547
224 0.000545
225 0.000542
226 0.000540
227 0.000539
228 0.000537
229 0.000531
230 0.000527
231 0.000523
232 0.000519
233 0.000516
234 0.000514
235 0.000509
236 0.000506
237 0.000502
238 0.000497
239 0.000491
240 0.000490
241 0.000488
242 0.000486
243 0.000484
244 0.000484
245 0.000488
246 0.000489
247 0.000491
248 0.000491
249 0.000496
