# i correlation
1 0.001512
2 0.001476
3 0.001444
4 0.001419
5 0.001394
6 0.001372
7 0.001350
8 0.001329
9 0.001309
10 0.001293
11 0.001282
12 0.001273
13 0.001267
14 0.001258
15 0.001251
16 0.001242
17 0.001232
18 0.001224
19 0.001217
20 0.001208
21 0.001204
22 0.001200
23 0.001196
24 0.001185
25 0.001175
26 0.001164
27 0.001155
28 0.001148
29 0.001140
30 0.001130
31 0.001120
32 0.001114
33 0.001109
34 0.001103
35 0.001099
36 0.001097
37 0.001095
38 0.001092
39 0.001088
40 0.001081
41 0.001072
42 0.001065
43 0.001061
44 0.001052
45 0.001043
46 0.001031
47 0.001022
48 0.001016
49 0.001008
50 0.001001
51 0.000996
52 0.000991
53 0.000980
54 0.000973
55 0.000969
56 0.000963
57 0.000955
58 0.000952
59 0.000947
60 0.000944
61 0.000940
62 0.000937
63 0.000937
64 0.000935
65 0.000931
66 0.000925
67 0.000919
68 0.000911
69 0.000906
70 0.000902
71 0.000902
72 0.000903
73 0.000903
74 0.000899
75 0.000898
76 0.000896
77 0.000896
78 0.000892
79 0.000888
80 0.000887
81 0.000890
82 0.000891
83 0.000894
84 0.000898
85 0.000900
86 0.000901
87 0.000902
88 0.000907
89 0.000907
90 0.000907
91 0.000908
92 0.000907
93 0.000904
94 0.000903
95 0.000900
96 0.000897
97 0.000892
98 0.000885
99 0.000882
100 0.000876
101 0.000869
102 0.000863
103 0.000856
104 0.000850
105 0.000845
106 0.000842
107 0.000840
108 0.000836
109 0.000830
110 0.000824
111 0.000821
112 0.000820
113 0.000819
114 0.000819
115 0.000816
116 0.000810
117 0.000802
118 0.000797
119 0.000796
120 0.000795
121 0.000791
122 0.000787
123 0.000784
124 0.000780
125 0.000777
126 0.000776
127 0.000776
128 0.000774
129 0.000772
130 0.000769
131 0.000770
132 0.000770
133 0.000768
134 0.000763
135 0.000761
136 0.000759
137 0.000756
138 0.000752
139 0.000750
140 0.000747
141 0.000741
142 0.000734
143 0.000727
144 0.000720
145 0.000715
146 0.000707
147 0.000700
148 0.000694
149 0.000688
150 0.000681
151 0.000676
152 0.000672
153 0.000668
154 0.000666
155 0.000663
156 0.000658
157 0.000655
158 0.000653
159 0.000646
160 0.000639
161 0.000631
162 0.000622
163 0.000618
164 0.000614
165 0.000608
166 0.000601
167 0.000595
168 0.000590
169 0.000586
170 0.000583
171 0.000583
172 0.000582
173 0.000578
174 0.000576
175 0.000579
176 0.000580
177 0.000580
178 0.000579
179 0.000579
180 0.000575
181 0.000570
182 0.000568
183 0.000568
184 0.000563
185 0.000559
186 0.000557
187 0.000552
188 0.000547
189 0.000538
190 0.000531
191 0.000528
192 0.000525
193 0.000521
194 0.000516
195 0.000513
196 0.000512
197 0.000510
198 0.000510
199 0.000516
200 0.000521
201 0.000521
202 0.000518
203 0.000518
204 0.000519
205 0.000514
206 0.000511
207 0.000510
208 0.000507
209 0.000505
210 0.000501
211 0.000495
212 0.000494
213 0.000493
214 0.000495
215 0.000496
216 0.000498
217 0.000497
218 0.000496
219 0.000494
220 0.000494
221 0.000494
222 0.000493
223 0.000491
224 0.000487
225 0.000482
226 0.000482
227 0.000481
228 0.000483
229 0.000480
230 0.000476
231 0.000473
232 0.000471
233 0.000471
234 0.000471
235 0.000470
236 0.000471
237 0.000470
238 0.000472
239 0.000475
240 0.000475
241 0.000475
242 0.000473
243 0.000471
244 0.000467
245 0.000463
246 0.000464
247 0.000463
248 0.000460
249 0.000456
