# i correlation
1 0.001702
2 0.001668
3 0.001638
4 0.001613
5 0.001592
6 0.001574
7 0.001557
8 0.001536
9 0.001515
10 0.001499
11 0.001487
12 0.001475
13 0.001463
14 0.001451
15 0.001439
16 0.001428
17 0.001418
18 0.001412
19 0.001405
20 0.001398
21 0.001389
22 0.001382
23 0.001376
24 0.001365
25 0.001359
26 0.001357
27 0.001351
28 0.001347
29 0.001342
30 0.001335
31 0.001327
32 0.001316
33 0.001307
34 0.001299
35 0.001290
36 0.001283
37 0.001274
38 0.001268
39 0.001260
40 0.001258
41 0.001254
42 0.001248
43 0.001241
44 0.001228
45 0.001218
46 0.001210
47 0.001204
48 0.001200
49 0.001199
50 0.001197
51 0.001194
52 0.001191
53 0.001187
54 0.001188
55 0.001187
56 0.001187
57 0.001184
58 0.001185
59 0.001183
60 0.001181
61 0.001185
62 0.001187
63 0.001185
64 0.001182
65 0.001176
66 0.001172
67 0.001168
68 0.001167
69 0.001166
70 0.001158
71 0.001150
72 0.001143
73 0.001138
74 0.001133
75 0.001123
76 0.001116
77 0.001108
78 0.001101
79 0.001095
80 0.001095
81 0.001096
82 0.001097
83 0.001097
84 0.001097
85 0.001089
86 0.001083
87 0.001079
88 0.001074
89 0.001068
90 0.001060
91 0.001047
92 0.001038
93 0.001028
94 0.001019
95 0.001009
96 0.001000
97 0.000992
98 0.000984
99 0.000978
100 0.000972
101 0.000965
102 0.000961
103 0.000958
104 0.000958
105 0.000956
106 0.000956
107 0.000955
108 0.000957
109 0.000958
110 0.000957
111 0.000958
112 0.000957
113 0.000954
114 0.000951
115 0.000946
116 0.000943
117 0.000942
118 0.000945
119 0.000949
120 0.000952
121 0.000953
122 0.000953
123 0.000956
124 0.000960
125 0.000960
126 0.000958
127 0.000959
128 0.000959
129 0.000957
130 0.000957
131 0.000956
132 0.000953
133 0.000946
134 0.000941
135 0.000937
136 0.000932
137 0.000927
138 0.000924
139 0.000922
140 0.000920
141 0.000916
142 0.000913
143 0.000910
144 0.000907
145 0.000907
146 0.000909
147 0.000914
148 0.000917
149 0.000917
150 0.000920
151 0.000921
152 0.000919
153 0.000916
154 0.000914
155 0.000911
156 0.000906
157 0.000903
158 0.000899
159 0.000895
160 0.000893
161 0.000888
162 0.000882
163 0.000876
164 0.000872
165 0.000868
166 0.000864
167 0.000859
168 0.000854
169 0.000849
170 0.000847
171 0.000844
172 0.000837
173 0.000834
174 0.000830
175 0.000823
176 0.000820
177 0.000819
178 0.000814
179 0.000812
180 0.000809
181 0.000810
182 0.000810
183 0.000811
184 0.000808
185 0.000802
186 0.000798
187 0.000794
188 0.000792
189 0.000790
190 0.000786
191 0.000780
192 0.000779
193 0.000778
194 0.000777
195 0.000774
196 0.000770
197 0.000769
198 0.000768
199 0.000765
200 0.000763
201 0.000762
202 0.000763
203 0.000764
204 0.000762
205 0.000759
206 0.000757
207 0.000756
208 0.000756
209 0.000757
210 0.000758
211 0.000758
212 0.000758
213 0.000758
214 0.000756
215 0.000751
216 0.000746
217 0.000741
218 0.000734
219 0.000727
220 0.000721
221 0.000715
222 0.000708
223 0.000703
224 0.000698
225 0.000688
226 0.000677
227 0.000665
228 0.000657
229 0.000651
230 0.000647
231 0.000647
232 0.000648
233 0.000647
234 0.000645
235 0.000643
236 0.000640
237 0.000638
238 0.000638
239 0.000635
240 0.000631
241 0.000625
242 0.000619
243 0.000617
244 0.000613
245 0.000608
246 0.000602
247 0.000597
248 0.000591
249 0.000584
