# i correlation
1 0.001814
2 0.001771
3 0.001735
4 0.001701
5 0.001674
6 0.001651
7 0.001630
8 0.001613
9 0.001601
10 0.001588
11 0.001577
12 0.001562
13 0.001546
14 0.001529
15 0.001512
16 0.001499
17 0.001484
18 0.001469
19 0.001454
20 0.001440
21 0.001427
22 0.001414
23 0.001398
24 0.001388
25 0.001378
26 0.001371
27 0.001362
28 0.001353
29 0.001343
30 0.001332
31 0.001321
32 0.001311
33 0.001303
34 0.001296
35 0.001293
36 0.001290
37 0.001286
38 0.001287
39 0.001286
40 0.001285
41 0.001285
42 0.001280
43 0.001277
44 0.001274
45 0.001265
46 0.001259
47 0.001257
48 0.001256
49 0.001257
50 0.001259
51 0.001257
52 0.001254
53 0.001248
54 0.001244
55 0.001235
56 0.001230
57 0.001225
58 0.001224
59 0.001221
60 0.001214
61 0.001210
62 0.001203
63 0.001196
64 0.001190
65 0.001187
66 0.001182
67 0.001178
68 0.001171
69 0.001163
70 0.001155
71 0.001143
72 0.001132
73 0.001123
74 0.001115
75 0.001109
76 0.001100
77 0.001090
78 0.001082
79 0.001076
80 0.001067
81 0.001058
82 0.001050
83 0.001038
84 0.001030
85 0.001025
86 0.001018
87 0.001007
88 0.000999
89 0.000996
90 0.000990
91 0.000985
92 0.000984
93 0.000986
94 0.000987
95 0.000987
96 0.000987
97 0.000984
98 0.000979
99 0.000979
100 0.000975
101 0.000974
102 0.000972
103 0.000969
104 0.000966
105 0.000965
106 0.000964
107 0.000962
108 0.000961
109 0.000957
110 0.000954
111 0.000952
112 0.000949
113 0.000943
114 0.000941
115 0.000938
116 0.000937
117 0.000935
118 0.000929
119 0.000927
120 0.000924
121 0.000922
122 0.000919
123 0.000916
124 0.000909
125 0.000900
126 0.000893
127 0.000886
128 0.000881
129 0.000878
130 0.000877
131 0.000875
132 0.000875
133 0.000875
134 0.000872
135 0.000865
136 0.000858
137 0.000849
138 0.000841
139 0.000827
140 0.000819
141 0.000814
142 0.000812
143 0.000814
144 0.000812
145 0.000811
146 0.000814
147 0.000816
148 0.000819
149 0.000825
150 0.000830
151 0.000831
152 0.000834
153 0.000834
154 0.000833
155 0.000835
156 0.000838
157 0.000841
158 0.000848
159 0.000855
160 0.000862
161 0.000865
162 0.000864
163 0.000863
164 0.000859
165 0.000856
166 0.000851
167 0.000847
168 0.000846
169 0.000846
170 0.000844
171 0.000847
172 0.000849
173 0.000846
174 0.000844
175 0.000841
176 0.000834
177 0.000827
178 0.000821
179 0.000816
180 0.000810
181 0.000805
182 0.000801
183 0.000797
184 0.000796
185 0.000802
186 0.000802
187 0.000804
188 0.000802
189 0.000797
190 0.000792
191 0.000785
192 0.000780
193 0.000775
194 0.000769
195 0.000767
196 0.000769
197 0.000770
198 0.000769
199 0.000771
200 0.000770
201 0.000772
202 0.000772
203 0.000769
204 0.000771
205 0.000771
206 0.000770
207 0.000769
208 0.000767
209 0.000764
210 0.000760
211 0.000756
212 0.000755
213 0.000753
214 0.000749
215 0.000749
216 0.000749
217 0.000749
218 0.000749
219 0.000745
220 0.000741
221 0.000734
222 0.000726
223 0.000720
224 0.000710
225 0.000703
226 0.000701
227 0.000700
228 0.000697
229 0.000697
230 0.000697
231 0.000694
232 0.000686
233 0.000679
234 0.000674
235 0.000671
236 0.000671
237 0.000671
238 0.000668
239 0.000669
240 0.000663
241 0.000655
242 0.000652
243 0.000645
244 0.000642
245 0.000642
246 0.000644
247 0.000647
248 0.000652
249 0.000654
