# i correlation
1 0.001765
2 0.001728
3 0.001701
4 0.001676
5 0.001649
6 0.001626
7 0.001604
8 0.001583
9 0.001561
10 0.001539
11 0.001521
12 0.001500
13 0.001486
14 0.001472
15 0.001462
16 0.001454
17 0.001445
18 0.001439
19 0.001432
20 0.001424
21 0.001417
22 0.001414
23 0.001409
24 0.001407
25 0.001405
26 0.001401
27 0.001398
28 0.001391
29 0.001382
30 0.001371
31 0.001364
32 0.001357
33 0.001350
34 0.001343
35 0.001336
36 0.001326
37 0.001319
38 0.001315
39 0.001307
40 0.001299
41 0.001294
42 0.001294
43 0.001291
44 0.001287
45 0.001285
46 0.001284
47 0.001281
48 0.001279
49 0.001276
50 0.001278
51 0.001277
52 0.001273
53 0.001268
54 0.001261
55 0.001252
56 0.001241
57 0.001233
58 0.001221
59 0.001207
60 0.001194
61 0.001182
62 0.001170
63 0.001158
64 0.001147
65 0.001135
66 0.001126
67 0.001114
68 0.001107
69 0.001102
70 0.001100
71 0.001099
72 0.001101
73 0.001100
74 0.001100
75 0.001102
76 0.001100
77 0.001101
78 0.001103
79 0.001105
80 0.001105
81 0.001108
82 0.001108
83 0.001106
84 0.001102
85 0.001099
86 0.001099
87 0.001099
88 0.001098
89 0.001096
90 0.001093
91 0.001086
92 0.001083
93 0.001077
94 0.001070
95 0.001067
96 0.001063
97 0.001058
98 0.001058
99 0.001057
100 0.001051
101 0.001044
102 0.001039
103 0.001035
104 0.001027
105 0.001022
106 0.001018
107 0.001011
108 0.001004
109 0.000999
110 0.000994
111 0.000988
112 0.000984
113 0.000977
114 0.000974
115 0.000969
116 0.000965
117 0.000963
118 0.000961
119 0.000957
120 0.000954
121 0.000950
122 0.000944
123 0.000940
124 0.000939
125 0.000935
126 0.000934
127 0.000932
128 0.000929
129 0.000923
130 0.000917
131 0.000917
132 0.000918
133 0.000913
134 0.000906
135 0.000898
136 0.000889
137 0.000882
138 0.000873
139 0.000869
140 0.000866
141 0.000865
142 0.000860
143 0.000853
144 0.000851
145 0.000849
146 0.000849
147 0.000843
148 0.000837
149 0.000833
150 0.000828
151 0.000821
152 0.000813
153 0.000807
154 0.000797
155 0.000790
156 0.000786
157 0.000781
158 0.000777
159 0.000775
160 0.000777
161 0.000778
162 0.000775
163 0.000770
164 0.000768
165 0.000766
166 0.000768
167 0.000768
168 0.000769
169 0.000770
170 0.000773
171 0.000776
172 0.000775
173 0.000774
174 0.000774
175 0.000771
176 0.000770
177 0.000770
178 0.000769
179 0.000764
180 0.000758
181 0.000749
182 0.000743
183 0.000736
184 0.000730
185 0.000724
186 0.000717
187 0.000708
188 0.000700
189 0.000696
190 0.000692
191 0.000691
192 0.000691
193 0.000688
194 0.000686
195 0.000683
196 0.000681
197 0.000680
198 0.000681
199 0.000680
200 0.000677
201 0.000675
202 0.000672
203 0.000668
204 0.000663
205 0.000656
206 0.000651
207 0.000648
208 0.000643
209 0.000639
210 0.000637
211 0.000630
212 0.000624
213 0.000619
214 0.000614
215 0.000609
216 0.000607
217 0.000604
218 0.000600
219 0.000598
220 0.000594
221 0.000592
222 0.000588
223 0.000586
224 0.000584
225 0.000581
226 0.000578
227 0.000574
228 0.000571
229 0.000569
230 0.000568
231 0.000567
232 0.000565
233 0.000560
234 0.000555
235 0.000553
236 0.000547
237 0.000540
238 0.000535
239 0.000530
240 0.000522
241 0.000518
242 0.000517
243 0.000515
244 0.000514
245 0.000513
246 0.000512
247 0.000513
248 0.000515
249 0.000519
