# i correlation
1 0.001602
2 0.001568
3 0.001535
4 0.001510
5 0.001485
6 0.001467
7 0.001450
8 0.001435
9 0.001423
10 0.001411
11 0.001396
12 0.001379
13 0.001361
14 0.001344
15 0.001330
16 0.001320
17 0.001310
18 0.001303
19 0.001293
20 0.001284
21 0.001272
22 0.001262
23 0.001253
24 0.001245
25 0.001240
26 0.001235
27 0.001232
28 0.001229
29 0.001223
30 0.001217
31 0.001210
32 0.001203
33 0.001192
34 0.001182
35 0.001175
36 0.001169
37 0.001166
38 0.001162
39 0.001156
40 0.001149
41 0.001143
42 0.001136
43 0.001131
44 0.001123
45 0.001114
46 0.001105
47 0.001099
48 0.001091
49 0.001083
50 0.001076
51 0.001071
52 0.001065
53 0.001063
54 0.001058
55 0.001052
56 0.001043
57 0.001036
58 0.001027
59 0.001019
60 0.001011
61 0.001000
62 0.000994
63 0.000988
64 0.000983
65 0.000978
66 0.000972
67 0.000969
68 0.000967
69 0.000968
70 0.000966
71 0.000968
72 0.000967
73 0.000968
74 0.000967
75 0.000964
76 0.000962
77 0.000960
78 0.000956
79 0.000949
80 0.000943
81 0.000935
82 0.000931
83 0.000924
84 0.000918
85 0.000918
86 0.000918
87 0.000920
88 0.000919
89 0.000917
90 0.000914
91 0.000910
92 0.000908
93 0.000903
94 0.000901
95 0.000899
96 0.000899
97 0.000902
98 0.000906
99 0.000908
100 0.000904
101 0.000901
102 0.000896
103 0.000890
104 0.000882
105 0.000877
106 0.000872
107 0.000869
108 0.000867
109 0.000862
110 0.000861
111 0.000859
112 0.000857
113 0.000857
114 0.000853
115 0.000847
116 0.000841
117 0.000838
118 0.000834
119 0.000824
120 0.000815
121 0.000809
122 0.000807
123 0.000802
124 0.000800
125 0.000797
126 0.000794
127 0.000794
128 0.000795
129 0.000792
130 0.000789
131 0.000784
132 0.000780
133 0.000779
134 0.000776
135 0.000773
136 0.000772
137 0.000770
138 0.000765
139 0.000761
140 0.000759
141 0.000757
142 0.000757
143 0.000759
144 0.000763
145 0.000768
146 0.000769
147 0.000764
148 0.000760
149 0.000757
150 0.000755
151 0.000754
152 0.000753
153 0.000752
154 0.000752
155 0.000750
156 0.000747
157 0.000743
158 0.000739
159 0.000732
160 0.000728
161 0.000725
162 0.000722
163 0.000719
164 0.000718
165 0.000719
166 0.000720
167 0.000719
168 0.000717
169 0.000711
170 0.000709
171 0.000708
172 0.000706
173 0.000705
174 0.000705
175 0.000705
176 0.000702
177 0.000696
178 0.000687
179 0.000678
180 0.000669
181 0.000666
182 0.000664
183 0.000665
184 0.000665
185 0.000666
186 0.000665
187 0.000665
188 0.000665
189 0.000661
190 0.000657
191 0.000653
192 0.000650
193 0.000649
194 0.000649
195 0.000651
196 0.000648
197 0.000642
198 0.000636
199 0.000635
200 0.000635
201 0.000633
202 0.000631
203 0.000629
204 0.000631
205 0.000632
206 0.000630
207 0.000627
208 0.000619
209 0.000611
210 0.000603
211 0.000594
212 0.000587
213 0.000583
214 0.000582
215 0.000580
216 0.000580
217 0.000580
218 0.000578
219 0.000577
220 0.000577
221 0.000579
222 0.000581
223 0.000583
224 0.000586
225 0.000589
226 0.000592
227 0.000594
228 0.000597
229 0.000599
230 0.000600
231 0.000603
232 0.000603
233 0.000603
234 0.000598
235 0.000593
236 0.000590
237 0.000586
238 0.000582
239 0.000578
240 0.000577
241 0.000574
242 0.000571
243 0.000568
244 0.000564
245 0.000557
246 0.000552
247 0.000550
248 0.000547
249 0.000541
