# i correlation
1 0.001565
2 0.001527
3 0.001495
4 0.001465
5 0.001439
6 0.001413
7 0.001390
8 0.001369
9 0.001350
10 0.001339
11 0.001326
12 0.001314
13 0.001304
14 0.001293
15 0.001279
16 0.001263
17 0.001251
18 0.001236
19 0.001221
20 0.001204
21 0.001188
22 0.001177
23 0.001166
24 0.001157
25 0.001144
26 0.001134
27 0.001128
28 0.001121
29 0.001114
30 0.001105
31 0.001094
32 0.001084
33 0.001071
34 0.001068
35 0.001068
36 0.001071
37 0.001074
38 0.001079
39 0.001083
40 0.001085
41 0.001081
42 0.001079
43 0.001075
44 0.001069
45 0.001056
46 0.001044
47 0.001037
48 0.001028
49 0.001021
50 0.001014
51 0.001009
52 0.000999
53 0.000990
54 0.000986
55 0.000986
56 0.000985
57 0.000985
58 0.000987
59 0.000985
60 0.000983
61 0.000977
62 0.000968
63 0.000958
64 0.000952
65 0.000945
66 0.000943
67 0.000939
68 0.000936
69 0.000930
70 0.000922
71 0.000916
72 0.000909
73 0.000904
74 0.000900
75 0.000895
76 0.000893
77 0.000891
78 0.000894
79 0.000899
80 0.000897
81 0.000898
82 0.000899
83 0.000897
84 0.000896
85 0.000897
86 0.000896
87 0.000893
88 0.000885
89 0.000876
90 0.000870
91 0.000862
92 0.000850
93 0.000839
94 0.000832
95 0.000824
96 0.000821
97 0.000818
98 0.000818
99 0.000821
100 0.000826
101 0.000831
102 0.000833
103 0.000832
104 0.000832
105 0.000831
106 0.000829
107 0.000825
108 0.000821
109 0.000816
110 0.000809
111 0.000799
112 0.000789
113 0.000781
114 0.000775
115 0.000769
116 0.000763
117 0.000760
118 0.000757
119 0.000753
120 0.000750
121 0.000748
122 0.000744
123 0.000742
124 0.000740
125 0.000737
126 0.000733
127 0.000729
128 0.000729
129 0.000728
130 0.000726
131 0.000726
132 0.000725
133 0.000720
134 0.000718
135 0.000715
136 0.000711
137 0.000712
138 0.000713
139 0.000713
140 0.000713
141 0.000713
142 0.000721
143 0.000724
144 0.000727
145 0.000729
146 0.000729
147 0.000728
148 0.000725
149 0.000722
150 0.000717
151 0.000712
152 0.000706
153 0.000701
154 0.000694
155 0.000685
156 0.000680
157 0.000682
158 0.000683
159 0.000684
160 0.000688
161 0.000694
162 0.000694
163 0.000694
164 0.000692
165 0.000689
166 0.000682
167 0.000677
168 0.000671
169 0.000665
170 0.000659
171 0.000658
172 0.000658
173 0.000656
174 0.000655
175 0.000653
176 0.000652
177 0.000646
178 0.000642
179 0.000640
180 0.000639
181 0.000640
182 0.000640
183 0.000641
184 0.000640
185 0.000644
186 0.000649
187 0.000651
188 0.000654
189 0.000659
190 0.000657
191 0.000656
192 0.000653
193 0.000651
194 0.000644
195 0.000636
196 0.000629
197 0.000625
198 0.000621
199 0.000624
200 0.000626
201 0.000628
202 0.000630
203 0.000633
204 0.000633
205 0.000631
206 0.000629
207 0.000625
208 0.000623
209 0.000620
210 0.000622
211 0.000624
212 0.000625
213 0.000625
214 0.000626
215 0.000626
216 0.000628
217 0.000627
218 0.000629
219 0.000629
220 0.000630
221 0.000632
222 0.000634
223 0.000636
224 0.000638
225 0.000640
226 0.000641
227 0.000640
228 0.000640
229 0.000641
230 0.000639
231 0.000639
232 0.000634
233 0.000628
234 0.000618
235 0.000607
236 0.000599
237 0.000588
238 0.000582
239 0.000576
240 0.000573
241 0.000571
242 0.000570
243 0.000571
244 0.000570
245 0.000566
246 0.000565
247 0.000566
248 0.000566
249 0.000565
