# i correlation
1 0.001627
2 0.001594
3 0.001565
4 0.001540
5 0.001518
6 0.001496
7 0.001479
8 0.001465
9 0.001455
10 0.001447
11 0.001440
12 0.001433
13 0.001429
14 0.001424
15 0.001418
16 0.001405
17 0.001392
18 0.001378
19 0.001368
20 0.001358
21 0.001347
22 0.001341
23 0.001334
24 0.001330
25 0.001325
26 0.001318
27 0.001309
28 0.001297
29 0.001290
30 0.001280
31 0.001274
32 0.001270
33 0.001267
34 0.001262
35 0.001255
36 0.001249
37 0.001246
38 0.001245
39 0.001242
40 0.001238
41 0.001229
42 0.001223
43 0.001217
44 0.001209
45 0.001203
46 0.001197
47 0.001193
48 0.001189
49 0.001186
50 0.001181
51 0.001173
52 0.001164
53 0.001159
54 0.001154
55 0.001151
56 0.001147
57 0.001146
58 0.001149
59 0.001148
60 0.001145
61 0.001145
62 0.001143
63 0.001137
64 0.001130
65 0.001120
66 0.001110
67 0.001100
68 0.001091
69 0.001080
70 0.001075
71 0.001071
72 0.001067
73 0.001069
74 0.001067
75 0.001062
76 0.001060
77 0.001057
78 0.001050
79 0.001043
80 0.001037
81 0.001037
82 0.001036
83 0.001034
84 0.001030
85 0.001025
86 0.001021
87 0.001018
88 0.001015
89 0.001010
90 0.001003
91 0.000997
92 0.000987
93 0.000981
94 0.000977
95 0.000978
96 0.000980
97 0.000986
98 0.000988
99 0.000989
100 0.000988
101 0.000987
102 0.000985
103 0.000982
104 0.000976
105 0.000969
106 0.000964
107 0.000958
108 0.000955
109 0.000953
110 0.000951
111 0.000952
112 0.000951
113 0.000950
114 0.000947
115 0.000945
116 0.000946
117 0.000943
118 0.000937
119 0.000932
120 0.000927
121 0.000926
122 0.000923
123 0.000918
124 0.000912
125 0.000905
126 0.000898
127 0.000889
128 0.000881
129 0.000876
130 0.000871
131 0.000870
132 0.000866
133 0.000862
134 0.000860
135 0.000860
136 0.000856
137 0.000852
138 0.000850
139 0.000847
140 0.000844
141 0.000840
142 0.000836
143 0.000831
144 0.000829
145 0.000827
146 0.000822
147 0.000818
148 0.000815
149 0.000812
150 0.000810
151 0.000807
152 0.000802
153 0.000798
154 0.000796
155 0.000793
156 0.000794
157 0.000795
158 0.000796
159 0.000801
160 0.000799
161 0.000798
162 0.000792
163 0.000785
164 0.000779
165 0.000770
166 0.000764
167 0.000762
168 0.000761
169 0.000758
170 0.000758
171 0.000758
172 0.000755
173 0.000749
174 0.000745
175 0.000738
176 0.000732
177 0.000725
178 0.000720
179 0.000716
180 0.000714
181 0.000710
182 0.000706
183 0.000706
184 0.000704
185 0.000704
186 0.000707
187 0.000705
188 0.000701
189 0.000698
190 0.000695
191 0.000691
192 0.000690
193 0.000691
194 0.000690
195 0.000690
196 0.000690
197 0.000688
198 0.000686
199 0.000687
200 0.000686
201 0.000689
202 0.000689
203 0.000687
204 0.000683
205 0.000679
206 0.000678
207 0.000675
208 0.000672
209 0.000668
210 0.000665
211 0.000663
212 0.000663
213 0.000659
214 0.000652
215 0.000648
216 0.000644
217 0.000641
218 0.000639
219 0.000638
220 0.000637
221 0.000638
222 0.000638
223 0.000635
224 0.000636
225 0.000635
226 0.000637
227 0.000636
228 0.000632
229 0.000632
230 0.000632
231 0.000632
232 0.000632
233 0.000629
234 0.000628
235 0.000627
236 0.000624
237 0.000619
238 0.000614
239 0.000609
240 0.000606
241 0.000606
242 0.000604
243 0.000602
244 0.000601
245 0.000601
246 0.000603
247 0.000603
248 0.000603
249 0.000602
