# i correlation
1 0.001422
2 0.001385
3 0.001355
4 0.001329
5 0.001306
6 0.001286
7 0.001271
8 0.001259
9 0.001247
10 0.001232
11 0.001213
12 0.001196
13 0.001179
14 0.001167
15 0.001158
16 0.001151
17 0.001145
18 0.001141
19 0.001133
20 0.001123
21 0.001115
22 0.001113
23 0.001108
24 0.001102
25 0.001094
26 0.001090
27 0.001085
28 0.001082
29 0.001084
30 0.001082
31 0.001078
32 0.001074
33 0.001067
34 0.001061
35 0.001062
36 0.001063
37 0.001064
38 0.001065
39 0.001059
40 0.001055
41 0.001050
42 0.001043
43 0.001033
44 0.001023
45 0.001018
46 0.001015
47 0.001013
48 0.001007
49 0.000996
50 0.000987
51 0.000981
52 0.000975
53 0.000971
54 0.000970
55 0.000969
56 0.000968
57 0.000966
58 0.000964
59 0.000963
60 0.000958
61 0.000958
62 0.000953
63 0.000949
64 0.000945
65 0.000942
66 0.000940
67 0.000938
68 0.000932
69 0.000929
70 0.000927
71 0.000923
72 0.000921
73 0.000921
74 0.000919
75 0.000914
76 0.000913
77 0.000909
78 0.000903
79 0.000896
80 0.000893
81 0.000889
82 0.000887
83 0.000886
84 0.000883
85 0.000879
86 0.000871
87 0.000862
88 0.000854
89 0.000845
90 0.000836
91 0.000825
92 0.000816
93 0.000810
94 0.000805
95 0.000803
96 0.000804
97 0.000805
98 0.000804
99 0.000804
100 0.000803
101 0.000805
102 0.000807
103 0.000809
104 0.000808
105 0.000807
106 0.000807
107 0.000807
108 0.000805
109 0.000802
110 0.000799
111 0.000794
112 0.000792
113 0.000789
114 0.000784
115 0.000782
116 0.000784
117 0.000787
118 0.000789
119 0.000795
120 0.000802
121 0.000805
122 0.000807
123 0.000808
124 0.000810
125 0.000811
126 0.000807
127 0.000801
128 0.000795
129 0.000788
130 0.000778
131 0.000765
132 0.000758
133 0.000751
134 0.000747
135 0.000742
136 0.000732
137 0.000723
138 0.000716
139 0.000709
140 0.000702
141 0.000694
142 0.000689
143 0.000686
144 0.000680
145 0.000677
146 0.000676
147 0.000675
148 0.000676
149 0.000678
150 0.000681
151 0.000680
152 0.000681
153 0.000679
154 0.000681
155 0.000680
156 0.000682
157 0.000687
158 0.000690
159 0.000690
160 0.000691
161 0.000691
162 0.000689
163 0.000685
164 0.000685
165 0.000681
166 0.000675
167 0.000668
168 0.000662
169 0.000656
170 0.000653
171 0.000649
172 0.000647
173 0.000645
174 0.000643
175 0.000642
176 0.000640
177 0.000636
178 0.000634
179 0.000633
180 0.000637
181 0.000638
182 0.000637
183 0.000638
184 0.000637
185 0.000637
186 0.000637
187 0.000636
188 0.000634
189 0.000630
190 0.000627
191 0.000620
192 0.000615
193 0.000611
194 0.000605
195 0.000602
196 0.000600
197 0.000597
198 0.000588
199 0.000580
200 0.000572
201 0.000565
202 0.000563
203 0.000560
204 0.000558
205 0.000558
206 0.000556
207 0.000556
208 0.000554
209 0.000551
210 0.000548
211 0.000548
212 0.000548
213 0.000547
214 0.000541
215 0.000539
216 0.000535
217 0.000530
218 0.000526
219 0.000524
220 0.000523
221 0.000523
222 0.000524
223 0.000527
224 0.000527
225 0.000531
226 0.000533
227 0.000535
228 0.000536
229 0.000534
230 0.000535
231 0.000537
232 0.000537
233 0.000536
234 0.000539
235 0.000539
236 0.000537
237 0.000535
238 0.000533
239 0.000531
240 0.000524
241 0.000520
242 0.000513
243 0.000507
244 0.000506
245 0.000504
246 0.000502
247 0.000499
248 0.000493
249 0.000488
