# i correlation
1 0.001564
2 0.001531
3 0.001502
4 0.001475
5 0.001452
6 0.001431
7 0.001409
8 0.001389
9 0.001372
10 0.001360
11 0.001354
12 0.001348
13 0.001340
14 0.001331
15 0.001321
16 0.001311
17 0.001303
18 0.001291
19 0.001279
20 0.001267
21 0.001255
22 0.001244
23 0.001233
24 0.001225
25 0.001218
26 0.001210
27 0.001202
28 0.001196
29 0.001190
30 0.001189
31 0.001185
32 0.001177
33 0.001170
34 0.001164
35 0.001160
36 0.001155
37 0.001150
38 0.001144
39 0.001138
40 0.001136
41 0.001134
42 0.001137
43 0.001134
44 0.001132
45 0.001129
46 0.001128
47 0.001126
48 0.001123
49 0.001120
50 0.001118
51 0.001114
52 0.001111
53 0.001107
54 0.001108
55 0.001104
56 0.001100
57 0.001100
58 0.001097
59 0.001098
60 0.001095
61 0.001091
62 0.001087
63 0.001085
64 0.001078
65 0.001068
66 0.001060
67 0.001055
68 0.001051
69 0.001047
70 0.001043
71 0.001043
72 0.001038
73 0.001034
74 0.001033
75 0.001031
76 0.001024
77 0.001017
78 0.001006
79 0.000998
80 0.000994
81 0.000992
82 0.000989
83 0.000982
84 0.000976
85 0.000974
86 0.000972
87 0.000972
88 0.000971
89 0.000972
90 0.000967
91 0.000963
92 0.000960
93 0.000957
94 0.000954
95 0.000945
96 0.000939
97 0.000933
98 0.000924
99 0.000919
100 0.000916
101 0.000914
102 0.000912
103 0.000911
104 0.000911
105 0.000914
106 0.000914
107 0.000912
108 0.000910
109 0.000905
110 0.000900
111 0.000899
112 0.000898
113 0.000896
114 0.000891
115 0.000890
116 0.000890
117 0.000890
118 0.000887
119 0.000883
120 0.000880
121 0.000879
122 0.000881
123 0.000883
124 0.000882
125 0.000882
126 0.000880
127 0.000882
128 0.000884
129 0.000886
130 0.000886
131 0.000885
132 0.000881
133 0.000879
134 0.000880
135 0.000875
136 0.000869
137 0.000864
138 0.000859
139 0.000851
140 0.000848
141 0.000843
142 0.000839
143 0.000832
144 0.000824
145 0.000816
146 0.000812
147 0.000807
148 0.000805
149 0.000804
150 0.000802
151 0.000803
152 0.000802
153 0.000798
154 0.000794
155 0.000791
156 0.000784
157 0.000780
158 0.000778
159 0.000775
160 0.000771
161 0.000769
162 0.000770
163 0.000772
164 0.000774
165 0.000773
166 0.000769
167 0.000767
168 0.000763
169 0.000759
170 0.000754
171 0.000748
172 0.000742
173 0.000738
174 0.000736
175 0.000732
176 0.000733
177 0.000730
178 0.000724
179 0.000721
180 0.000720
181 0.000720
182 0.000720
183 0.000718
184 0.000713
185 0.000710
186 0.000707
187 0.000700
188 0.000698
189 0.000694
190 0.000688
191 0.000685
192 0.000685
193 0.000687
194 0.000686
195 0.000681
196 0.000675
197 0.000675
198 0.000674
199 0.000672
200 0.000670
201 0.000667
202 0.000661
203 0.000657
204 0.000653
205 0.000651
206 0.000648
207 0.000643
208 0.000641
209 0.000639
210 0.000638
211 0.000640
212 0.000640
213 0.000641
214 0.000640
215 0.000637
216 0.000635
217 0.000632
218 0.000632
219 0.000630
220 0.000622
221 0.000616
222 0.000614
223 0.000615
224 0.000614
225 0.000612
226 0.000609
227 0.000604
228 0.000599
229 0.000597
230 0.000594
231 0.000589
232 0.000583
233 0.000582
234 0.000582
235 0.000583
236 0.000578
237 0.000576
238 0.000570
239 0.000564
240 0.000561
241 0.000556
242 0.000555
243 0.000556
244 0.000557
245 0.000557
246 0.000557
247 0.000558
248 0.000565
249 0.000571
