# i correlation
1 0.001349
2 0.001315
3 0.001288
4 0.001268
5 0.001247
6 0.001228
7 0.001214
8 0.001201
9 0.001188
10 0.001178
11 0.001168
12 0.001155
13 0.001142
14 0.001131
15 0.001121
16 0.001111
17 0.001100
18 0.001092
19 0.001088
20 0.001082
21 0.001080
22 0.001079
23 0.001078
24 0.001078
25 0.001077
26 0.001074
27 0.001069
28 0.001062
29 0.001054
30 0.001045
31 0.001036
32 0.001030
33 0.001022
34 0.001018
35 0.001009
36 0.001004
37 0.001000
38 0.000994
39 0.000988
40 0.000981
41 0.000975
42 0.000969
43 0.000964
44 0.000964
45 0.000961
46 0.000957
47 0.000954
48 0.000952
49 0.000950
50 0.000950
51 0.000949
52 0.000949
53 0.000953
54 0.000953
55 0.000952
56 0.000949
57 0.000943
58 0.000937
59 0.000935
60 0.000934
61 0.000932
62 0.000929
63 0.000925
64 0.000918
65 0.000916
66 0.000909
67 0.000905
68 0.000900
69 0.000895
70 0.000892
71 0.000893
72 0.000892
73 0.000888
74 0.000886
75 0.000885
76 0.000883
77 0.000876
78 0.000873
79 0.000869
80 0.000863
81 0.000855
82 0.000850
83 0.000845
84 0.000840
85 0.000837
86 0.000833
87 0.000828
88 0.000820
89 0.000814
90 0.000807
91 0.000799
92 0.000792
93 0.000790
94 0.000790
95 0.000789
96 0.000784
97 0.000782
98 0.000776
99 0.000773
100 0.000770
101 0.000767
102 0.000761
103 0.000755
104 0.000750
105 0.000743
106 0.000739
107 0.000735
108 0.000729
109 0.000724
110 0.000718
111 0.000713
112 0.000711
113 0.000708
114 0.000704
115 0.000703
116 0.000701
117 0.000697
118 0.000692
119 0.000687
120 0.000683
121 0.000679
122 0.000675
123 0.000672
124 0.000667
125 0.000663
126 0.000662
127 0.000657
128 0.000651
129 0.000647
130 0.000645
131 0.000645
132 0.000643
133 0.000644
134 0.000646
135 0.000645
136 0.000645
137 0.000643
138 0.000644
139 0.000645
140 0.000646
141 0.000647
142 0.000643
143 0.000639
144 0.000633
145 0.000628
146 0.000626
147 0.000624
148 0.000620
149 0.000618
150 0.000618
151 0.000615
152 0.000610
153 0.000606
154 0.000603
155 0.000602
156 0.000600
157 0.000601
158 0.000601
159 0.000598
160 0.000600
161 0.000598
162 0.000601
163 0.000601
164 0.000601
165 0.000600
166 0.000602
167 0.000599
168 0.000599
169 0.000596
170 0.000593
171 0.000586
172 0.000579
173 0.000572
174 0.000565
175 0.000560
176 0.000559
177 0.000556
178 0.000554
179 0.000554
180 0.000551
181 0.000547
182 0.000542
183 0.000537
184 0.000531
185 0.000527
186 0.000523
187 0.000518
188 0.000516
189 0.000514
190 0.000516
191 0.000519
192 0.000522
193 0.000523
194 0.000528
195 0.000530
196 0.000532
197 0.000530
198 0.000526
199 0.000521
200 0.000516
201 0.000512
202 0.000510
203 0.000507
204 0.000505
205 0.000501
206 0.000497
207 0.000492
208 0.000484
209 0.000477
210 0.000472
211 0.000469
212 0.000464
213 0.000459
214 0.000455
215 0.000454
216 0.000455
217 0.000456
218 0.000456
219 0.000456
220 0.000454
221 0.000454
222 0.000454
223 0.000452
224 0.000448
225 0.000445
226 0.000443
227 0.000443
228 0.000446
229 0.000446
230 0.000446
231 0.000447
232 0.000449
233 0.000449
234 0.000445
235 0.000442
236 0.000440
237 0.000434
238 0.000430
239 0.000426
240 0.000425
241 0.000423
242 0.000419
243 0.000417
244 0.000415
245 0.000410
246 0.000405
247 0.000402
248 0.000398
249 0.000395
