# i correlation
1 0.001623
2 0.001588
3 0.001557
4 0.001532
5 0.001507
6 0.001484
7 0.001464
8 0.001443
9 0.001429
10 0.001412
11 0.001399
12 0.001384
13 0.001372
14 0.001361
15 0.001352
16 0.001344
17 0.001337
18 0.001332
19 0.001326
20 0.001325
21 0.001324
22 0.001320
23 0.001314
24 0.001311
25 0.001308
26 0.001305
27 0.001299
28 0.001292
29 0.001288
30 0.001282
31 0.001280
32 0.001272
33 0.001268
34 0.001259
35 0.001249
36 0.001238
37 0.001229
38 0.001223
39 0.001220
40 0.001218
41 0.001218
42 0.001216
43 0.001208
44 0.001200
45 0.001190
46 0.001184
47 0.001174
48 0.001166
49 0.001159
50 0.001153
51 0.001152
52 0.001151
53 0.001151
54 0.001150
55 0.001148
56 0.001144
57 0.001139
58 0.001133
59 0.001128
60 0.001125
61 0.001122
62 0.001121
63 0.001119
64 0.001116
65 0.001114
66 0.001111
67 0.001109
68 0.001110
69 0.001106
70 0.001103
71 0.001100
72 0.001099
73 0.001097
74 0.001091
75 0.001086
76 0.001081
77 0.001077
78 0.001069
79 0.001058
80 0.001051
81 0.001042
82 0.001036
83 0.001030
84 0.001022
85 0.001018
86 0.001016
87 0.001015
88 0.001012
89 0.001008
90 0.001002
91 0.000996
92 0.000997
93 0.000995
94 0.000997
95 0.000995
96 0.000993
97 0.000994
98 0.000995
99 0.000993
100 0.000990
101 0.000989
102 0.000985
103 0.000983
104 0.000980
105 0.000974
106 0.000968
107 0.000963
108 0.000959
109 0.000958
110 0.000953
111 0.000947
112 0.000941
113 0.000937
114 0.000935
115 0.000934
116 0.000932
117 0.000926
118 0.000922
119 0.000919
120 0.000915
121 0.000909
122 0.000903
123 0.000899
124 0.000896
125 0.000897
126 0.000896
127 0.000896
128 0.000897
129 0.000897
130 0.000896
131 0.000895
132 0.000890
133 0.000888
134 0.000887
135 0.000886
136 0.000885
137 0.000882
138 0.000881
139 0.000879
140 0.000878
141 0.000875
142 0.000871
143 0.000867
144 0.000865
145 0.000864
146 0.000860
147 0.000858
148 0.000856
149 0.000857
150 0.000857
151 0.000854
152 0.000849
153 0.000844
154 0.000842
155 0.000840
156 0.000836
157 0.000831
158 0.000828
159 0.000826
160 0.000825
161 0.000823
162 0.000821
163 0.000815
164 0.000810
165 0.000805
166 0.000801
167 0.000795
168 0.000788
169 0.000785
170 0.000781
171 0.000778
172 0.000773
173 0.000770
174 0.000768
175 0.000764
176 0.000761
177 0.000758
178 0.000756
179 0.000752
180 0.000751
181 0.000749
182 0.000744
183 0.000740
184 0.000739
185 0.000734
186 0.000731
187 0.000731
188 0.000728
189 0.000727
190 0.000726
191 0.000727
192 0.000728
193 0.000728
194 0.000726
195 0.000724
196 0.000721
197 0.000717
198 0.000715
199 0.000713
200 0.000712
201 0.000712
202 0.000713
203 0.000714
204 0.000715
205 0.000714
206 0.000713
207 0.000715
208 0.000718
209 0.000719
210 0.000717
211 0.000715
212 0.000713
213 0.000709
214 0.000703
215 0.000697
216 0.000693
217 0.000690
218 0.000690
219 0.000688
220 0.000687
221 0.000684
222 0.000685
223 0.000687
224 0.000684
225 0.000684
226 0.000687
227 0.000691
228 0.000694
229 0.000698
230 0.000699
231 0.000694
232 0.000693
233 0.000694
234 0.000694
235 0.000691
236 0.000687
237 0.000682
238 0.000676
239 0.000672
240 0.000670
241 0.000668
242 0.000668
243 0.000668
244 0.000669
245 0.000667
246 0.000664
247 0.000664
248 0.000664
249 0.000664
