# i correlation
1 0.001613
2 0.001576
3 0.001544
4 0.001511
5 0.001481
6 0.001452
7 0.001426
8 0.001405
9 0.001383
10 0.001364
11 0.001343
12 0.001323
13 0.001308
14 0.001296
15 0.001282
16 0.001272
17 0.001264
18 0.001255
19 0.001248
20 0.001240
21 0.001229
22 0.001219
23 0.001206
24 0.001197
25 0.001186
26 0.001177
27 0.001163
28 0.001151
29 0.001142
30 0.001134
31 0.001128
32 0.001121
33 0.001119
34 0.001113
35 0.001106
36 0.001095
37 0.001082
38 0.001075
39 0.001071
40 0.001066
41 0.001062
42 0.001062
43 0.001058
44 0.001057
45 0.001055
46 0.001055
47 0.001055
48 0.001054
49 0.001053
50 0.001053
51 0.001052
52 0.001053
53 0.001051
54 0.001049
55 0.001053
56 0.001052
57 0.001049
58 0.001047
59 0.001046
60 0.001044
61 0.001042
62 0.001042
63 0.001043
64 0.001045
65 0.001045
66 0.001048
67 0.001046
68 0.001042
69 0.001037
70 0.001031
71 0.001029
72 0.001031
73 0.001033
74 0.001035
75 0.001034
76 0.001032
77 0.001028
78 0.001024
79 0.001019
80 0.001011
81 0.001009
82 0.001007
83 0.001003
84 0.000996
85 0.000988
86 0.000980
87 0.000973
88 0.000964
89 0.000958
90 0.000953
91 0.000950
92 0.000944
93 0.000941
94 0.000939
95 0.000942
96 0.000947
97 0.000952
98 0.000955
99 0.000955
100 0.000954
101 0.000953
102 0.000948
103 0.000941
104 0.000933
105 0.000927
106 0.000922
107 0.000919
108 0.000916
109 0.000919
110 0.000916
111 0.000914
112 0.000916
113 0.000917
114 0.000921
115 0.000923
116 0.000924
117 0.000927
118 0.000926
119 0.000926
120 0.000923
121 0.000920
122 0.000918
123 0.000912
124 0.000903
125 0.000892
126 0.000879
127 0.000868
128 0.000862
129 0.000856
130 0.000850
131 0.000846
132 0.000843
133 0.000843
134 0.000840
135 0.000836
136 0.000834
137 0.000830
138 0.000827
139 0.000824
140 0.000821
141 0.000819
142 0.000823
143 0.000821
144 0.000819
145 0.000816
146 0.000812
147 0.000811
148 0.000812
149 0.000810
150 0.000810
151 0.000809
152 0.000806
153 0.000803
154 0.000801
155 0.000800
156 0.000801
157 0.000800
158 0.000802
159 0.000800
160 0.000797
161 0.000799
162 0.000797
163 0.000794
164 0.000794
165 0.000788
166 0.000784
167 0.000783
168 0.000782
169 0.000783
170 0.000777
171 0.000775
172 0.000774
173 0.000772
174 0.000769
175 0.000764
176 0.000761
177 0.000759
178 0.000761
179 0.000759
180 0.000758
181 0.000760
182 0.000758
183 0.000760
184 0.000758
185 0.000755
186 0.000753
187 0.000750
188 0.000746
189 0.000738
190 0.000730
191 0.000724
192 0.000720
193 0.000715
194 0.000709
195 0.000704
196 0.000696
197 0.000691
198 0.000685
199 0.000677
200 0.000670
201 0.000664
202 0.000661
203 0.000658
204 0.000654
205 0.000652
206 0.000649
207 0.000647
208 0.000647
209 0.000645
210 0.000645
211 0.000650
212 0.000654
213 0.000656
214 0.000659
215 0.000662
216 0.000662
217 0.000658
218 0.000653
219 0.000652
220 0.000649
221 0.000647
222 0.000645
223 0.000641
224 0.000640
225 0.000642
226 0.000642
227 0.000645
228 0.000648
229 0.000649
230 0.000651
231 0.000653
232 0.000657
233 0.000661
234 0.000662
235 0.000667
236 0.000671
237 0.000671
238 0.000671
239 0.000669
240 0.000668
241 0.000668
242 0.000669
243 0.000669
244 0.000669
245 0.000673
246 0.000676
247 0.000676
248 0.000675
249 0.000674
