# i correlation
1 0.001529
2 0.001494
3 0.001461
4 0.001432
5 0.001408
6 0.001385
7 0.001366
8 0.001350
9 0.001337
10 0.001327
11 0.001319
12 0.001310
13 0.001304
14 0.001295
15 0.001287
16 0.001282
17 0.001274
18 0.001268
19 0.001259
20 0.001252
21 0.001245
22 0.001236
23 0.001232
24 0.001226
25 0.001216
26 0.001205
27 0.001195
28 0.001183
29 0.001169
30 0.001155
31 0.001144
32 0.001132
33 0.001120
34 0.001109
35 0.001098
36 0.001093
37 0.001089
38 0.001083
39 0.001081
40 0.001083
41 0.001079
42 0.001073
43 0.001067
44 0.001061
45 0.001052
46 0.001044
47 0.001037
48 0.001029
49 0.001021
50 0.001014
51 0.001007
52 0.001001
53 0.000997
54 0.000992
55 0.000991
56 0.000991
57 0.000988
58 0.000984
59 0.000980
60 0.000971
61 0.000965
62 0.000957
63 0.000953
64 0.000949
65 0.000944
66 0.000940
67 0.000935
68 0.000931
69 0.000929
70 0.000925
71 0.000921
72 0.000920
73 0.000917
74 0.000915
75 0.000912
76 0.000910
77 0.000908
78 0.000904
79 0.000904
80 0.000903
81 0.000905
82 0.000902
83 0.000897
84 0.000891
85 0.000887
86 0.000885
87 0.000885
88 0.000884
89 0.000878
90 0.000872
91 0.000865
92 0.000859
93 0.000854
94 0.000849
95 0.000844
96 0.000839
97 0.000836
98 0.000835
99 0.000831
100 0.000827
101 0.000820
102 0.000811
103 0.000803
104 0.000797
105 0.000793
106 0.000788
107 0.000785
108 0.000784
109 0.000783
110 0.000780
111 0.000778
112 0.000777
113 0.000773
114 0.000770
115 0.000767
116 0.000762
117 0.000755
118 0.000751
119 0.000748
120 0.000745
121 0.000748
122 0.000752
123 0.000753
124 0.000756
125 0.000760
126 0.000761
127 0.000763
128 0.000761
129 0.000760
130 0.000756
131 0.000753
132 0.000750
133 0.000749
134 0.000752
135 0.000755
136 0.000755
137 0.000755
138 0.000756
139 0.000756
140 0.000756
141 0.000754
142 0.000755
143 0.000752
144 0.000749
145 0.000749
146 0.000749
147 0.000747
148 0.000747
149 0.000745
150 0.000745
151 0.000746
152 0.000746
153 0.000743
154 0.000738
155 0.000734
156 0.000730
157 0.000727
158 0.000723
159 0.000719
160 0.000712
161 0.000708
162 0.000707
163 0.000704
164 0.000701
165 0.000700
166 0.000700
167 0.000699
168 0.000700
169 0.000701
170 0.000707
171 0.000715
172 0.000717
173 0.000716
174 0.000715
175 0.000714
176 0.000708
177 0.000703
178 0.000699
179 0.000694
180 0.000686
181 0.000678
182 0.000676
183 0.000670
184 0.000665
185 0.000662
186 0.000660
187 0.000655
188 0.000656
189 0.000656
190 0.000659
191 0.000663
192 0.000665
193 0.000666
194 0.000665
195 0.000669
196 0.000671
197 0.000670
198 0.000670
199 0.000670
200 0.000669
201 0.000665
202 0.000662
203 0.000660
204 0.000657
205 0.000652
206 0.000648
207 0.000647
208 0.000644
209 0.000644
210 0.000645
211 0.000646
212 0.000647
213 0.000651
214 0.000655
215 0.000659
216 0.000661
217 0.000660
218 0.000659
219 0.000657
220 0.000653
221 0.000648
222 0.000644
223 0.000642
224 0.000635
225 0.000629
226 0.000622
227 0.000618
228 0.000614
229 0.000608
230 0.000604
231 0.000604
232 0.000607
233 0.000607
234 0.000610
235 0.000610
236 0.000608
237 0.000605
238 0.000599
239 0.000594
240 0.000590
241 0.000587
242 0.000585
243 0.000584
244 0.000582
245 0.000582
246 0.000582
247 0.000583
248 0.000581
249 0.000579
