# i correlation
1 0.001630
2 0.001593
3 0.001565
4 0.001540
5 0.001520
6 0.001499
7 0.001480
8 0.001464
9 0.001451
10 0.001445
11 0.001437
12 0.001428
13 0.001415
14 0.001397
15 0.001385
16 0.001378
17 0.001370
18 0.001362
19 0.001353
20 0.001344
21 0.001333
22 0.001323
23 0.001313
24 0.001297
25 0.001286
26 0.001275
27 0.001261
28 0.001254
29 0.001248
30 0.001241
31 0.001237
32 0.001231
33 0.001224
34 0.001217
35 0.001215
36 0.001210
37 0.001203
38 0.001197
39 0.001191
40 0.001183
41 0.001181
42 0.001178
43 0.001177
44 0.001174
45 0.001170
46 0.001166
47 0.001161
48 0.001156
49 0.001148
50 0.001143
51 0.001136
52 0.001130
53 0.001125
54 0.001120
55 0.001114
56 0.001105
57 0.001098
58 0.001093
59 0.001086
60 0.001083
61 0.001077
62 0.001071
63 0.001070
64 0.001072
65 0.001071
66 0.001069
67 0.001064
68 0.001063
69 0.001061
70 0.001059
71 0.001053
72 0.001045
73 0.001042
74 0.001036
75 0.001031
76 0.001029
77 0.001024
78 0.001023
79 0.001018
80 0.001015
81 0.001015
82 0.001014
83 0.001008
84 0.001001
85 0.000992
86 0.000986
87 0.000978
88 0.000973
89 0.000965
90 0.000958
91 0.000952
92 0.000947
93 0.000948
94 0.000950
95 0.000946
96 0.000942
97 0.000935
98 0.000930
99 0.000931
100 0.000926
101 0.000924
102 0.000919
103 0.000912
104 0.000908
105 0.000907
106 0.000905
107 0.000905
108 0.000904
109 0.000904
110 0.000904
111 0.000904
112 0.000905
113 0.000901
114 0.000899
115 0.000897
116 0.000895
117 0.000892
118 0.000894
119 0.000895
120 0.000891
121 0.000886
122 0.000882
123 0.000880
124 0.000880
125 0.000876
126 0.000874
127 0.000873
128 0.000874
129 0.000873
130 0.000874
131 0.000870
132 0.000865
133 0.000860
134 0.000858
135 0.000854
136 0.000848
137 0.000842
138 0.000841
139 0.000841
140 0.000844
141 0.000850
142 0.000852
143 0.000851
144 0.000855
145 0.000857
146 0.000860
147 0.000859
148 0.000855
149 0.000853
150 0.000848
151 0.000845
152 0.000842
153 0.000842
154 0.000841
155 0.000842
156 0.000841
157 0.000843
158 0.000843
159 0.000840
160 0.000838
161 0.000834
162 0.000829
163 0.000828
164 0.000830
165 0.000833
166 0.000831
167 0.000830
168 0.000826
169 0.000823
170 0.000820
171 0.000815
172 0.000812
173 0.000805
174 0.000798
175 0.000797
176 0.000792
177 0.000791
178 0.000788
179 0.000783
180 0.000780
181 0.000776
182 0.000775
183 0.000774
184 0.000772
185 0.000771
186 0.000771
187 0.000772
188 0.000775
189 0.000773
190 0.000772
191 0.000771
192 0.000766
193 0.000764
194 0.000764
195 0.000764
196 0.000764
197 0.000760
198 0.000755
199 0.000750
200 0.000748
201 0.000746
202 0.000741
203 0.000738
204 0.000733
205 0.000730
206 0.000729
207 0.000730
208 0.000728
209 0.000725
210 0.000722
211 0.000721
212 0.000718
213 0.000716
214 0.000710
215 0.000708
216 0.000706
217 0.000701
218 0.000695
219 0.000688
220 0.000680
221 0.000673
222 0.000670
223 0.000671
224 0.000669
225 0.000668
226 0.000667
227 0.000665
228 0.000667
229 0.000669
230 0.000665
231 0.000659
232 0.000652
233 0.000652
234 0.000655
235 0.000662
236 0.000666
237 0.000664
238 0.000663
239 0.000661
240 0.000659
241 0.000658
242 0.000654
243 0.000649
244 0.000642
245 0.000636
246 0.000636
247 0.000635
248 0.000638
249 0.000638
