# i correlation
1 0.001564
2 0.001523
3 0.001490
4 0.001461
5 0.001437
6 0.001416
7 0.001394
8 0.001371
9 0.001349
10 0.001332
11 0.001315
12 0.001299
13 0.001286
14 0.001275
15 0.001267
16 0.001262
17 0.001254
18 0.001244
19 0.001237
20 0.001229
21 0.001220
22 0.001214
23 0.001211
24 0.001207
25 0.001205
26 0.001202
27 0.001198
28 0.001194
29 0.001192
30 0.001193
31 0.001189
32 0.001187
33 0.001179
34 0.001172
35 0.001165
36 0.001161
37 0.001156
38 0.001150
39 0.001145
40 0.001140
41 0.001135
42 0.001126
43 0.001117
44 0.001110
45 0.001104
46 0.001102
47 0.001100
48 0.001101
49 0.001105
50 0.001106
51 0.001101
52 0.001093
53 0.001084
54 0.001070
55 0.001060
56 0.001051
57 0.001045
58 0.001040
59 0.001031
60 0.001022
61 0.001012
62 0.001006
63 0.000998
64 0.000987
65 0.000981
66 0.000972
67 0.000966
68 0.000966
69 0.000966
70 0.000966
71 0.000963
72 0.000962
73 0.000960
74 0.000955
75 0.000954
76 0.000952
77 0.000950
78 0.000951
79 0.000950
80 0.000949
81 0.000947
82 0.000944
83 0.000939
84 0.000930
85 0.000923
86 0.000918
87 0.000916
88 0.000916
89 0.000912
90 0.000904
91 0.000898
92 0.000893
93 0.000889
94 0.000887
95 0.000884
96 0.000880
97 0.000879
98 0.000879
99 0.000881
100 0.000878
101 0.000879
102 0.000881
103 0.000883
104 0.000882
105 0.000879
106 0.000878
107 0.000879
108 0.000882
109 0.000883
110 0.000882
111 0.000883
112 0.000884
113 0.000882
114 0.000877
115 0.000872
116 0.000866
117 0.000864
118 0.000862
119 0.000863
120 0.000865
121 0.000867
122 0.000866
123 0.000861
124 0.000860
125 0.000856
126 0.000852
127 0.000848
128 0.000851
129 0.000855
130 0.000859
131 0.000861
132 0.000858
133 0.000858
134 0.000856
135 0.000853
136 0.000851
137 0.000851
138 0.000850
139 0.000849
140 0.000853
141 0.000853
142 0.000852
143 0.000850
144 0.000845
145 0.000838
146 0.000834
147 0.000831
148 0.000831
149 0.000833
150 0.000838
151 0.000841
152 0.000842
153 0.000843
154 0.000846
155 0.000843
156 0.000844
157 0.000842
158 0.000838
159 0.000832
160 0.000826
161 0.000821
162 0.000816
163 0.000811
164 0.000802
165 0.000796
166 0.000792
167 0.000787
168 0.000785
169 0.000784
170 0.000783
171 0.000778
172 0.000772
173 0.000764
174 0.000757
175 0.000752
176 0.000747
177 0.000746
178 0.000743
179 0.000744
180 0.000745
181 0.000748
182 0.000754
183 0.000752
184 0.000748
185 0.000740
186 0.000738
187 0.000733
188 0.000726
189 0.000721
190 0.000720
191 0.000718
192 0.000717
193 0.000715
194 0.000713
195 0.000707
196 0.000699
197 0.000695
198 0.000692
199 0.000690
200 0.000690
201 0.000689
202 0.000684
203 0.000679
204 0.000673
205 0.000670
206 0.000664
207 0.000657
208 0.000651
209 0.000647
210 0.000645
211 0.000646
212 0.000647
213 0.000648
214 0.000647
215 0.000645
216 0.000644
217 0.000642
218 0.000640
219 0.000640
220 0.000636
221 0.000633
222 0.000628
223 0.000627
224 0.000623
225 0.000621
226 0.000624
227 0.000625
228 0.000629
229 0.000631
230 0.000634
231 0.000641
232 0.000651
233 0.000654
234 0.000653
235 0.000653
236 0.000650
237 0.000646
238 0.000645
239 0.000641
240 0.000637
241 0.000635
242 0.000637
243 0.000635
244 0.000631
245 0.000625
246 0.000619
247 0.000612
248 0.000609
249 0.000607
