# i correlation
1 0.001489
2 0.001452
3 0.001423
4 0.001400
5 0.001379
6 0.001360
7 0.001341
8 0.001322
9 0.001305
10 0.001288
11 0.001272
12 0.001257
13 0.001243
14 0.001231
15 0.001221
16 0.001209
17 0.001199
18 0.001189
19 0.001180
20 0.001169
21 0.001160
22 0.001153
23 0.001148
24 0.001141
25 0.001137
26 0.001133
27 0.001126
28 0.001118
29 0.001109
30 0.001095
31 0.001086
32 0.001077
33 0.001069
34 0.001061
35 0.001056
36 0.001049
37 0.001043
38 0.001037
39 0.001030
40 0.001020
41 0.001011
42 0.001005
43 0.000999
44 0.000992
45 0.000985
46 0.000977
47 0.000970
48 0.000961
49 0.000951
50 0.000940
51 0.000932
52 0.000920
53 0.000909
54 0.000902
55 0.000895
56 0.000886
57 0.000878
58 0.000869
59 0.000861
60 0.000857
61 0.000855
62 0.000853
63 0.000852
64 0.000846
65 0.000841
66 0.000838
67 0.000832
68 0.000824
69 0.000819
70 0.000813
71 0.000808
72 0.000807
73 0.000805
74 0.000805
75 0.000802
76 0.000801
77 0.000798
78 0.000799
79 0.000799
80 0.000803
81 0.000805
82 0.000803
83 0.000797
84 0.000788
85 0.000784
86 0.000782
87 0.000777
88 0.000774
89 0.000771
90 0.000765
91 0.000761
92 0.000757
93 0.000755
94 0.000749
95 0.000746
96 0.000747
97 0.000747
98 0.000745
99 0.000738
100 0.000733
101 0.000730
102 0.000732
103 0.000735
104 0.000735
105 0.000731
106 0.000726
107 0.000721
108 0.000716
109 0.000714
110 0.000710
111 0.000706
112 0.000702
113 0.000698
114 0.000695
115 0.000696
116 0.000692
117 0.000687
118 0.000683
119 0.000679
120 0.000676
121 0.000674
122 0.000673
123 0.000670
124 0.000668
125 0.000672
126 0.000673
127 0.000669
128 0.000667
129 0.000662
130 0.000662
131 0.000663
132 0.000666
133 0.000667
134 0.000669
135 0.000670
136 0.000667
137 0.000662
138 0.000660
139 0.000660
140 0.000661
141 0.000661
142 0.000661
143 0.000659
144 0.000653
145 0.000647
146 0.000648
147 0.000648
148 0.000649
149 0.000648
150 0.000647
151 0.000647
152 0.000649
153 0.000650
154 0.000649
155 0.000644
156 0.000638
157 0.000633
158 0.000630
159 0.000630
160 0.000631
161 0.000633
162 0.000635
163 0.000633
164 0.000633
165 0.000633
166 0.000635
167 0.000636
168 0.000632
169 0.000631
170 0.000628
171 0.000624
172 0.000621
173 0.000620
174 0.000620
175 0.000619
176 0.000620
177 0.000621
178 0.000620
179 0.000620
180 0.000617
181 0.000615
182 0.000614
183 0.000611
184 0.000606
185 0.000603
186 0.000600
187 0.000596
188 0.000597
189 0.000596
190 0.000593
191 0.000589
192 0.000584
193 0.000581
194 0.000578
195 0.000575
196 0.000572
197 0.000571
198 0.000570
199 0.000566
200 0.000564
201 0.000560
202 0.000556
203 0.000554
204 0.000553
205 0.000554
206 0.000555
207 0.000555
208 0.000555
209 0.000552
210 0.000546
211 0.000545
212 0.000545
213 0.000547
214 0.000548
215 0.000548
216 0.000541
217 0.000533
218 0.000527
219 0.000526
220 0.000525
221 0.000525
222 0.000523
223 0.000521
224 0.000520
225 0.000517
226 0.000512
227 0.000507
228 0.000507
229 0.000507
230 0.000506
231 0.000504
232 0.000500
233 0.000495
234 0.000493
235 0.000487
236 0.000481
237 0.000475
238 0.000470
239 0.000466
240 0.000464
241 0.000461
242 0.000458
243 0.000459
244 0.000461
245 0.000462
246 0.000463
247 0.000466
248 0.000472
249 0.000477
