# i correlation
1 0.001622
2 0.001581
3 0.001548
4 0.001521
5 0.001497
6 0.001473
7 0.001453
8 0.001439
9 0.001429
10 0.001418
11 0.001405
12 0.001394
13 0.001383
14 0.001373
15 0.001366
16 0.001358
17 0.001348
18 0.001337
19 0.001329
20 0.001323
21 0.001316
22 0.001305
23 0.001295
24 0.001285
25 0.001278
26 0.001270
27 0.001260
28 0.001248
29 0.001239
30 0.001230
31 0.001220
32 0.001209
33 0.001198
34 0.001188
35 0.001181
36 0.001178
37 0.001175
38 0.001171
39 0.001168
40 0.001163
41 0.001161
42 0.001157
43 0.001150
44 0.001147
45 0.001146
46 0.001147
47 0.001145
48 0.001144
49 0.001138
50 0.001131
51 0.001127
52 0.001122
53 0.001120
54 0.001118
55 0.001116
56 0.001113
57 0.001111
58 0.001106
59 0.001102
60 0.001098
61 0.001094
62 0.001090
63 0.001086
64 0.001085
65 0.001084
66 0.001080
67 0.001075
68 0.001068
69 0.001059
70 0.001051
71 0.001041
72 0.001030
73 0.001022
74 0.001015
75 0.001008
76 0.001000
77 0.000994
78 0.000992
79 0.000987
80 0.000985
81 0.000980
82 0.000976
83 0.000973
84 0.000971
85 0.000972
86 0.000969
87 0.000967
88 0.000964
89 0.000959
90 0.000955
91 0.000948
92 0.000941
93 0.000937
94 0.000934
95 0.000936
96 0.000941
97 0.000946
98 0.000951
99 0.000953
100 0.000952
101 0.000950
102 0.000947
103 0.000944
104 0.000943
105 0.000942
106 0.000941
107 0.000939
108 0.000935
109 0.000930
110 0.000922
111 0.000915
112 0.000911
113 0.000905
114 0.000900
115 0.000892
116 0.000885
117 0.000881
118 0.000874
119 0.000869
120 0.000861
121 0.000859
122 0.000860
123 0.000860
124 0.000861
125 0.000863
126 0.000863
127 0.000863
128 0.000861
129 0.000858
130 0.000855
131 0.000853
132 0.000849
133 0.000843
134 0.000841
135 0.000838
136 0.000834
137 0.000833
138 0.000831
139 0.000828
140 0.000827
141 0.000826
142 0.000825
143 0.000825
144 0.000827
145 0.000829
146 0.000829
147 0.000830
148 0.000831
149 0.000828
150 0.000823
151 0.000824
152 0.000825
153 0.000826
154 0.000828
155 0.000827
156 0.000824
157 0.000819
158 0.000814
159 0.000810
160 0.000805
161 0.000803
162 0.000804
163 0.000804
164 0.000802
165 0.000801
166 0.000799
167 0.000795
168 0.000793
169 0.000792
170 0.000790
171 0.000788
172 0.000787
173 0.000787
174 0.000785
175 0.000783
176 0.000780
177 0.000779
178 0.000778
179 0.000775
180 0.000769
181 0.000765
182 0.000762
183 0.000759
184 0.000757
185 0.000758
186 0.000759
187 0.000760
188 0.000759
189 0.000760
190 0.000761
191 0.000761
192 0.000762
193 0.000761
194 0.000761
195 0.000758
196 0.000754
197 0.000751
198 0.000748
199 0.000742
200 0.000734
201 0.000729
202 0.000725
203 0.000723
204 0.000722
205 0.000720
206 0.000719
207 0.000715
208 0.000708
209 0.000701
210 0.000696
211 0.000691
212 0.000688
213 0.000687
214 0.000684
215 0.000681
216 0.000678
217 0.000674
218 0.000670
219 0.000668
220 0.000667
221 0.000665
222 0.000666
223 0.000664
224 0.000661
225 0.000653
226 0.000645
227 0.000638
228 0.000635
229 0.000633
230 0.000633
231 0.000630
232 0.000628
233 0.000628
234 0.000623
235 0.000620
236 0.000622
237 0.000624
238 0.000623
239 0.000626
240 0.000629
241 0.000629
242 0.000628
243 0.000632
244 0.000631
245 0.000626
246 0.000622
247 0.000619
248 0.000617
249 0.000617
