# i correlation
1 0.001783
2 0.001744
3 0.001710
4 0.001680
5 0.001653
6 0.001626
7 0.001601
8 0.001580
9 0.001561
10 0.001542
11 0.001529
12 0.001516
13 0.001503
14 0.001492
15 0.001484
16 0.001474
17 0.001466
18 0.001462
19 0.001455
20 0.001453
21 0.001450
22 0.001446
23 0.001440
24 0.001433
25 0.001426
26 0.001418
27 0.001414
28 0.001415
29 0.001414
30 0.001412
31 0.001407
32 0.001402
33 0.001394
34 0.001383
35 0.001374
36 0.001369
37 0.001361
38 0.001352
39 0.001343
40 0.001332
41 0.001319
42 0.001310
43 0.001303
44 0.001296
45 0.001288
46 0.001283
47 0.001277
48 0.001273
49 0.001267
50 0.001262
51 0.001262
52 0.001261
53 0.001259
54 0.001254
55 0.001253
56 0.001250
57 0.001247
58 0.001245
59 0.001243
60 0.001240
61 0.001239
62 0.001238
63 0.001238
64 0.001235
65 0.001232
66 0.001226
67 0.001221
68 0.001214
69 0.001209
70 0.001206
71 0.001195
72 0.001186
73 0.001176
74 0.001171
75 0.001163
76 0.001156
77 0.001150
78 0.001145
79 0.001140
80 0.001140
81 0.001140
82 0.001140
83 0.001139
84 0.001137
85 0.001134
86 0.001130
87 0.001126
88 0.001120
89 0.001116
90 0.001111
91 0.001106
92 0.001103
93 0.001102
94 0.001101
95 0.001100
96 0.001095
97 0.001089
98 0.001078
99 0.001068
100 0.001058
101 0.001050
102 0.001043
103 0.001037
104 0.001031
105 0.001024
106 0.001016
107 0.001010
108 0.001003
109 0.000994
110 0.000987
111 0.000979
112 0.000973
113 0.000970
114 0.000969
115 0.000966
116 0.000966
117 0.000965
118 0.000963
119 0.000961
120 0.000959
121 0.000955
122 0.000951
123 0.000944
124 0.000938
125 0.000936
126 0.000935
127 0.000934
128 0.000930
129 0.000926
130 0.000920
131 0.000912
132 0.000906
133 0.000901
134 0.000894
135 0.000888
136 0.000880
137 0.000876
138 0.000871
139 0.000865
140 0.000858
141 0.000854
142 0.000854
143 0.000853
144 0.000856
145 0.000860
146 0.000866
147 0.000866
148 0.000863
149 0.000859
150 0.000858
151 0.000859
152 0.000858
153 0.000854
154 0.000850
155 0.000847
156 0.000850
157 0.000849
158 0.000847
159 0.000842
160 0.000839
161 0.000836
162 0.000833
163 0.000833
164 0.000835
165 0.000837
166 0.000840
167 0.000844
168 0.000848
169 0.000849
170 0.000848
171 0.000847
172 0.000844
173 0.000841
174 0.000839
175 0.000838
176 0.000840
177 0.000845
178 0.000849
179 0.000854
180 0.000858
181 0.000862
182 0.000863
183 0.000867
184 0.000866
185 0.000868
186 0.000871
187 0.000872
188 0.000875
189 0.000877
190 0.000877
191 0.000874
192 0.000868
193 0.000861
194 0.000857
195 0.000851
196 0.000845
197 0.000839
198 0.000835
199 0.000832
200 0.000830
201 0.000825
202 0.000817
203 0.000813
204 0.000809
205 0.000804
206 0.000797
207 0.000793
208 0.000789
209 0.000787
210 0.000779
211 0.000775
212 0.000775
213 0.000771
214 0.000768
215 0.000767
216 0.000771
217 0.000772
218 0.000772
219 0.000775
220 0.000776
221 0.000779
222 0.000781
223 0.000783
224 0.000784
225 0.000781
226 0.000773
227 0.000765
228 0.000763
229 0.000762
230 0.000758
231 0.000753
232 0.000748
233 0.000745
234 0.000742
235 0.000734
236 0.000730
237 0.000724
238 0.000718
239 0.000714
240 0.000717
241 0.000718
242 0.000718
243 0.000720
244 0.000722
245 0.000724
246 0.000723
247 0.000723
248 0.000720
249 0.000720
