# i correlation
1 0.001533
2 0.001497
3 0.001466
4 0.001438
5 0.001409
6 0.001381
7 0.001358
8 0.001333
9 0.001309
10 0.001288
11 0.001270
12 0.001252
13 0.001234
14 0.001218
15 0.001208
16 0.001199
17 0.001192
18 0.001187
19 0.001181
20 0.001179
21 0.001176
22 0.001174
23 0.001171
24 0.001170
25 0.001168
26 0.001163
27 0.001158
28 0.001150
29 0.001141
30 0.001133
31 0.001125
32 0.001117
33 0.001107
34 0.001100
35 0.001094
36 0.001087
37 0.001079
38 0.001070
39 0.001061
40 0.001055
41 0.001049
42 0.001043
43 0.001038
44 0.001034
45 0.001033
46 0.001029
47 0.001025
48 0.001020
49 0.001018
50 0.001015
51 0.001016
52 0.001015
53 0.001010
54 0.001006
55 0.001000
56 0.000993
57 0.000987
58 0.000977
59 0.000966
60 0.000955
61 0.000946
62 0.000935
63 0.000928
64 0.000921
65 0.000914
66 0.000906
67 0.000900
68 0.000894
69 0.000889
70 0.000880
71 0.000872
72 0.000865
73 0.000859
74 0.000854
75 0.000855
76 0.000856
77 0.000857
78 0.000860
79 0.000864
80 0.000864
81 0.000862
82 0.000863
83 0.000866
84 0.000868
85 0.000865
86 0.000861
87 0.000859
88 0.000854
89 0.000852
90 0.000847
91 0.000842
92 0.000838
93 0.000837
94 0.000832
95 0.000828
96 0.000824
97 0.000824
98 0.000821
99 0.000814
100 0.000812
101 0.000810
102 0.000813
103 0.000812
104 0.000811
105 0.000812
106 0.000814
107 0.000816
108 0.000818
109 0.000822
110 0.000825
111 0.000825
112 0.000823
113 0.000822
114 0.000824
115 0.000825
116 0.000825
117 0.000823
118 0.000823
119 0.000821
120 0.000819
121 0.000816
122 0.000809
123 0.000798
124 0.000788
125 0.000780
126 0.000775
127 0.000773
128 0.000774
129 0.000775
130 0.000777
131 0.000776
132 0.000777
133 0.000782
134 0.000789
135 0.000793
136 0.000795
137 0.000798
138 0.000803
139 0.000806
140 0.000806
141 0.000807
142 0.000804
143 0.000801
144 0.000800
145 0.000801
146 0.000801
147 0.000795
148 0.000792
149 0.000790
150 0.000788
151 0.000784
152 0.000780
153 0.000777
154 0.000773
155 0.000768
156 0.000762
157 0.000755
158 0.000748
159 0.000741
160 0.000734
161 0.000728
162 0.000725
163 0.000721
164 0.000717
165 0.000716
166 0.000715
167 0.000713
168 0.000712
169 0.000714
170 0.000715
171 0.000716
172 0.000716
173 0.000719
174 0.000717
175 0.000714
176 0.000712
177 0.000710
178 0.000705
179 0.000702
180 0.000700
181 0.000697
182 0.000693
183 0.000689
184 0.000687
185 0.000682
186 0.000675
187 0.000667
188 0.000662
189 0.000657
190 0.000658
191 0.000659
192 0.000658
193 0.000657
194 0.000655
195 0.000655
196 0.000653
197 0.000652
198 0.000650
199 0.000648
200 0.000647
201 0.000644
202 0.000644
203 0.000646
204 0.000642
205 0.000636
206 0.000632
207 0.000627
208 0.000623
209 0.000615
210 0.000604
211 0.000595
212 0.000589
213 0.000584
214 0.000579
215 0.000574
216 0.000569
217 0.000565
218 0.000561
219 0.000560
220 0.000557
221 0.000556
222 0.000554
223 0.000555
224 0.000556
225 0.000557
226 0.000557
227 0.000555
228 0.000556
229 0.000555
230 0.000553
231 0.000547
232 0.000541
233 0.000538
234 0.000535
235 0.000529
236 0.000526
237 0.000524
238 0.000521
239 0.000520
240 0.000516
241 0.000513
242 0.000509
243 0.000505
244 0.000501
245 0.000498
246 0.000496
247 0.000496
248 0.000499
249 0.000502
