# i correlation
1 0.001375
2 0.001341
3 0.001311
4 0.001283
5 0.001257
6 0.001232
7 0.001209
8 0.001189
9 0.001170
10 0.001153
11 0.001137
12 0.001119
13 0.001104
14 0.001089
15 0.001071
16 0.001057
17 0.001041
18 0.001028
19 0.001020
20 0.001010
21 0.001003
22 0.000998
23 0.000997
24 0.000998
25 0.001001
26 0.001005
27 0.001008
28 0.001011
29 0.001013
30 0.001014
31 0.001016
32 0.001014
33 0.001009
34 0.001002
35 0.000996
36 0.000989
37 0.000984
38 0.000978
39 0.000973
40 0.000968
41 0.000962
42 0.000955
43 0.000946
44 0.000937
45 0.000930
46 0.000919
47 0.000911
48 0.000904
49 0.000897
50 0.000891
51 0.000884
52 0.000875
53 0.000867
54 0.000860
55 0.000853
56 0.000848
57 0.000845
58 0.000839
59 0.000834
60 0.000833
61 0.000833
62 0.000830
63 0.000823
64 0.000813
65 0.000806
66 0.000798
67 0.000790
68 0.000779
69 0.000772
70 0.000765
71 0.000757
72 0.000752
73 0.000748
74 0.000745
75 0.000740
76 0.000735
77 0.000732
78 0.000728
79 0.000726
80 0.000723
81 0.000719
82 0.000715
83 0.000709
84 0.000702
85 0.000698
86 0.000695
87 0.000691
88 0.000688
89 0.000688
90 0.000690
91 0.000691
92 0.000691
93 0.000691
94 0.000691
95 0.000689
96 0.000688
97 0.000687
98 0.000685
99 0.000683
100 0.000682
101 0.000681
102 0.000681
103 0.000679
104 0.000679
105 0.000679
106 0.000679
107 0.000680
108 0.000682
109 0.000683
110 0.000683
111 0.000684
112 0.000681
113 0.000677
114 0.000673
115 0.000669
116 0.000665
117 0.000662
118 0.000658
119 0.000654
120 0.000649
121 0.000645
122 0.000643
123 0.000640
124 0.000635
125 0.000630
126 0.000627
127 0.000625
128 0.000625
129 0.000625
130 0.000620
131 0.000612
132 0.000607
133 0.000603
134 0.000599
135 0.000597
136 0.000595
137 0.000591
138 0.000591
139 0.000593
140 0.000596
141 0.000596
142 0.000596
143 0.000599
144 0.000602
145 0.000602
146 0.000606
147 0.000609
148 0.000611
149 0.000610
150 0.000609
151 0.000610
152 0.000613
153 0.000617
154 0.000621
155 0.000625
156 0.000625
157 0.000628
158 0.000631
159 0.000630
160 0.000630
161 0.000629
162 0.000626
163 0.000623
164 0.000617
165 0.000611
166 0.000604
167 0.000602
168 0.000598
169 0.000595
170 0.000595
171 0.000598
172 0.000598
173 0.000594
174 0.000590
175 0.000588
176 0.000584
177 0.000582
178 0.000580
179 0.000580
180 0.000580
181 0.000579
182 0.000578
183 0.000580
184 0.000583
185 0.000586
186 0.000588
187 0.000589
188 0.000587
189 0.000587
190 0.000590
191 0.000590
192 0.000586
193 0.000583
194 0.000582
195 0.000582
196 0.000582
197 0.000583
198 0.000587
199 0.000587
200 0.000590
201 0.000592
202 0.000592
203 0.000595
204 0.000597
205 0.000598
206 0.000599
207 0.000598
208 0.000598
209 0.000598
210 0.000598
211 0.000594
212 0.000594
213 0.000594
214 0.000593
215 0.000591
216 0.000588
217 0.000587
218 0.000587
219 0.000591
220 0.000592
221 0.000591
222 0.000588
223 0.000584
224 0.000580
225 0.000578
226 0.000571
227 0.000568
228 0.000567
229 0.000568
230 0.000569
231 0.000569
232 0.000572
233 0.000576
234 0.000579
235 0.000582
236 0.000579
237 0.000577
238 0.000577
239 0.000573
240 0.000569
241 0.000566
242 0.000560
243 0.000555
244 0.000551
245 0.000551
246 0.000549
247 0.000545
248 0.000544
249 0.000540
