# i correlation
1 0.001543
2 0.001506
3 0.001474
4 0.001447
5 0.001426
6 0.001405
7 0.001385
8 0.001367
9 0.001352
10 0.001344
11 0.001334
12 0.001326
13 0.001315
14 0.001305
15 0.001291
16 0.001276
17 0.001266
18 0.001256
19 0.001250
20 0.001247
21 0.001244
22 0.001239
23 0.001236
24 0.001234
25 0.001231
26 0.001224
27 0.001214
28 0.001205
29 0.001194
30 0.001188
31 0.001185
32 0.001184
33 0.001181
34 0.001176
35 0.001171
36 0.001166
37 0.001158
38 0.001148
39 0.001140
40 0.001132
41 0.001122
42 0.001115
43 0.001114
44 0.001110
45 0.001107
46 0.001110
47 0.001110
48 0.001104
49 0.001096
50 0.001086
51 0.001080
52 0.001071
53 0.001066
54 0.001060
55 0.001050
56 0.001044
57 0.001041
58 0.001036
59 0.001030
60 0.001025
61 0.001018
62 0.001009
63 0.000999
64 0.000993
65 0.000987
66 0.000982
67 0.000979
68 0.000975
69 0.000971
70 0.000965
71 0.000957
72 0.000949
73 0.000941
74 0.000934
75 0.000926
76 0.000916
77 0.000906
78 0.000898
79 0.000892
80 0.000885
81 0.000878
82 0.000872
83 0.000865
84 0.000860
85 0.000856
86 0.000854
87 0.000846
88 0.000837
89 0.000829
90 0.000825
91 0.000820
92 0.000813
93 0.000811
94 0.000812
95 0.000812
96 0.000811
97 0.000809
98 0.000806
99 0.000806
100 0.000809
101 0.000814
102 0.000814
103 0.000814
104 0.000813
105 0.000814
106 0.000816
107 0.000818
108 0.000819
109 0.000817
110 0.000816
111 0.000815
112 0.000811
113 0.000806
114 0.000798
115 0.000791
116 0.000786
117 0.000782
118 0.000780
119 0.000775
120 0.000770
121 0.000769
122 0.000767
123 0.000768
124 0.000769
125 0.000770
126 0.000768
127 0.000766
128 0.000765
129 0.000764
130 0.000765
131 0.000763
132 0.000762
133 0.000760
134 0.000757
135 0.000753
136 0.000750
137 0.000750
138 0.000750
139 0.000750
140 0.000751
141 0.000749
142 0.000747
143 0.000745
144 0.000738
145 0.000734
146 0.000730
147 0.000725
148 0.000720
149 0.000718
150 0.000717
151 0.000714
152 0.000711
153 0.000706
154 0.000702
155 0.000700
156 0.000698
157 0.000700
158 0.000700
159 0.000697
160 0.000697
161 0.000695
162 0.000693
163 0.000691
164 0.000692
165 0.000691
166 0.000688
167 0.000684
168 0.000682
169 0.000681
170 0.000679
171 0.000676
172 0.000675
173 0.000674
174 0.000674
175 0.000677
176 0.000682
177 0.000686
178 0.000687
179 0.000688
180 0.000684
181 0.000680
182 0.000675
183 0.000667
184 0.000659
185 0.000653
186 0.000647
187 0.000644
188 0.000640
189 0.000639
190 0.000639
191 0.000638
192 0.000638
193 0.000637
194 0.000635
195 0.000633
196 0.000630
197 0.000625
198 0.000620
199 0.000615
200 0.000610
201 0.000604
202 0.000602
203 0.000600
204 0.000600
205 0.000597
206 0.000592
207 0.000592
208 0.000588
209 0.000581
210 0.000575
211 0.000571
212 0.000568
213 0.000563
214 0.000561
215 0.000556
216 0.000550
217 0.000544
218 0.000539
219 0.000536
220 0.000532
221 0.000529
222 0.000528
223 0.000527
224 0.000527
225 0.000528
226 0.000527
227 0.000525
228 0.000524
229 0.000524
230 0.000518
231 0.000513
232 0.000510
233 0.000508
234 0.000509
235 0.000509
236 0.000510
237 0.000509
238 0.000508
239 0.000509
240 0.000508
241 0.000506
242 0.000500
243 0.000498
244 0.000498
245 0.000496
246 0.000497
247 0.000498
248 0.000498
249 0.000496
