# i correlation
1 0.001535
2 0.001498
3 0.001467
4 0.001442
5 0.001418
6 0.001394
7 0.001375
8 0.001355
9 0.001337
10 0.001320
11 0.001307
12 0.001295
13 0.001283
14 0.001277
15 0.001274
16 0.001270
17 0.001268
18 0.001266
19 0.001263
20 0.001260
21 0.001258
22 0.001255
23 0.001253
24 0.001249
25 0.001245
26 0.001237
27 0.001232
28 0.001223
29 0.001215
30 0.001206
31 0.001198
32 0.001193
33 0.001190
34 0.001188
35 0.001188
36 0.001188
37 0.001187
38 0.001185
39 0.001186
40 0.001187
41 0.001186
42 0.001184
43 0.001179
44 0.001178
45 0.001176
46 0.001171
47 0.001166
48 0.001160
49 0.001157
50 0.001155
51 0.001150
52 0.001148
53 0.001144
54 0.001142
55 0.001138
56 0.001131
57 0.001124
58 0.001119
59 0.001113
60 0.001111
61 0.001106
62 0.001103
63 0.001101
64 0.001099
65 0.001100
66 0.001096
67 0.001092
68 0.001087
69 0.001082
70 0.001079
71 0.001078
72 0.001077
73 0.001076
74 0.001075
75 0.001073
76 0.001072
77 0.001070
78 0.001067
79 0.001063
80 0.001060
81 0.001056
82 0.001052
83 0.001051
84 0.001048
85 0.001044
86 0.001040
87 0.001034
88 0.001031
89 0.001028
90 0.001025
91 0.001021
92 0.001018
93 0.001010
94 0.001008
95 0.001008
96 0.001000
97 0.000992
98 0.000988
99 0.000989
100 0.000992
101 0.000992
102 0.000991
103 0.000988
104 0.000985
105 0.000983
106 0.000985
107 0.000988
108 0.000989
109 0.000992
110 0.000995
111 0.000997
112 0.000998
113 0.000993
114 0.000984
115 0.000977
116 0.000974
117 0.000974
118 0.000972
119 0.000967
120 0.000958
121 0.000951
122 0.000942
123 0.000935
124 0.000930
125 0.000925
126 0.000917
127 0.000911
128 0.000907
129 0.000904
130 0.000903
131 0.000902
132 0.000901
133 0.000902
134 0.000905
135 0.000906
136 0.000906
137 0.000906
138 0.000903
139 0.000903
140 0.000902
141 0.000899
142 0.000896
143 0.000893
144 0.000889
145 0.000887
146 0.000884
147 0.000882
148 0.000878
149 0.000874
150 0.000870
151 0.000868
152 0.000865
153 0.000858
154 0.000853
155 0.000849
156 0.000845
157 0.000843
158 0.000843
159 0.000841
160 0.000835
161 0.000829
162 0.000823
163 0.000816
164 0.000814
165 0.000811
166 0.000808
167 0.000803
168 0.000800
169 0.000797
170 0.000792
171 0.000790
172 0.000790
173 0.000791
174 0.000791
175 0.000793
176 0.000793
177 0.000793
178 0.000794
179 0.000799
180 0.000800
181 0.000800
182 0.000801
183 0.000805
184 0.000807
185 0.000805
186 0.000801
187 0.000796
188 0.000792
189 0.000793
190 0.000794
191 0.000794
192 0.000794
193 0.000794
194 0.000795
195 0.000798
196 0.000799
197 0.000798
198 0.000793
199 0.000786
200 0.000780
201 0.000775
202 0.000767
203 0.000758
204 0.000751
205 0.000743
206 0.000735
207 0.000731
208 0.000729
209 0.000725
210 0.000722
211 0.000720
212 0.000719
213 0.000719
214 0.000717
215 0.000712
216 0.000712
217 0.000710
218 0.000712
219 0.000713
220 0.000713
221 0.000715
222 0.000717
223 0.000714
224 0.000714
225 0.000713
226 0.000712
227 0.000708
228 0.000705
229 0.000704
230 0.000699
231 0.000697
232 0.000694
233 0.000693
234 0.000688
235 0.000690
236 0.000694
237 0.000699
238 0.000702
239 0.000702
240 0.000702
241 0.000705
242 0.000705
243 0.000704
244 0.000705
245 0.000703
246 0.000702
247 0.000705
248 0.000706
249 0.000706
