# i correlation
1 0.001564
2 0.001531
3 0.001503
4 0.001482
5 0.001462
6 0.001443
7 0.001431
8 0.001420
9 0.001408
10 0.001397
11 0.001389
12 0.001382
13 0.001371
14 0.001360
15 0.001350
16 0.001341
17 0.001331
18 0.001323
19 0.001316
20 0.001308
21 0.001299
22 0.001288
23 0.001278
24 0.001266
25 0.001258
26 0.001248
27 0.001239
28 0.001229
29 0.001217
30 0.001210
31 0.001200
32 0.001188
33 0.001177
34 0.001170
35 0.001160
36 0.001148
37 0.001140
38 0.001132
39 0.001125
40 0.001118
41 0.001111
42 0.001109
43 0.001104
44 0.001094
45 0.001085
46 0.001075
47 0.001067
48 0.001057
49 0.001051
50 0.001045
51 0.001039
52 0.001036
53 0.001031
54 0.001031
55 0.001032
56 0.001030
57 0.001022
58 0.001017
59 0.001015
60 0.001009
61 0.001002
62 0.000993
63 0.000985
64 0.000979
65 0.000973
66 0.000968
67 0.000967
68 0.000968
69 0.000965
70 0.000959
71 0.000955
72 0.000948
73 0.000941
74 0.000936
75 0.000933
76 0.000931
77 0.000931
78 0.000929
79 0.000929
80 0.000929
81 0.000926
82 0.000921
83 0.000914
84 0.000914
85 0.000910
86 0.000906
87 0.000905
88 0.000901
89 0.000897
90 0.000892
91 0.000890
92 0.000890
93 0.000885
94 0.000878
95 0.000873
96 0.000871
97 0.000871
98 0.000871
99 0.000872
100 0.000874
101 0.000875
102 0.000876
103 0.000874
104 0.000867
105 0.000860
106 0.000853
107 0.000849
108 0.000844
109 0.000840
110 0.000835
111 0.000830
112 0.000827
113 0.000823
114 0.000824
115 0.000825
116 0.000822
117 0.000819
118 0.000816
119 0.000809
120 0.000802
121 0.000797
122 0.000794
123 0.000787
124 0.000782
125 0.000781
126 0.000783
127 0.000785
128 0.000783
129 0.000782
130 0.000774
131 0.000764
132 0.000756
133 0.000748
134 0.000745
135 0.000742
136 0.000739
137 0.000734
138 0.000727
139 0.000723
140 0.000723
141 0.000721
142 0.000715
143 0.000708
144 0.000703
145 0.000702
146 0.000702
147 0.000702
148 0.000702
149 0.000698
150 0.000691
151 0.000686
152 0.000687
153 0.000685
154 0.000682
155 0.000682
156 0.000685
157 0.000685
158 0.000685
159 0.000686
160 0.000688
161 0.000691
162 0.000688
163 0.000687
164 0.000688
165 0.000686
166 0.000688
167 0.000690
168 0.000693
169 0.000697
170 0.000699
171 0.000699
172 0.000697
173 0.000694
174 0.000691
175 0.000686
176 0.000684
177 0.000683
178 0.000684
179 0.000687
180 0.000688
181 0.000690
182 0.000690
183 0.000690
184 0.000693
185 0.000692
186 0.000694
187 0.000698
188 0.000700
189 0.000702
190 0.000700
191 0.000698
192 0.000697
193 0.000696
194 0.000695
195 0.000697
196 0.000698
197 0.000697
198 0.000694
199 0.000690
200 0.000686
201 0.000688
202 0.000688
203 0.000689
204 0.000688
205 0.000686
206 0.000685
207 0.000684
208 0.000683
209 0.000683
210 0.000679
211 0.000672
212 0.000665
213 0.000661
214 0.000662
215 0.000661
216 0.000659
217 0.000655
218 0.000652
219 0.000651
220 0.000646
221 0.000644
222 0.000639
223 0.000636
224 0.000633
225 0.000633
226 0.000632
227 0.000630
228 0.000626
229 0.000625
230 0.000620
231 0.000613
232 0.000609
233 0.000604
234 0.000595
235 0.000585
236 0.000579
237 0.000575
238 0.000570
239 0.000568
240 0.000565
241 0.000562
242 0.000559
243 0.000557
244 0.000558
245 0.000558
246 0.000554
247 0.000551
248 0.000550
249 0.000548
