# i correlation
1 0.001761
2 0.001726
3 0.001699
4 0.001673
5 0.001652
6 0.001630
7 0.001610
8 0.001590
9 0.001571
10 0.001551
11 0.001536
12 0.001522
13 0.001511
14 0.001498
15 0.001485
16 0.001472
17 0.001462
18 0.001452
19 0.001440
20 0.001427
21 0.001414
22 0.001401
23 0.001388
24 0.001375
25 0.001367
26 0.001363
27 0.001349
28 0.001340
29 0.001327
30 0.001314
31 0.001303
32 0.001296
33 0.001292
34 0.001287
35 0.001279
36 0.001273
37 0.001266
38 0.001257
39 0.001248
40 0.001244
41 0.001241
42 0.001237
43 0.001237
44 0.001237
45 0.001240
46 0.001246
47 0.001248
48 0.001244
49 0.001243
50 0.001236
51 0.001228
52 0.001223
53 0.001215
54 0.001207
55 0.001201
56 0.001195
57 0.001189
58 0.001186
59 0.001186
60 0.001187
61 0.001185
62 0.001187
63 0.001182
64 0.001178
65 0.001174
66 0.001172
67 0.001166
68 0.001162
69 0.001157
70 0.001151
71 0.001146
72 0.001139
73 0.001132
74 0.001124
75 0.001117
76 0.001109
77 0.001106
78 0.001105
79 0.001101
80 0.001096
81 0.001092
82 0.001090
83 0.001087
84 0.001078
85 0.001071
86 0.001064
87 0.001052
88 0.001045
89 0.001035
90 0.001027
91 0.001018
92 0.001008
93 0.000998
94 0.000990
95 0.000987
96 0.000986
97 0.000982
98 0.000979
99 0.000974
100 0.000968
101 0.000960
102 0.000954
103 0.000949
104 0.000948
105 0.000950
106 0.000952
107 0.000952
108 0.000951
109 0.000953
110 0.000958
111 0.000964
112 0.000965
113 0.000965
114 0.000971
115 0.000973
116 0.000973
117 0.000977
118 0.000978
119 0.000979
120 0.000980
121 0.000980
122 0.000979
123 0.000979
124 0.000978
125 0.000976
126 0.000977
127 0.000975
128 0.000977
129 0.000977
130 0.000978
131 0.000980
132 0.000986
133 0.000986
134 0.000981
135 0.000975
136 0.000972
137 0.000969
138 0.000966
139 0.000964
140 0.000960
141 0.000955
142 0.000950
143 0.000944
144 0.000940
145 0.000935
146 0.000923
147 0.000914
148 0.000906
149 0.000898
150 0.000889
151 0.000882
152 0.000875
153 0.000869
154 0.000867
155 0.000864
156 0.000863
157 0.000863
158 0.000862
159 0.000859
160 0.000856
161 0.000854
162 0.000855
163 0.000857
164 0.000860
165 0.000862
166 0.000864
167 0.000867
168 0.000869
169 0.000871
170 0.000874
171 0.000872
172 0.000868
173 0.000865
174 0.000862
175 0.000860
176 0.000859
177 0.000859
178 0.000858
179 0.000855
180 0.000851
181 0.000848
182 0.000843
183 0.000838
184 0.000831
185 0.000829
186 0.000826
187 0.000824
188 0.000822
189 0.000820
190 0.000821
191 0.000818
192 0.000816
193 0.000814
194 0.000814
195 0.000810
196 0.000805
197 0.000801
198 0.000795
199 0.000789
200 0.000782
201 0.000775
202 0.000769
203 0.000762
204 0.000757
205 0.000754
206 0.000752
207 0.000749
208 0.000744
209 0.000738
210 0.000732
211 0.000729
212 0.000724
213 0.000721
214 0.000721
215 0.000716
216 0.000712
217 0.000709
218 0.000704
219 0.000700
220 0.000696
221 0.000690
222 0.000686
223 0.000684
224 0.000679
225 0.000674
226 0.000672
227 0.000670
228 0.000670
229 0.000669
230 0.000668
231 0.000670
232 0.000669
233 0.000667
234 0.000669
235 0.000670
236 0.000671
237 0.000672
238 0.000670
239 0.000670
240 0.000670
241 0.000668
242 0.000666
243 0.000665
244 0.000661
245 0.000658
246 0.000658
247 0.000657
248 0.000655
249 0.000654
