# i correlation
1 0.001315
2 0.001276
3 0.001245
4 0.001217
5 0.001193
6 0.001170
7 0.001146
8 0.001127
9 0.001113
10 0.001102
11 0.001094
12 0.001085
13 0.001076
14 0.001064
15 0.001054
16 0.001049
17 0.001041
18 0.001031
19 0.001018
20 0.001008
21 0.000998
22 0.000988
23 0.000977
24 0.000971
25 0.000963
26 0.000957
27 0.000950
28 0.000942
29 0.000938
30 0.000928
31 0.000919
32 0.000908
33 0.000901
34 0.000898
35 0.000895
36 0.000888
37 0.000884
38 0.000880
39 0.000876
40 0.000874
41 0.000870
42 0.000864
43 0.000857
44 0.000851
45 0.000844
46 0.000840
47 0.000834
48 0.000827
49 0.000821
50 0.000816
51 0.000815
52 0.000813
53 0.000811
54 0.000810
55 0.000807
56 0.000803
57 0.000801
58 0.000801
59 0.000801
60 0.000802
61 0.000800
62 0.000798
63 0.000796
64 0.000793
65 0.000791
66 0.000788
67 0.000782
68 0.000777
69 0.000771
70 0.000768
71 0.000765
72 0.000760
73 0.000757
74 0.000753
75 0.000753
76 0.000753
77 0.000750
78 0.000742
79 0.000735
80 0.000730
81 0.000724
82 0.000719
83 0.000710
84 0.000700
85 0.000694
86 0.000692
87 0.000689
88 0.000686
89 0.000683
90 0.000679
91 0.000676
92 0.000674
93 0.000675
94 0.000675
95 0.000676
96 0.000672
97 0.000670
98 0.000670
99 0.000665
100 0.000658
101 0.000655
102 0.000651
103 0.000649
104 0.000649
105 0.000648
106 0.000651
107 0.000655
108 0.000664
109 0.000673
110 0.000676
111 0.000681
112 0.000682
113 0.000679
114 0.000678
115 0.000678
116 0.000674
117 0.000669
118 0.000663
119 0.000658
120 0.000657
121 0.000658
122 0.000658
123 0.000655
124 0.000651
125 0.000648
126 0.000648
127 0.000648
128 0.000648
129 0.000648
130 0.000645
131 0.000644
132 0.000646
133 0.000648
134 0.000648
135 0.000645
136 0.000641
137 0.000637
138 0.000634
139 0.000631
140 0.000623
141 0.000614
142 0.000605
143 0.000601
144 0.000595
145 0.000586
146 0.000579
147 0.000575
148 0.000570
149 0.000570
150 0.000567
151 0.000565
152 0.000565
153 0.000568
154 0.000568
155 0.000569
156 0.000569
157 0.000566
158 0.000563
159 0.000564
160 0.000563
161 0.000562
162 0.000560
163 0.000558
164 0.000559
165 0.000560
166 0.000563
167 0.000563
168 0.000561
169 0.000561
170 0.000558
171 0.000553
172 0.000552
173 0.000550
174 0.000547
175 0.000545
176 0.000542
177 0.000540
178 0.000536
179 0.000535
180 0.000535
181 0.000537
182 0.000539
183 0.000540
184 0.000540
185 0.000538
186 0.000538
187 0.000541
188 0.000545
189 0.000545
190 0.000545
191 0.000544
192 0.000540
193 0.000536
194 0.000532
195 0.000525
196 0.000518
197 0.000514
198 0.000512
199 0.000508
200 0.000503
201 0.000500
202 0.000498
203 0.000500
204 0.000503
205 0.000507
206 0.000511
207 0.000512
208 0.000514
209 0.000519
210 0.000521
211 0.000518
212 0.000513
213 0.000507
214 0.000503
215 0.000503
216 0.000501
217 0.000498
218 0.000500
219 0.000506
220 0.000510
221 0.000511
222 0.000509
223 0.000509
224 0.000511
225 0.000513
226 0.000512
227 0.000512
228 0.000514
229 0.000515
230 0.000516
231 0.000521
232 0.000524
233 0.000524
234 0.000525
235 0.000526
236 0.000530
237 0.000532
238 0.000534
239 0.000534
240 0.000535
241 0.000536
242 0.000538
243 0.000539
244 0.000539
245 0.000541
246 0.000544
247 0.000546
248 0.000549
249 0.000550
