# i correlation
1 0.002788
2 0.002612
3 0.002477
4 0.002350
5 0.002243
6 0.002136
7 0.002046
8 0.001980
9 0.001907
10 0.001830
11 0.001754
12 0.001692
13 0.001632
14 0.001566
15 0.001512
16 0.001457
17 0.001400
18 0.001364
19 0.001334
20 0.001331
21 0.001349
22 0.001366
23 0.001370
24 0.001372
25 0.001358
26 0.001356
27 0.001350
28 0.001332
29 0.001315
30 0.001304
31 0.001287
32 0.001279
33 0.001255
34 0.001232
35 0.001223
36 0.001232
37 0.001226
38 0.001220
39 0.001218
40 0.001200
41 0.001194
42 0.001199
43 0.001208
44 0.001224
45 0.001235
46 0.001255
47 0.001271
48 0.001293
49 0.001322
50 0.001345
51 0.001351
52 0.001354
53 0.001339
54 0.001313
55 0.001297
56 0.001265
57 0.001233
58 0.001217
59 0.001202
60 0.001189
61 0.001184
62 0.001193
63 0.001197
64 0.001182
65 0.001157
66 0.001138
67 0.001139
68 0.001159
69 0.001156
70 0.001167
71 0.001188
72 0.001219
73 0.001231
74 0.001221
75 0.001226
76 0.001241
77 0.001242
78 0.001249
79 0.001268
80 0.001276
81 0.001269
82 0.001271
83 0.001274
84 0.001279
85 0.001296
86 0.001308
87 0.001304
88 0.001303
89 0.001288
90 0.001268
91 0.001260
92 0.001255
93 0.001237
94 0.001228
95 0.001224
96 0.001214
97 0.001215
98 0.001200
99 0.001178
100 0.001173
101 0.001174
102 0.001165
103 0.001147
104 0.001134
105 0.001128
106 0.001121
107 0.001102
108 0.001098
109 0.001092
110 0.001065
111 0.001053
112 0.001030
113 0.001003
114 0.000969
115 0.000941
116 0.000922
117 0.000897
118 0.000865
119 0.000830
120 0.000796
121 0.000777
122 0.000765
123 0.000763
124 0.000775
125 0.000769
126 0.000743
127 0.000737
128 0.000737
129 0.000742
130 0.000745
131 0.000759
132 0.000766
133 0.000774
134 0.000766
135 0.000759
136 0.000755
137 0.000738
138 0.000725
139 0.000720
140 0.000726
141 0.000731
142 0.000726
143 0.000720
144 0.000717
145 0.000725
146 0.000722
147 0.000714
148 0.000710
149 0.000690
150 0.000675
151 0.000655
152 0.000632
153 0.000617
154 0.000616
155 0.000618
156 0.000625
157 0.000625
158 0.000634
159 0.000641
160 0.000649
161 0.000658
162 0.000648
163 0.000643
164 0.000653
165 0.000672
166 0.000667
167 0.000665
168 0.000681
169 0.000684
170 0.000691
171 0.000702
172 0.000715
173 0.000742
174 0.000762
175 0.000763
176 0.000779
177 0.000780
178 0.000768
179 0.000765
180 0.000773
181 0.000783
182 0.000787
183 0.000780
184 0.000773
185 0.000756
186 0.000754
187 0.000750
188 0.000736
189 0.000707
190 0.000672
191 0.000649
192 0.000647
193 0.000656
194 0.000672
195 0.000699
196 0.000719
197 0.000725
198 0.000710
199 0.000693
200 0.000679
201 0.000670
202 0.000662
203 0.000672
204 0.000686
205 0.000680
206 0.000685
207 0.000674
208 0.000672
209 0.000669
210 0.000652
211 0.000643
212 0.000645
213 0.000627
214 0.000601
215 0.000569
216 0.000555
217 0.000545
218 0.000540
219 0.000531
220 0.000522
221 0.000504
222 0.000479
223 0.000437
224 0.000405
225 0.000371
226 0.000347
227 0.000339
228 0.000337
229 0.000336
230 0.000341
231 0.000351
232 0.000349
233 0.000372
234 0.000380
235 0.000378
236 0.000381
237 0.000376
238 0.000374
239 0.000382
240 0.000376
241 0.000376
242 0.000381
243 0.000397
244 0.000420
245 0.000430
246 0.000429
247 0.000430
248 0.000433
249 0.000441
250 0.000436
251 0.000425
252 0.000413
253 0.000418
254 0.000440
255 0.000459
256 0.000493
257 0.000518
258 0.000536
259 0.000554
260 0.000568
261 0.000573
262 0.000575
263 0.000565
264 0.000554
265 0.000558
266 0.000568
267 0.000575
268 0.000574
269 0.000570
270 0.000565
271 0.000556
272 0.000547
273 0.000539
274 0.000539
275 0.000537
276 0.000530
277 0.000513
278 0.000503
279 0.000501
280 0.000504
281 0.000531
282 0.000552
283 0.000569
284 0.000569
285 0.000573
286 0.000574
287 0.000574
288 0.000573
289 0.000579
290 0.000585
291 0.000584
292 0.000588
293 0.000591
294 0.000558
295 0.000516
296 0.000488
297 0.000465
298 0.000461
299 0.000448
300 0.000435
301 0.000429
302 0.000407
303 0.000380
304 0.000356
305 0.000346
306 0.000345
307 0.000348
308 0.000345
309 0.000343
310 0.000334
311 0.000345
312 0.000355
313 0.000358
314 0.000364
315 0.000373
316 0.000397
317 0.000423
318 0.000437
319 0.000435
320 0.000436
321 0.000438
322 0.000431
323 0.000416
324 0.000407
325 0.000405
326 0.000397
327 0.000385
328 0.000383
329 0.000376
330 0.000365
331 0.000357
332 0.000350
333 0.000330
334 0.000314
335 0.000299
336 0.000289
337 0.000288
338 0.000288
339 0.000294
340 0.000288
341 0.000287
342 0.000294
343 0.000290
344 0.000288
345 0.000292
346 0.000298
347 0.000296
348 0.000298
349 0.000299
350 0.000289
351 0.000284
352 0.000282
353 0.000281
354 0.000289
355 0.000301
356 0.000292
357 0.000284
358 0.000283
359 0.000274
360 0.000289
361 0.000298
362 0.000306
363 0.000315
364 0.000327
365 0.000318
366 0.000324
367 0.000343
368 0.000358
369 0.000381
370 0.000413
371 0.000439
372 0.000459
373 0.000471
374 0.000468
375 0.000457
376 0.000464
377 0.000458
378 0.000457
379 0.000468
380 0.000476
381 0.000485
382 0.000472
383 0.000445
384 0.000442
385 0.000438
386 0.000423
387 0.000409
388 0.000391
389 0.000388
390 0.000395
391 0.000396
392 0.000399
393 0.000407
394 0.000421
395 0.000424
396 0.000429
397 0.000426
398 0.000431
399 0.000440
400 0.000451
401 0.000440
402 0.000432
403 0.000425
404 0.000426
405 0.000410
406 0.000397
407 0.000388
408 0.000380
409 0.000375
410 0.000375
411 0.000370
412 0.000365
413 0.000362
414 0.000366
415 0.000377
416 0.000379
417 0.000383
418 0.000401
419 0.000398
420 0.000390
421 0.000383
422 0.000386
423 0.000396
424 0.000392
425 0.000388
426 0.000383
427 0.000361
428 0.000345
429 0.000337
430 0.000337
431 0.000328
432 0.000324
433 0.000318
434 0.000315
435 0.000298
436 0.000294
437 0.000282
438 0.000257
439 0.000246
440 0.000247
441 0.000240
442 0.000236
443 0.000227
444 0.000209
445 0.000193
446 0.000181
447 0.000177
448 0.000176
449 0.000184
450 0.000193
451 0.000207
452 0.000232
453 0.000244
454 0.000249
455 0.000258
456 0.000263
457 0.000268
458 0.000265
459 0.000257
460 0.000258
461 0.000275
462 0.000304
463 0.000337
464 0.000365
465 0.000392
466 0.000417
467 0.000431
468 0.000438
469 0.000447
470 0.000455
471 0.000458
472 0.000467
473 0.000470
474 0.000462
475 0.000469
476 0.000482
477 0.000484
478 0.000488
479 0.000486
480 0.000481
481 0.000468
482 0.000471
483 0.000468
484 0.000452
485 0.000458
486 0.000463
487 0.000478
488 0.000483
489 0.000463
490 0.000449
491 0.000438
492 0.000432
493 0.000434
494 0.000436
495 0.000433
496 0.000416
497 0.000404
498 0.000396
499 0.000371
500 0.000353
501 0.000345
502 0.000340
503 0.000345
504 0.000351
505 0.000357
506 0.000346
507 0.000328
508 0.000303
509 0.000285
510 0.000262
511 0.000238
512 0.000221
513 0.000208
514 0.000207
515 0.000207
516 0.000196
517 0.000181
518 0.000165
519 0.000159
520 0.000173
521 0.000183
522 0.000186
523 0.000185
524 0.000198
525 0.000211
526 0.000221
527 0.000233
528 0.000241
529 0.000254
530 0.000255
531 0.000269
532 0.000274
533 0.000260
534 0.000258
535 0.000253
536 0.000245
537 0.000245
538 0.000242
539 0.000223
540 0.000210
541 0.000210
542 0.000207
543 0.000206
544 0.000206
545 0.000197
546 0.000186
547 0.000179
548 0.000170
549 0.000168
550 0.000175
551 0.000180
552 0.000187
553 0.000190
554 0.000196
555 0.000202
556 0.000209
557 0.000221
558 0.000237
559 0.000258
560 0.000269
561 0.000272
562 0.000261
563 0.000252
564 0.000249
565 0.000251
566 0.000252
567 0.000255
568 0.000261
569 0.000256
570 0.000255
571 0.000251
572 0.000252
573 0.000266
574 0.000270
575 0.000272
576 0.000284
577 0.000291
578 0.000290
579 0.000296
580 0.000303
581 0.000308
582 0.000320
583 0.000326
584 0.000331
585 0.000320
586 0.000299
587 0.000280
588 0.000277
589 0.000267
590 0.000246
591 0.000229
592 0.000200
593 0.000185
594 0.000172
595 0.000156
596 0.000135
597 0.000129
598 0.000120
599 0.000115
600 0.000107
601 0.000100
602 0.000090
603 0.000084
604 0.000077
605 0.000060
606 0.000054
607 0.000050
608 0.000034
609 0.000030
610 0.000030
611 0.000042
612 0.000057
613 0.000058
614 0.000059
615 0.000060
616 0.000060
617 0.000052
618 0.000033
619 0.000006
620 -0.000007
621 -0.000017
622 -0.000034
623 -0.000042
624 -0.000045
625 -0.000051
626 -0.000053
627 -0.000053
628 -0.000043
629 -0.000019
630 -0.000000
631 0.000011
632 0.000029
633 0.000053
634 0.000069
635 0.000079
636 0.000094
637 0.000110
638 0.000124
639 0.000132
640 0.000125
641 0.000107
642 0.000090
643 0.000078
644 0.000063
645 0.000055
646 0.000047
647 0.000033
648 0.000026
649 0.000010
650 -0.000007
651 -0.000028
652 -0.000040
653 -0.000037
654 -0.000045
655 -0.000052
656 -0.000039
657 -0.000036
658 -0.000030
659 -0.000013
660 0.000005
661 0.000035
662 0.000056
663 0.000067
664 0.000075
665 0.000094
666 0.000112
667 0.000122
668 0.000130
669 0.000143
670 0.000160
671 0.000167
672 0.000164
673 0.000168
674 0.000175
675 0.000179
676 0.000173
677 0.000168
678 0.000165
679 0.000165
680 0.000168
681 0.000162
682 0.000148
683 0.000140
684 0.000129
685 0.000123
686 0.000110
687 0.000103
688 0.000104
689 0.000104
690 0.000095
691 0.000089
692 0.000088
693 0.000071
694 0.000047
695 0.000017
696 0.000002
697 0.000002
698 -0.000010
699 -0.000015
700 -0.000016
701 -0.000019
702 -0.000023
703 -0.000036
704 -0.000048
705 -0.000063
706 -0.000079
707 -0.000095
708 -0.000112
709 -0.000127
710 -0.000147
711 -0.000153
712 -0.000150
713 -0.000153
714 -0.000165
715 -0.000169
716 -0.000170
717 -0.000176
718 -0.000182
719 -0.000184
720 -0.000188
721 -0.000187
722 -0.000178
723 -0.000171
724 -0.000152
725 -0.000122
726 -0.000094
727 -0.000078
728 -0.000058
729 -0.000039
730 -0.000022
731 -0.000015
732 -0.000000
733 0.000013
734 0.000022
735 0.000023
736 0.000027
737 0.000031
738 0.000045
739 0.000055
740 0.000062
741 0.000079
742 0.000088
743 0.000098
744 0.000104
745 0.000110
746 0.000112
747 0.000113
748 0.000114
749 0.000109
750 0.000102
751 0.000090
752 0.000087
753 0.000092
754 0.000104
755 0.000113
756 0.000119
757 0.000118
758 0.000114
759 0.000104
760 0.000090
761 0.000078
762 0.000065
763 0.000056
764 0.000041
765 0.000033
766 0.000018
767 0.000005
768 -0.000002
769 -0.000009
770 -0.000023
771 -0.000027
772 -0.000037
773 -0.000060
774 -0.000080
775 -0.000093
776 -0.000096
777 -0.000091
778 -0.000082
779 -0.000078
780 -0.000070
781 -0.000071
782 -0.000080
783 -0.000089
784 -0.000094
785 -0.000094
786 -0.000101
787 -0.000105
788 -0.000104
789 -0.000103
790 -0.000107
791 -0.000111
792 -0.000116
793 -0.000119
794 -0.000111
795 -0.000113
796 -0.000121
797 -0.000122
798 -0.000121
799 -0.000126
800 -0.000131
801 -0.000135
802 -0.000131
803 -0.000125
804 -0.000114
805 -0.000105
806 -0.000097
807 -0.000085
808 -0.000078
809 -0.000071
