# i correlation
1 0.002965
2 0.002769
3 0.002606
4 0.002463
5 0.002337
6 0.002246
7 0.002188
8 0.002137
9 0.002095
10 0.002064
11 0.002041
12 0.002021
13 0.001996
14 0.001990
15 0.001967
16 0.001919
17 0.001868
18 0.001822
19 0.001785
20 0.001778
21 0.001787
22 0.001798
23 0.001812
24 0.001804
25 0.001803
26 0.001798
27 0.001786
28 0.001762
29 0.001746
30 0.001743
31 0.001741
32 0.001740
33 0.001738
34 0.001728
35 0.001721
36 0.001717
37 0.001697
38 0.001690
39 0.001680
40 0.001689
41 0.001707
42 0.001719
43 0.001712
44 0.001690
45 0.001687
46 0.001670
47 0.001646
48 0.001618
49 0.001585
50 0.001555
51 0.001508
52 0.001463
53 0.001427
54 0.001392
55 0.001386
56 0.001405
57 0.001417
58 0.001425
59 0.001426
60 0.001425
61 0.001406
62 0.001393
63 0.001375
64 0.001361
65 0.001347
66 0.001317
67 0.001293
68 0.001298
69 0.001303
70 0.001295
71 0.001289
72 0.001318
73 0.001350
74 0.001370
75 0.001379
76 0.001402
77 0.001417
78 0.001412
79 0.001401
80 0.001393
81 0.001371
82 0.001328
83 0.001294
84 0.001268
85 0.001242
86 0.001214
87 0.001202
88 0.001218
89 0.001227
90 0.001230
91 0.001225
92 0.001224
93 0.001217
94 0.001193
95 0.001167
96 0.001133
97 0.001122
98 0.001123
99 0.001139
100 0.001136
101 0.001125
102 0.001121
103 0.001104
104 0.001095
105 0.001075
106 0.001043
107 0.001011
108 0.000985
109 0.000965
110 0.000951
111 0.000952
112 0.000949
113 0.000953
114 0.000960
115 0.000963
116 0.000982
117 0.000991
118 0.000985
119 0.000980
120 0.001004
121 0.001003
122 0.001009
123 0.001033
124 0.001057
125 0.001082
126 0.001116
127 0.001145
128 0.001155
129 0.001147
130 0.001135
131 0.001125
132 0.001121
133 0.001117
134 0.001129
135 0.001124
136 0.001105
137 0.001096
138 0.001089
139 0.001045
140 0.001026
141 0.001020
142 0.001012
143 0.000988
144 0.000959
145 0.000942
146 0.000940
147 0.000949
148 0.000964
149 0.001001
150 0.001027
151 0.001030
152 0.001034
153 0.001040
154 0.001025
155 0.000988
156 0.000951
157 0.000941
158 0.000940
159 0.000931
160 0.000922
161 0.000913
162 0.000897
163 0.000892
164 0.000901
165 0.000900
166 0.000899
167 0.000908
168 0.000918
169 0.000918
170 0.000934
171 0.000949
172 0.000961
173 0.000987
174 0.000999
175 0.000993
176 0.001001
177 0.000994
178 0.000977
179 0.000952
180 0.000934
181 0.000909
182 0.000888
183 0.000876
184 0.000850
185 0.000828
186 0.000789
187 0.000763
188 0.000740
189 0.000721
190 0.000710
191 0.000711
192 0.000715
193 0.000729
194 0.000750
195 0.000753
196 0.000757
197 0.000759
198 0.000753
199 0.000761
200 0.000766
201 0.000753
202 0.000748
203 0.000749
204 0.000750
205 0.000757
206 0.000769
207 0.000776
208 0.000784
209 0.000789
210 0.000790
211 0.000789
212 0.000774
213 0.000754
214 0.000746
215 0.000745
216 0.000748
217 0.000730
218 0.000727
219 0.000716
220 0.000698
221 0.000693
222 0.000697
223 0.000689
224 0.000671
225 0.000651
226 0.000656
227 0.000653
228 0.000637
229 0.000621
230 0.000621
231 0.000623
232 0.000617
233 0.000614
234 0.000606
235 0.000601
236 0.000604
237 0.000598
238 0.000592
239 0.000591
240 0.000602
241 0.000606
242 0.000600
243 0.000598
244 0.000599
245 0.000608
246 0.000611
247 0.000627
248 0.000653
249 0.000675
250 0.000710
251 0.000733
252 0.000763
253 0.000791
254 0.000810
255 0.000796
256 0.000792
257 0.000792
258 0.000809
259 0.000805
260 0.000788
261 0.000772
262 0.000748
263 0.000730
264 0.000704
265 0.000661
266 0.000628
267 0.000600
268 0.000584
269 0.000575
270 0.000556
271 0.000530
272 0.000503
273 0.000475
274 0.000452
275 0.000444
276 0.000454
277 0.000455
278 0.000464
279 0.000477
280 0.000499
281 0.000529
282 0.000534
283 0.000539
284 0.000567
285 0.000578
286 0.000582
287 0.000583
288 0.000565
289 0.000554
290 0.000544
291 0.000554
292 0.000557
293 0.000560
294 0.000571
295 0.000585
296 0.000601
297 0.000602
298 0.000607
299 0.000615
300 0.000618
301 0.000629
302 0.000629
303 0.000635
304 0.000653
305 0.000662
306 0.000651
307 0.000645
308 0.000637
309 0.000629
310 0.000619
311 0.000624
312 0.000615
313 0.000607
314 0.000605
315 0.000582
316 0.000572
317 0.000550
318 0.000534
319 0.000540
320 0.000550
321 0.000566
322 0.000579
323 0.000593
324 0.000602
325 0.000622
326 0.000651
327 0.000671
328 0.000688
329 0.000685
330 0.000681
331 0.000686
332 0.000688
333 0.000679
334 0.000682
335 0.000682
336 0.000679
337 0.000684
338 0.000682
339 0.000660
340 0.000636
341 0.000626
342 0.000621
343 0.000602
344 0.000594
345 0.000598
346 0.000617
347 0.000639
348 0.000658
349 0.000698
350 0.000726
351 0.000743
352 0.000746
353 0.000748
354 0.000734
355 0.000706
356 0.000701
357 0.000702
358 0.000695
359 0.000682
360 0.000679
361 0.000687
362 0.000683
363 0.000684
364 0.000688
365 0.000672
366 0.000648
367 0.000628
368 0.000616
369 0.000618
370 0.000631
371 0.000649
372 0.000668
373 0.000700
374 0.000723
375 0.000729
376 0.000737
377 0.000747
378 0.000756
379 0.000774
380 0.000795
381 0.000822
382 0.000840
383 0.000867
384 0.000899
385 0.000912
386 0.000935
387 0.000955
388 0.000967
389 0.000965
390 0.000968
391 0.000955
392 0.000947
393 0.000932
394 0.000934
395 0.000933
396 0.000930
397 0.000917
398 0.000902
399 0.000879
400 0.000856
401 0.000829
402 0.000792
403 0.000752
404 0.000726
405 0.000707
406 0.000692
407 0.000697
408 0.000692
409 0.000695
410 0.000707
411 0.000721
412 0.000723
413 0.000727
414 0.000728
415 0.000731
416 0.000722
417 0.000703
418 0.000706
419 0.000712
420 0.000699
421 0.000713
422 0.000723
423 0.000727
424 0.000725
425 0.000735
426 0.000743
427 0.000755
428 0.000766
429 0.000788
430 0.000822
431 0.000840
432 0.000848
433 0.000862
434 0.000870
435 0.000866
436 0.000856
437 0.000849
438 0.000824
439 0.000808
440 0.000793
441 0.000776
442 0.000749
443 0.000718
444 0.000694
445 0.000674
446 0.000663
447 0.000655
448 0.000649
449 0.000642
450 0.000635
451 0.000627
452 0.000627
453 0.000628
454 0.000633
455 0.000639
456 0.000645
457 0.000652
458 0.000650
459 0.000639
460 0.000630
461 0.000635
462 0.000645
463 0.000662
464 0.000674
465 0.000674
466 0.000663
467 0.000658
468 0.000649
469 0.000650
470 0.000645
471 0.000636
472 0.000626
473 0.000620
474 0.000629
475 0.000636
476 0.000630
477 0.000629
478 0.000632
479 0.000618
480 0.000611
481 0.000597
482 0.000563
483 0.000533
484 0.000517
485 0.000499
486 0.000485
487 0.000474
488 0.000465
489 0.000463
490 0.000467
491 0.000469
492 0.000469
493 0.000457
494 0.000436
495 0.000423
496 0.000404
497 0.000383
498 0.000384
499 0.000410
500 0.000425
501 0.000428
502 0.000420
503 0.000425
504 0.000435
505 0.000441
506 0.000452
507 0.000464
508 0.000468
509 0.000464
510 0.000467
511 0.000487
512 0.000502
513 0.000521
514 0.000539
515 0.000546
516 0.000543
517 0.000525
518 0.000507
519 0.000492
520 0.000497
521 0.000505
522 0.000513
523 0.000524
524 0.000525
525 0.000533
526 0.000531
527 0.000529
528 0.000526
529 0.000526
530 0.000529
531 0.000519
532 0.000510
533 0.000489
534 0.000474
535 0.000454
536 0.000433
537 0.000430
538 0.000438
539 0.000451
540 0.000454
541 0.000456
542 0.000452
543 0.000444
544 0.000452
545 0.000466
546 0.000474
547 0.000476
548 0.000469
549 0.000462
550 0.000448
551 0.000436
552 0.000428
553 0.000427
554 0.000436
555 0.000457
556 0.000482
557 0.000495
558 0.000496
559 0.000490
560 0.000489
561 0.000495
562 0.000493
563 0.000498
564 0.000502
565 0.000498
566 0.000491
567 0.000495
568 0.000512
569 0.000514
570 0.000505
571 0.000495
572 0.000488
573 0.000478
574 0.000458
575 0.000443
576 0.000424
577 0.000411
578 0.000400
579 0.000402
580 0.000408
581 0.000415
582 0.000421
583 0.000425
584 0.000424
585 0.000423
586 0.000417
587 0.000410
588 0.000409
589 0.000423
590 0.000443
591 0.000456
592 0.000459
593 0.000449
594 0.000447
595 0.000450
596 0.000443
597 0.000441
598 0.000449
599 0.000448
600 0.000448
601 0.000456
602 0.000465
603 0.000472
604 0.000484
605 0.000501
606 0.000510
607 0.000509
608 0.000507
609 0.000503
610 0.000504
611 0.000498
612 0.000501
613 0.000499
614 0.000485
615 0.000470
616 0.000464
617 0.000457
618 0.000452
619 0.000444
620 0.000440
621 0.000439
622 0.000435
623 0.000432
624 0.000429
625 0.000421
626 0.000408
627 0.000410
628 0.000407
629 0.000394
630 0.000387
631 0.000392
632 0.000403
633 0.000421
634 0.000435
635 0.000439
636 0.000447
637 0.000468
638 0.000478
639 0.000484
640 0.000486
641 0.000488
642 0.000485
643 0.000482
644 0.000475
645 0.000481
646 0.000489
647 0.000487
648 0.000491
649 0.000480
650 0.000477
651 0.000465
652 0.000453
653 0.000442
654 0.000432
655 0.000426
656 0.000415
657 0.000410
658 0.000413
659 0.000408
660 0.000401
661 0.000389
662 0.000378
663 0.000370
664 0.000358
665 0.000355
666 0.000352
667 0.000351
668 0.000352
669 0.000351
670 0.000348
671 0.000344
672 0.000353
673 0.000372
674 0.000383
675 0.000399
676 0.000401
677 0.000403
678 0.000403
679 0.000418
680 0.000436
681 0.000446
682 0.000456
683 0.000475
684 0.000496
685 0.000504
686 0.000505
687 0.000494
688 0.000477
689 0.000459
690 0.000436
691 0.000420
692 0.000407
693 0.000411
694 0.000410
695 0.000411
696 0.000419
697 0.000429
698 0.000435
699 0.000431
700 0.000424
701 0.000409
702 0.000389
703 0.000367
704 0.000341
705 0.000331
706 0.000324
707 0.000312
708 0.000310
709 0.000308
710 0.000307
711 0.000312
712 0.000305
713 0.000297
714 0.000300
715 0.000316
716 0.000326
717 0.000330
718 0.000336
719 0.000340
720 0.000338
721 0.000334
722 0.000338
723 0.000330
724 0.000319
725 0.000313
726 0.000313
727 0.000304
728 0.000287
729 0.000270
730 0.000249
731 0.000231
732 0.000220
733 0.000209
734 0.000202
735 0.000193
736 0.000187
737 0.000176
738 0.000174
739 0.000180
740 0.000186
741 0.000188
742 0.000186
743 0.000190
744 0.000198
745 0.000201
746 0.000201
747 0.000200
748 0.000198
749 0.000199
750 0.000196
751 0.000198
752 0.000197
753 0.000201
754 0.000208
755 0.000208
756 0.000215
757 0.000232
758 0.000245
759 0.000250
760 0.000261
761 0.000276
762 0.000286
763 0.000289
764 0.000284
765 0.000293
766 0.000297
767 0.000297
768 0.000298
769 0.000299
770 0.000298
771 0.000304
772 0.000321
773 0.000327
774 0.000339
775 0.000351
776 0.000352
777 0.000353
778 0.000358
779 0.000364
780 0.000367
781 0.000368
782 0.000373
783 0.000375
784 0.000377
785 0.000376
786 0.000376
787 0.000374
788 0.000373
789 0.000364
790 0.000359
791 0.000354
792 0.000350
793 0.000341
794 0.000337
795 0.000336
796 0.000338
797 0.000342
798 0.000338
799 0.000341
800 0.000348
801 0.000342
802 0.000333
803 0.000326
804 0.000320
805 0.000315
806 0.000308
807 0.000307
808 0.000311
809 0.000316
