# i correlation
1 0.002357
2 0.002181
3 0.002028
4 0.001912
5 0.001836
6 0.001765
7 0.001691
8 0.001618
9 0.001572
10 0.001533
11 0.001511
12 0.001472
13 0.001441
14 0.001410
15 0.001407
16 0.001398
17 0.001372
18 0.001351
19 0.001326
20 0.001321
21 0.001326
22 0.001326
23 0.001323
24 0.001306
25 0.001262
26 0.001215
27 0.001186
28 0.001169
29 0.001158
30 0.001148
31 0.001146
32 0.001146
33 0.001153
34 0.001146
35 0.001140
36 0.001123
37 0.001113
38 0.001106
39 0.001097
40 0.001071
41 0.001059
42 0.001048
43 0.001037
44 0.001032
45 0.001024
46 0.001010
47 0.001017
48 0.001031
49 0.001051
50 0.001056
51 0.001036
52 0.001029
53 0.001025
54 0.001043
55 0.001045
56 0.001055
57 0.001061
58 0.001073
59 0.001073
60 0.001078
61 0.001084
62 0.001073
63 0.001079
64 0.001088
65 0.001106
66 0.001122
67 0.001093
68 0.001068
69 0.001040
70 0.001024
71 0.001017
72 0.001010
73 0.000988
74 0.000969
75 0.000952
76 0.000945
77 0.000931
78 0.000905
79 0.000888
80 0.000887
81 0.000904
82 0.000912
83 0.000894
84 0.000860
85 0.000843
86 0.000837
87 0.000840
88 0.000847
89 0.000840
90 0.000814
91 0.000816
92 0.000825
93 0.000831
94 0.000845
95 0.000852
96 0.000855
97 0.000844
98 0.000854
99 0.000878
100 0.000910
101 0.000941
102 0.000950
103 0.000969
104 0.000988
105 0.000989
106 0.000988
107 0.000975
108 0.000936
109 0.000927
110 0.000920
111 0.000916
112 0.000929
113 0.000917
114 0.000940
115 0.000940
116 0.000929
117 0.000944
118 0.000943
119 0.000931
120 0.000913
121 0.000894
122 0.000896
123 0.000899
124 0.000902
125 0.000896
126 0.000884
127 0.000864
128 0.000850
129 0.000834
130 0.000829
131 0.000814
132 0.000809
133 0.000803
134 0.000791
135 0.000793
136 0.000781
137 0.000759
138 0.000748
139 0.000747
140 0.000739
141 0.000735
142 0.000721
143 0.000709
144 0.000679
145 0.000651
146 0.000615
147 0.000597
148 0.000587
149 0.000597
150 0.000612
151 0.000623
152 0.000646
153 0.000667
154 0.000686
155 0.000685
156 0.000684
157 0.000670
158 0.000669
159 0.000661
160 0.000633
161 0.000620
162 0.000615
163 0.000613
164 0.000625
165 0.000621
166 0.000618
167 0.000624
168 0.000618
169 0.000601
170 0.000573
171 0.000553
172 0.000536
173 0.000547
174 0.000542
175 0.000555
176 0.000542
177 0.000539
178 0.000542
179 0.000532
180 0.000533
181 0.000521
182 0.000515
183 0.000503
184 0.000492
185 0.000486
186 0.000495
187 0.000512
188 0.000553
189 0.000581
190 0.000593
191 0.000597
192 0.000593
193 0.000573
194 0.000555
195 0.000547
196 0.000542
197 0.000549
198 0.000558
199 0.000565
200 0.000575
201 0.000547
202 0.000509
203 0.000490
204 0.000481
205 0.000476
206 0.000490
207 0.000484
208 0.000468
209 0.000462
210 0.000473
211 0.000483
212 0.000479
213 0.000477
214 0.000447
215 0.000431
216 0.000421
217 0.000420
218 0.000412
219 0.000405
220 0.000397
221 0.000398
222 0.000394
223 0.000388
224 0.000405
225 0.000414
226 0.000422
227 0.000422
228 0.000425
229 0.000419
230 0.000413
231 0.000412
232 0.000398
233 0.000386
234 0.000373
235 0.000365
236 0.000360
237 0.000354
238 0.000339
239 0.000324
240 0.000308
241 0.000304
242 0.000294
243 0.000279
244 0.000287
245 0.000289
246 0.000295
247 0.000309
248 0.000329
249 0.000356
250 0.000377
251 0.000378
252 0.000377
253 0.000407
254 0.000429
255 0.000447
256 0.000460
257 0.000459
258 0.000458
259 0.000461
260 0.000455
261 0.000448
262 0.000440
263 0.000432
264 0.000439
265 0.000451
266 0.000448
267 0.000455
268 0.000461
269 0.000478
270 0.000488
271 0.000504
272 0.000521
273 0.000538
274 0.000531
275 0.000511
276 0.000509
277 0.000501
278 0.000497
279 0.000485
280 0.000479
281 0.000477
282 0.000485
283 0.000484
284 0.000479
285 0.000482
286 0.000476
287 0.000464
288 0.000465
289 0.000468
290 0.000445
291 0.000436
292 0.000459
293 0.000476
294 0.000492
295 0.000498
296 0.000481
297 0.000459
298 0.000449
299 0.000445
300 0.000440
301 0.000429
302 0.000433
303 0.000443
304 0.000451
305 0.000452
306 0.000443
307 0.000437
308 0.000412
309 0.000396
310 0.000375
311 0.000360
312 0.000352
313 0.000345
314 0.000346
315 0.000331
316 0.000331
317 0.000338
318 0.000358
319 0.000362
320 0.000363
321 0.000354
322 0.000355
323 0.000375
324 0.000391
325 0.000410
326 0.000403
327 0.000410
328 0.000417
329 0.000434
330 0.000455
331 0.000475
332 0.000483
333 0.000498
334 0.000499
335 0.000504
336 0.000496
337 0.000471
338 0.000447
339 0.000424
340 0.000400
341 0.000392
342 0.000409
343 0.000418
344 0.000412
345 0.000388
346 0.000373
347 0.000369
348 0.000365
349 0.000365
350 0.000370
351 0.000369
352 0.000364
353 0.000371
354 0.000390
355 0.000404
356 0.000412
357 0.000406
358 0.000400
359 0.000396
360 0.000393
361 0.000396
362 0.000392
363 0.000401
364 0.000404
365 0.000424
366 0.000436
367 0.000448
368 0.000461
369 0.000452
370 0.000442
371 0.000436
372 0.000420
373 0.000420
374 0.000425
375 0.000427
376 0.000430
377 0.000442
378 0.000445
379 0.000457
380 0.000461
381 0.000467
382 0.000459
383 0.000449
384 0.000448
385 0.000447
386 0.000446
387 0.000436
388 0.000437
389 0.000443
390 0.000446
391 0.000450
392 0.000452
393 0.000450
394 0.000438
395 0.000447
396 0.000445
397 0.000445
398 0.000449
399 0.000464
400 0.000487
401 0.000502
402 0.000498
403 0.000487
404 0.000486
405 0.000488
406 0.000507
407 0.000518
408 0.000525
409 0.000531
410 0.000526
411 0.000515
412 0.000507
413 0.000495
414 0.000478
415 0.000456
416 0.000439
417 0.000437
418 0.000429
419 0.000413
420 0.000397
421 0.000385
422 0.000375
423 0.000377
424 0.000392
425 0.000395
426 0.000397
427 0.000392
428 0.000392
429 0.000384
430 0.000366
431 0.000353
432 0.000331
433 0.000317
434 0.000310
435 0.000306
436 0.000302
437 0.000317
438 0.000334
439 0.000339
440 0.000321
441 0.000305
442 0.000309
443 0.000311
444 0.000312
445 0.000312
446 0.000297
447 0.000287
448 0.000284
449 0.000275
450 0.000266
451 0.000267
452 0.000249
453 0.000246
454 0.000232
455 0.000216
456 0.000207
457 0.000204
458 0.000214
459 0.000224
460 0.000230
461 0.000247
462 0.000252
463 0.000246
464 0.000228
465 0.000210
466 0.000208
467 0.000205
468 0.000201
469 0.000204
470 0.000214
471 0.000221
472 0.000234
473 0.000241
474 0.000235
475 0.000225
476 0.000226
477 0.000235
478 0.000249
479 0.000248
480 0.000258
481 0.000271
482 0.000297
483 0.000327
484 0.000337
485 0.000342
486 0.000341
487 0.000345
488 0.000332
489 0.000331
490 0.000313
491 0.000308
492 0.000310
493 0.000320
494 0.000323
495 0.000327
496 0.000314
497 0.000289
498 0.000284
499 0.000269
500 0.000253
501 0.000238
502 0.000238
503 0.000242
504 0.000251
505 0.000262
506 0.000270
507 0.000274
508 0.000285
509 0.000305
510 0.000325
511 0.000331
512 0.000316
513 0.000306
514 0.000308
515 0.000310
516 0.000309
517 0.000314
518 0.000314
519 0.000320
520 0.000334
521 0.000348
522 0.000355
523 0.000360
524 0.000371
525 0.000380
526 0.000404
527 0.000414
528 0.000432
529 0.000439
530 0.000449
531 0.000460
532 0.000468
533 0.000473
534 0.000472
535 0.000467
536 0.000452
537 0.000436
538 0.000431
539 0.000431
540 0.000430
541 0.000437
542 0.000456
543 0.000471
544 0.000479
545 0.000479
546 0.000463
547 0.000450
548 0.000435
549 0.000431
550 0.000418
551 0.000406
552 0.000396
553 0.000395
554 0.000391
555 0.000390
556 0.000382
557 0.000369
558 0.000357
559 0.000359
560 0.000358
561 0.000353
562 0.000344
563 0.000342
564 0.000335
565 0.000326
566 0.000295
567 0.000273
568 0.000255
569 0.000231
570 0.000215
571 0.000201
572 0.000180
573 0.000166
574 0.000156
575 0.000149
576 0.000155
577 0.000161
578 0.000169
579 0.000166
580 0.000168
581 0.000164
582 0.000164
583 0.000167
584 0.000171
585 0.000176
586 0.000177
587 0.000187
588 0.000186
589 0.000174
590 0.000159
591 0.000157
592 0.000172
593 0.000185
594 0.000205
595 0.000212
596 0.000218
597 0.000229
598 0.000233
599 0.000238
600 0.000240
601 0.000245
602 0.000254
603 0.000246
604 0.000240
605 0.000236
606 0.000245
607 0.000251
608 0.000251
609 0.000260
610 0.000257
611 0.000256
612 0.000265
613 0.000259
614 0.000248
615 0.000253
616 0.000248
617 0.000259
618 0.000257
619 0.000255
620 0.000247
621 0.000238
622 0.000228
623 0.000214
624 0.000207
625 0.000195
626 0.000185
627 0.000181
628 0.000190
629 0.000180
630 0.000176
631 0.000166
632 0.000152
633 0.000137
634 0.000135
635 0.000139
636 0.000146
637 0.000158
638 0.000152
639 0.000158
640 0.000161
641 0.000168
642 0.000171
643 0.000182
644 0.000180
645 0.000180
646 0.000183
647 0.000176
648 0.000177
649 0.000180
650 0.000187
651 0.000201
652 0.000197
653 0.000187
654 0.000184
655 0.000175
656 0.000169
657 0.000161
658 0.000160
659 0.000164
660 0.000169
661 0.000176
662 0.000181
663 0.000189
664 0.000190
665 0.000184
666 0.000176
667 0.000176
668 0.000176
669 0.000176
670 0.000174
671 0.000164
672 0.000153
673 0.000151
674 0.000146
675 0.000139
676 0.000119
677 0.000107
678 0.000103
679 0.000096
680 0.000093
681 0.000087
682 0.000090
683 0.000098
684 0.000109
685 0.000115
686 0.000121
687 0.000120
688 0.000116
689 0.000115
690 0.000106
691 0.000095
692 0.000078
693 0.000064
694 0.000053
695 0.000037
696 0.000032
697 0.000028
698 0.000027
699 0.000022
700 0.000020
701 0.000018
702 0.000021
703 0.000026
704 0.000033
705 0.000034
706 0.000045
707 0.000049
708 0.000061
709 0.000077
710 0.000086
711 0.000093
712 0.000095
713 0.000095
714 0.000096
715 0.000096
716 0.000096
717 0.000102
718 0.000101
719 0.000098
720 0.000099
721 0.000089
722 0.000081
723 0.000072
724 0.000066
725 0.000054
726 0.000044
727 0.000031
728 0.000019
729 0.000013
730 0.000005
731 0.000001
732 -0.000004
733 -0.000012
734 -0.000006
735 -0.000005
736 -0.000013
737 -0.000026
738 -0.000036
739 -0.000040
740 -0.000047
741 -0.000053
742 -0.000052
743 -0.000052
744 -0.000060
745 -0.000066
746 -0.000077
747 -0.000083
748 -0.000098
749 -0.000110
750 -0.000115
751 -0.000115
752 -0.000119
753 -0.000128
754 -0.000131
755 -0.000131
756 -0.000138
757 -0.000149
758 -0.000153
759 -0.000160
760 -0.000163
761 -0.000173
762 -0.000171
763 -0.000167
764 -0.000170
765 -0.000171
766 -0.000175
767 -0.000174
768 -0.000170
769 -0.000164
770 -0.000158
771 -0.000152
772 -0.000149
773 -0.000147
774 -0.000136
775 -0.000120
776 -0.000109
777 -0.000108
778 -0.000105
779 -0.000110
780 -0.000114
781 -0.000111
782 -0.000107
783 -0.000105
784 -0.000097
785 -0.000094
786 -0.000095
787 -0.000102
788 -0.000106
789 -0.000114
790 -0.000125
791 -0.000132
792 -0.000134
793 -0.000136
794 -0.000136
795 -0.000135
796 -0.000133
797 -0.000130
798 -0.000125
799 -0.000127
800 -0.000130
801 -0.000131
802 -0.000134
803 -0.000132
804 -0.000131
805 -0.000126
806 -0.000120
807 -0.000113
808 -0.000106
809 -0.000096
