# i correlation
1 0.002416
2 0.002270
3 0.002128
4 0.002029
5 0.001926
6 0.001825
7 0.001712
8 0.001608
9 0.001499
10 0.001412
11 0.001352
12 0.001306
13 0.001244
14 0.001193
15 0.001154
16 0.001121
17 0.001094
18 0.001070
19 0.001062
20 0.001068
21 0.001055
22 0.001041
23 0.001039
24 0.001037
25 0.001041
26 0.001059
27 0.001080
28 0.001105
29 0.001117
30 0.001133
31 0.001146
32 0.001163
33 0.001178
34 0.001205
35 0.001213
36 0.001220
37 0.001221
38 0.001213
39 0.001196
40 0.001175
41 0.001146
42 0.001119
43 0.001094
44 0.001092
45 0.001100
46 0.001110
47 0.001095
48 0.001092
49 0.001085
50 0.001097
51 0.001110
52 0.001121
53 0.001097
54 0.001066
55 0.001026
56 0.001006
57 0.000990
58 0.000965
59 0.000941
60 0.000898
61 0.000868
62 0.000848
63 0.000838
64 0.000816
65 0.000806
66 0.000805
67 0.000797
68 0.000801
69 0.000805
70 0.000817
71 0.000835
72 0.000852
73 0.000857
74 0.000855
75 0.000844
76 0.000838
77 0.000849
78 0.000870
79 0.000886
80 0.000910
81 0.000901
82 0.000905
83 0.000925
84 0.000935
85 0.000956
86 0.000983
87 0.000988
88 0.000999
89 0.000992
90 0.000984
91 0.000978
92 0.000979
93 0.000962
94 0.000953
95 0.000934
96 0.000919
97 0.000938
98 0.000948
99 0.000957
100 0.000940
101 0.000935
102 0.000931
103 0.000945
104 0.000950
105 0.000966
106 0.000950
107 0.000932
108 0.000897
109 0.000863
110 0.000833
111 0.000811
112 0.000769
113 0.000740
114 0.000715
115 0.000708
116 0.000709
117 0.000718
118 0.000708
119 0.000682
120 0.000667
121 0.000645
122 0.000650
123 0.000650
124 0.000628
125 0.000608
126 0.000595
127 0.000578
128 0.000566
129 0.000568
130 0.000553
131 0.000573
132 0.000572
133 0.000566
134 0.000553
135 0.000544
136 0.000544
137 0.000544
138 0.000554
139 0.000565
140 0.000579
141 0.000567
142 0.000573
143 0.000585
144 0.000605
145 0.000622
146 0.000634
147 0.000625
148 0.000627
149 0.000633
150 0.000653
151 0.000677
152 0.000698
153 0.000704
154 0.000723
155 0.000735
156 0.000750
157 0.000764
158 0.000753
159 0.000717
160 0.000680
161 0.000644
162 0.000610
163 0.000581
164 0.000539
165 0.000499
166 0.000479
167 0.000462
168 0.000466
169 0.000461
170 0.000453
171 0.000447
172 0.000455
173 0.000471
174 0.000503
175 0.000529
176 0.000546
177 0.000574
178 0.000592
179 0.000601
180 0.000605
181 0.000613
182 0.000612
183 0.000625
184 0.000637
185 0.000655
186 0.000669
187 0.000682
188 0.000695
189 0.000705
190 0.000711
191 0.000722
192 0.000723
193 0.000710
194 0.000692
195 0.000682
196 0.000672
197 0.000662
198 0.000630
199 0.000603
200 0.000592
201 0.000582
202 0.000590
203 0.000605
204 0.000609
205 0.000611
206 0.000609
207 0.000603
208 0.000627
209 0.000640
210 0.000636
211 0.000637
212 0.000625
213 0.000629
214 0.000638
215 0.000638
216 0.000643
217 0.000630
218 0.000608
219 0.000595
220 0.000604
221 0.000598
222 0.000599
223 0.000604
224 0.000604
225 0.000609
226 0.000608
227 0.000617
228 0.000632
229 0.000637
230 0.000639
231 0.000637
232 0.000621
233 0.000614
234 0.000614
235 0.000619
236 0.000639
237 0.000654
238 0.000664
239 0.000679
240 0.000703
241 0.000718
242 0.000725
243 0.000728
244 0.000731
245 0.000736
246 0.000729
247 0.000707
248 0.000681
249 0.000670
250 0.000654
251 0.000633
252 0.000616
253 0.000607
254 0.000605
255 0.000605
256 0.000612
257 0.000611
258 0.000590
259 0.000570
260 0.000560
261 0.000573
262 0.000590
263 0.000590
264 0.000582
265 0.000601
266 0.000603
267 0.000598
268 0.000584
269 0.000592
270 0.000602
271 0.000623
272 0.000653
273 0.000690
274 0.000728
275 0.000768
276 0.000804
277 0.000831
278 0.000837
279 0.000844
280 0.000844
281 0.000841
282 0.000836
283 0.000831
284 0.000819
285 0.000809
286 0.000791
287 0.000757
288 0.000738
289 0.000728
290 0.000696
291 0.000673
292 0.000665
293 0.000668
294 0.000674
295 0.000655
296 0.000647
297 0.000651
298 0.000645
299 0.000639
300 0.000636
301 0.000631
302 0.000632
303 0.000628
304 0.000611
305 0.000586
306 0.000581
307 0.000576
308 0.000588
309 0.000592
310 0.000600
311 0.000615
312 0.000627
313 0.000646
314 0.000660
315 0.000678
316 0.000687
317 0.000688
318 0.000686
319 0.000696
320 0.000692
321 0.000689
322 0.000675
323 0.000669
324 0.000667
325 0.000654
326 0.000646
327 0.000637
328 0.000634
329 0.000622
330 0.000623
331 0.000633
332 0.000635
333 0.000641
334 0.000640
335 0.000648
336 0.000642
337 0.000634
338 0.000611
339 0.000598
340 0.000588
341 0.000568
342 0.000567
343 0.000563
344 0.000557
345 0.000556
346 0.000549
347 0.000539
348 0.000532
349 0.000532
350 0.000524
351 0.000529
352 0.000518
353 0.000510
354 0.000494
355 0.000475
356 0.000466
357 0.000464
358 0.000470
359 0.000469
360 0.000474
361 0.000468
362 0.000483
363 0.000488
364 0.000501
365 0.000512
366 0.000518
367 0.000512
368 0.000511
369 0.000523
370 0.000533
371 0.000554
372 0.000580
373 0.000601
374 0.000625
375 0.000634
376 0.000642
377 0.000657
378 0.000675
379 0.000687
380 0.000705
381 0.000714
382 0.000717
383 0.000714
384 0.000713
385 0.000712
386 0.000713
387 0.000708
388 0.000702
389 0.000683
390 0.000669
391 0.000654
392 0.000644
393 0.000632
394 0.000619
395 0.000593
396 0.000583
397 0.000559
398 0.000557
399 0.000553
400 0.000546
401 0.000544
402 0.000543
403 0.000532
404 0.000524
405 0.000526
406 0.000533
407 0.000521
408 0.000528
409 0.000524
410 0.000516
411 0.000504
412 0.000481
413 0.000470
414 0.000464
415 0.000462
416 0.000460
417 0.000459
418 0.000461
419 0.000464
420 0.000474
421 0.000474
422 0.000486
423 0.000494
424 0.000495
425 0.000496
426 0.000487
427 0.000467
428 0.000468
429 0.000487
430 0.000513
431 0.000543
432 0.000553
433 0.000557
434 0.000562
435 0.000552
436 0.000541
437 0.000533
438 0.000526
439 0.000517
440 0.000491
441 0.000461
442 0.000433
443 0.000412
444 0.000394
445 0.000365
446 0.000329
447 0.000297
448 0.000280
449 0.000246
450 0.000248
451 0.000251
452 0.000258
453 0.000251
454 0.000251
455 0.000252
456 0.000255
457 0.000273
458 0.000287
459 0.000301
460 0.000310
461 0.000325
462 0.000336
463 0.000353
464 0.000362
465 0.000370
466 0.000371
467 0.000396
468 0.000421
469 0.000430
470 0.000433
471 0.000437
472 0.000437
473 0.000421
474 0.000400
475 0.000381
476 0.000374
477 0.000354
478 0.000342
479 0.000335
480 0.000327
481 0.000324
482 0.000319
483 0.000311
484 0.000308
485 0.000313
486 0.000321
487 0.000324
488 0.000315
489 0.000325
490 0.000325
491 0.000341
492 0.000343
493 0.000341
494 0.000338
495 0.000336
496 0.000343
497 0.000350
498 0.000354
499 0.000338
500 0.000314
501 0.000295
502 0.000295
503 0.000304
504 0.000303
505 0.000297
506 0.000293
507 0.000297
508 0.000303
509 0.000307
510 0.000311
511 0.000314
512 0.000309
513 0.000306
514 0.000305
515 0.000299
516 0.000302
517 0.000307
518 0.000309
519 0.000323
520 0.000332
521 0.000337
522 0.000345
523 0.000354
524 0.000369
525 0.000370
526 0.000368
527 0.000358
528 0.000358
529 0.000344
530 0.000344
531 0.000343
532 0.000338
533 0.000321
534 0.000296
535 0.000283
536 0.000276
537 0.000285
538 0.000304
539 0.000315
540 0.000312
541 0.000304
542 0.000309
543 0.000303
544 0.000292
545 0.000275
546 0.000261
547 0.000254
548 0.000252
549 0.000252
550 0.000251
551 0.000248
552 0.000237
553 0.000222
554 0.000226
555 0.000232
556 0.000232
557 0.000233
558 0.000240
559 0.000258
560 0.000269
561 0.000285
562 0.000312
563 0.000318
564 0.000320
565 0.000321
566 0.000329
567 0.000327
568 0.000325
569 0.000327
570 0.000329
571 0.000317
572 0.000300
573 0.000290
574 0.000290
575 0.000281
576 0.000275
577 0.000274
578 0.000265
579 0.000245
580 0.000222
581 0.000207
582 0.000198
583 0.000189
584 0.000172
585 0.000157
586 0.000151
587 0.000139
588 0.000135
589 0.000137
590 0.000140
591 0.000137
592 0.000132
593 0.000125
594 0.000128
595 0.000127
596 0.000136
597 0.000139
598 0.000141
599 0.000141
600 0.000139
601 0.000140
602 0.000142
603 0.000135
604 0.000119
605 0.000105
606 0.000077
607 0.000065
608 0.000054
609 0.000058
610 0.000061
611 0.000067
612 0.000073
613 0.000085
614 0.000104
615 0.000133
616 0.000149
617 0.000158
618 0.000169
619 0.000175
620 0.000181
621 0.000186
622 0.000191
623 0.000179
624 0.000154
625 0.000141
626 0.000123
627 0.000114
628 0.000104
629 0.000096
630 0.000091
631 0.000092
632 0.000083
633 0.000080
634 0.000085
635 0.000102
636 0.000119
637 0.000133
638 0.000139
639 0.000145
640 0.000148
641 0.000151
642 0.000154
643 0.000151
644 0.000134
645 0.000130
646 0.000124
647 0.000125
648 0.000135
649 0.000133
650 0.000123
651 0.000112
652 0.000106
653 0.000105
654 0.000101
655 0.000103
656 0.000095
657 0.000084
658 0.000074
659 0.000078
660 0.000081
661 0.000091
662 0.000094
663 0.000098
664 0.000111
665 0.000125
666 0.000142
667 0.000158
668 0.000178
669 0.000184
670 0.000195
671 0.000206
672 0.000221
673 0.000234
674 0.000239
675 0.000240
676 0.000238
677 0.000235
678 0.000230
679 0.000219
680 0.000201
681 0.000187
682 0.000169
683 0.000153
684 0.000139
685 0.000132
686 0.000112
687 0.000099
688 0.000088
689 0.000069
690 0.000048
691 0.000019
692 -0.000007
693 -0.000018
694 -0.000016
695 -0.000009
696 -0.000009
697 -0.000002
698 0.000004
699 0.000029
700 0.000051
701 0.000072
702 0.000084
703 0.000082
704 0.000093
705 0.000103
706 0.000123
707 0.000147
708 0.000173
709 0.000193
710 0.000204
711 0.000211
712 0.000223
713 0.000233
714 0.000250
715 0.000253
716 0.000262
717 0.000267
718 0.000275
719 0.000280
720 0.000292
721 0.000286
722 0.000292
723 0.000288
724 0.000291
725 0.000291
726 0.000287
727 0.000285
728 0.000285
729 0.000271
730 0.000255
731 0.000236
732 0.000229
733 0.000228
734 0.000224
735 0.000217
736 0.000209
737 0.000201
738 0.000194
739 0.000193
740 0.000194
741 0.000199
742 0.000197
743 0.000194
744 0.000199
745 0.000207
746 0.000219
747 0.000233
748 0.000247
749 0.000252
750 0.000262
751 0.000276
752 0.000295
753 0.000312
754 0.000325
755 0.000324
756 0.000323
757 0.000318
758 0.000324
759 0.000314
760 0.000312
761 0.000309
762 0.000310
763 0.000295
764 0.000281
765 0.000276
766 0.000274
767 0.000266
768 0.000263
769 0.000249
770 0.000243
771 0.000239
772 0.000237
773 0.000235
774 0.000231
775 0.000230
776 0.000221
777 0.000217
778 0.000223
779 0.000233
780 0.000238
781 0.000235
782 0.000231
783 0.000229
784 0.000222
785 0.000218
786 0.000216
787 0.000217
788 0.000217
789 0.000212
790 0.000216
791 0.000222
792 0.000228
793 0.000226
794 0.000226
795 0.000227
796 0.000227
797 0.000220
798 0.000219
799 0.000218
800 0.000219
801 0.000214
802 0.000211
803 0.000207
804 0.000208
805 0.000210
806 0.000216
807 0.000217
808 0.000211
809 0.000204
