# i correlation
1 0.002591
2 0.002444
3 0.002312
4 0.002180
5 0.002067
6 0.001979
7 0.001897
8 0.001837
9 0.001764
10 0.001696
11 0.001664
12 0.001639
13 0.001636
14 0.001620
15 0.001628
16 0.001647
17 0.001662
18 0.001656
19 0.001659
20 0.001659
21 0.001675
22 0.001684
23 0.001682
24 0.001678
25 0.001655
26 0.001626
27 0.001614
28 0.001595
29 0.001577
30 0.001547
31 0.001536
32 0.001501
33 0.001492
34 0.001489
35 0.001475
36 0.001473
37 0.001479
38 0.001468
39 0.001456
40 0.001449
41 0.001429
42 0.001405
43 0.001388
44 0.001370
45 0.001350
46 0.001327
47 0.001291
48 0.001269
49 0.001252
50 0.001246
51 0.001230
52 0.001227
53 0.001223
54 0.001223
55 0.001240
56 0.001249
57 0.001245
58 0.001257
59 0.001252
60 0.001238
61 0.001224
62 0.001205
63 0.001199
64 0.001187
65 0.001190
66 0.001184
67 0.001171
68 0.001170
69 0.001168
70 0.001176
71 0.001208
72 0.001221
73 0.001228
74 0.001233
75 0.001207
76 0.001187
77 0.001180
78 0.001177
79 0.001170
80 0.001153
81 0.001134
82 0.001115
83 0.001076
84 0.001033
85 0.000999
86 0.000976
87 0.000968
88 0.000951
89 0.000942
90 0.000942
91 0.000934
92 0.000951
93 0.000995
94 0.001049
95 0.001097
96 0.001128
97 0.001121
98 0.001128
99 0.001110
100 0.001096
101 0.001091
102 0.001081
103 0.001069
104 0.001054
105 0.001030
106 0.001015
107 0.001003
108 0.000982
109 0.000978
110 0.000971
111 0.000975
112 0.000972
113 0.000972
114 0.000977
115 0.000986
116 0.000987
117 0.000994
118 0.000998
119 0.001006
120 0.001002
121 0.001000
122 0.000990
123 0.001003
124 0.000990
125 0.000949
126 0.000917
127 0.000904
128 0.000879
129 0.000864
130 0.000863
131 0.000886
132 0.000909
133 0.000921
134 0.000928
135 0.000945
136 0.000975
137 0.000995
138 0.001014
139 0.001031
140 0.001038
141 0.001043
142 0.001044
143 0.001044
144 0.001038
145 0.001024
146 0.001012
147 0.000999
148 0.000992
149 0.000987
150 0.000994
151 0.000985
152 0.000985
153 0.000986
154 0.000998
155 0.000993
156 0.000990
157 0.000978
158 0.000949
159 0.000932
160 0.000919
161 0.000896
162 0.000866
163 0.000841
164 0.000816
165 0.000809
166 0.000817
167 0.000828
168 0.000819
169 0.000829
170 0.000837
171 0.000821
172 0.000815
173 0.000796
174 0.000780
175 0.000766
176 0.000755
177 0.000746
178 0.000742
179 0.000729
180 0.000717
181 0.000693
182 0.000674
183 0.000660
184 0.000654
185 0.000644
186 0.000651
187 0.000656
188 0.000668
189 0.000672
190 0.000685
191 0.000692
192 0.000696
193 0.000703
194 0.000705
195 0.000706
196 0.000707
197 0.000696
198 0.000658
199 0.000624
200 0.000593
201 0.000572
202 0.000562
203 0.000559
204 0.000543
205 0.000534
206 0.000515
207 0.000492
208 0.000491
209 0.000484
210 0.000493
211 0.000498
212 0.000500
213 0.000512
214 0.000510
215 0.000522
216 0.000517
217 0.000525
218 0.000537
219 0.000546
220 0.000536
221 0.000531
222 0.000518
223 0.000494
224 0.000475
225 0.000475
226 0.000471
227 0.000471
228 0.000453
229 0.000430
230 0.000429
231 0.000411
232 0.000383
233 0.000355
234 0.000346
235 0.000335
236 0.000330
237 0.000337
238 0.000347
239 0.000363
240 0.000363
241 0.000359
242 0.000370
243 0.000372
244 0.000373
245 0.000359
246 0.000366
247 0.000373
248 0.000387
249 0.000403
250 0.000424
251 0.000439
252 0.000443
253 0.000441
254 0.000450
255 0.000448
256 0.000435
257 0.000422
258 0.000404
259 0.000401
260 0.000393
261 0.000391
262 0.000395
263 0.000396
264 0.000395
265 0.000420
266 0.000436
267 0.000452
268 0.000458
269 0.000448
270 0.000440
271 0.000431
272 0.000404
273 0.000408
274 0.000404
275 0.000414
276 0.000410
277 0.000402
278 0.000389
279 0.000366
280 0.000331
281 0.000314
282 0.000296
283 0.000276
284 0.000264
285 0.000244
286 0.000243
287 0.000230
288 0.000232
289 0.000247
290 0.000279
291 0.000309
292 0.000347
293 0.000383
294 0.000399
295 0.000404
296 0.000424
297 0.000434
298 0.000456
299 0.000468
300 0.000468
301 0.000467
302 0.000450
303 0.000435
304 0.000420
305 0.000412
306 0.000383
307 0.000360
308 0.000333
309 0.000311
310 0.000298
311 0.000276
312 0.000261
313 0.000256
314 0.000257
315 0.000270
316 0.000290
317 0.000319
318 0.000330
319 0.000336
320 0.000356
321 0.000367
322 0.000364
323 0.000367
324 0.000370
325 0.000389
326 0.000397
327 0.000403
328 0.000400
329 0.000397
330 0.000382
331 0.000370
332 0.000367
333 0.000362
334 0.000374
335 0.000379
336 0.000409
337 0.000420
338 0.000412
339 0.000400
340 0.000379
341 0.000376
342 0.000375
343 0.000366
344 0.000371
345 0.000367
346 0.000357
347 0.000363
348 0.000362
349 0.000378
350 0.000383
351 0.000370
352 0.000355
353 0.000352
354 0.000341
355 0.000325
356 0.000326
357 0.000333
358 0.000344
359 0.000332
360 0.000334
361 0.000333
362 0.000332
363 0.000341
364 0.000336
365 0.000344
366 0.000352
367 0.000336
368 0.000326
369 0.000327
370 0.000343
371 0.000357
372 0.000375
373 0.000398
374 0.000407
375 0.000409
376 0.000398
377 0.000380
378 0.000363
379 0.000334
380 0.000302
381 0.000283
382 0.000261
383 0.000234
384 0.000212
385 0.000203
386 0.000205
387 0.000217
388 0.000225
389 0.000238
390 0.000250
391 0.000251
392 0.000266
393 0.000268
394 0.000295
395 0.000303
396 0.000313
397 0.000322
398 0.000323
399 0.000331
400 0.000333
401 0.000327
402 0.000323
403 0.000320
404 0.000309
405 0.000315
406 0.000309
407 0.000309
408 0.000309
409 0.000328
410 0.000325
411 0.000338
412 0.000355
413 0.000378
414 0.000400
415 0.000425
416 0.000444
417 0.000458
418 0.000457
419 0.000459
420 0.000450
421 0.000428
422 0.000399
423 0.000379
424 0.000346
425 0.000311
426 0.000272
427 0.000243
428 0.000219
429 0.000211
430 0.000213
431 0.000229
432 0.000255
433 0.000265
434 0.000273
435 0.000282
436 0.000298
437 0.000318
438 0.000330
439 0.000342
440 0.000370
441 0.000364
442 0.000360
443 0.000345
444 0.000333
445 0.000331
446 0.000331
447 0.000332
448 0.000334
449 0.000326
450 0.000317
451 0.000305
452 0.000301
453 0.000309
454 0.000302
455 0.000293
456 0.000290
457 0.000282
458 0.000280
459 0.000295
460 0.000302
461 0.000297
462 0.000291
463 0.000281
464 0.000266
465 0.000256
466 0.000252
467 0.000252
468 0.000265
469 0.000291
470 0.000319
471 0.000348
472 0.000371
473 0.000393
474 0.000409
475 0.000424
476 0.000437
477 0.000454
478 0.000455
479 0.000451
480 0.000449
481 0.000449
482 0.000433
483 0.000426
484 0.000410
485 0.000398
486 0.000404
487 0.000407
488 0.000422
489 0.000430
490 0.000445
491 0.000454
492 0.000470
493 0.000486
494 0.000500
495 0.000511
496 0.000522
497 0.000526
498 0.000518
499 0.000498
500 0.000477
501 0.000454
502 0.000427
503 0.000416
504 0.000409
505 0.000414
506 0.000420
507 0.000424
508 0.000431
509 0.000445
510 0.000460
511 0.000478
512 0.000498
513 0.000529
514 0.000554
515 0.000569
516 0.000574
517 0.000591
518 0.000605
519 0.000611
520 0.000616
521 0.000610
522 0.000594
523 0.000571
524 0.000538
525 0.000509
526 0.000491
527 0.000471
528 0.000456
529 0.000440
530 0.000420
531 0.000399
532 0.000398
533 0.000403
534 0.000396
535 0.000395
536 0.000392
537 0.000383
538 0.000375
539 0.000356
540 0.000358
541 0.000366
542 0.000369
543 0.000371
544 0.000386
545 0.000384
546 0.000387
547 0.000391
548 0.000388
549 0.000390
550 0.000397
551 0.000396
552 0.000392
553 0.000383
554 0.000388
555 0.000401
556 0.000406
557 0.000406
558 0.000401
559 0.000400
560 0.000391
561 0.000376
562 0.000355
563 0.000346
564 0.000337
565 0.000335
566 0.000340
567 0.000353
568 0.000357
569 0.000357
570 0.000344
571 0.000345
572 0.000336
573 0.000336
574 0.000338
575 0.000341
576 0.000345
577 0.000337
578 0.000320
579 0.000301
580 0.000281
581 0.000255
582 0.000232
583 0.000233
584 0.000237
585 0.000236
586 0.000237
587 0.000240
588 0.000236
589 0.000236
590 0.000235
591 0.000258
592 0.000276
593 0.000285
594 0.000280
595 0.000278
596 0.000274
597 0.000267
598 0.000257
599 0.000254
600 0.000251
601 0.000235
602 0.000236
603 0.000234
604 0.000231
605 0.000223
606 0.000212
607 0.000209
608 0.000212
609 0.000223
610 0.000227
611 0.000235
612 0.000247
613 0.000257
614 0.000267
615 0.000292
616 0.000306
617 0.000310
618 0.000308
619 0.000304
620 0.000310
621 0.000298
622 0.000294
623 0.000285
624 0.000287
625 0.000292
626 0.000305
627 0.000307
628 0.000323
629 0.000335
630 0.000346
631 0.000353
632 0.000357
633 0.000365
634 0.000354
635 0.000339
636 0.000339
637 0.000330
638 0.000322
639 0.000322
640 0.000315
641 0.000304
642 0.000307
643 0.000314
644 0.000316
645 0.000324
646 0.000332
647 0.000341
648 0.000349
649 0.000364
650 0.000375
651 0.000391
652 0.000399
653 0.000405
654 0.000415
655 0.000427
656 0.000435
657 0.000443
658 0.000434
659 0.000437
660 0.000429
661 0.000431
662 0.000433
663 0.000444
664 0.000453
665 0.000462
666 0.000465
667 0.000468
668 0.000471
669 0.000467
670 0.000480
671 0.000484
672 0.000480
673 0.000484
674 0.000493
675 0.000482
676 0.000478
677 0.000475
678 0.000488
679 0.000490
680 0.000491
681 0.000490
682 0.000487
683 0.000486
684 0.000486
685 0.000477
686 0.000479
687 0.000487
688 0.000486
689 0.000480
690 0.000479
691 0.000483
692 0.000482
693 0.000474
694 0.000467
695 0.000455
696 0.000434
697 0.000413
698 0.000400
699 0.000388
700 0.000378
701 0.000368
702 0.000357
703 0.000346
704 0.000337
705 0.000329
706 0.000322
707 0.000330
708 0.000338
709 0.000347
710 0.000361
711 0.000372
712 0.000373
713 0.000376
714 0.000381
715 0.000392
716 0.000394
717 0.000393
718 0.000384
719 0.000365
720 0.000353
721 0.000332
722 0.000323
723 0.000321
724 0.000314
725 0.000305
726 0.000307
727 0.000296
728 0.000292
729 0.000278
730 0.000264
731 0.000255
732 0.000244
733 0.000242
734 0.000243
735 0.000241
736 0.000246
737 0.000249
738 0.000242
739 0.000244
740 0.000244
741 0.000243
742 0.000233
743 0.000232
744 0.000232
745 0.000235
746 0.000231
747 0.000231
748 0.000232
749 0.000231
750 0.000221
751 0.000215
752 0.000219
753 0.000215
754 0.000210
755 0.000203
756 0.000198
757 0.000203
758 0.000200
759 0.000195
760 0.000190
761 0.000181
762 0.000173
763 0.000174
764 0.000175
765 0.000183
766 0.000186
767 0.000188
768 0.000188
769 0.000190
770 0.000194
771 0.000195
772 0.000203
773 0.000209
774 0.000218
775 0.000224
776 0.000232
777 0.000232
778 0.000233
779 0.000234
780 0.000234
781 0.000241
782 0.000252
783 0.000254
784 0.000254
785 0.000260
786 0.000261
787 0.000261
788 0.000261
789 0.000261
790 0.000257
791 0.000252
792 0.000243
793 0.000229
794 0.000226
795 0.000226
796 0.000219
797 0.000213
798 0.000214
799 0.000212
800 0.000206
801 0.000201
802 0.000196
803 0.000193
804 0.000192
805 0.000193
806 0.000204
807 0.000210
808 0.000213
809 0.000218
