# i correlation
1 0.001717
2 0.001571
3 0.001461
4 0.001346
5 0.001239
6 0.001155
7 0.001080
8 0.001015
9 0.000978
10 0.000938
11 0.000890
12 0.000852
13 0.000830
14 0.000805
15 0.000785
16 0.000765
17 0.000744
18 0.000721
19 0.000712
20 0.000699
21 0.000678
22 0.000679
23 0.000670
24 0.000646
25 0.000640
26 0.000618
27 0.000609
28 0.000618
29 0.000628
30 0.000637
31 0.000665
32 0.000672
33 0.000656
34 0.000647
35 0.000654
36 0.000636
37 0.000604
38 0.000573
39 0.000539
40 0.000516
41 0.000509
42 0.000497
43 0.000469
44 0.000468
45 0.000462
46 0.000452
47 0.000434
48 0.000426
49 0.000409
50 0.000398
51 0.000391
52 0.000388
53 0.000392
54 0.000379
55 0.000384
56 0.000401
57 0.000415
58 0.000443
59 0.000454
60 0.000473
61 0.000494
62 0.000506
63 0.000522
64 0.000526
65 0.000535
66 0.000562
67 0.000592
68 0.000614
69 0.000627
70 0.000626
71 0.000630
72 0.000621
73 0.000607
74 0.000586
75 0.000579
76 0.000565
77 0.000559
78 0.000560
79 0.000566
80 0.000580
81 0.000585
82 0.000571
83 0.000568
84 0.000568
85 0.000563
86 0.000566
87 0.000530
88 0.000509
89 0.000505
90 0.000503
91 0.000509
92 0.000528
93 0.000530
94 0.000532
95 0.000533
96 0.000521
97 0.000513
98 0.000514
99 0.000517
100 0.000516
101 0.000506
102 0.000504
103 0.000504
104 0.000471
105 0.000440
106 0.000427
107 0.000409
108 0.000418
109 0.000420
110 0.000421
111 0.000443
112 0.000455
113 0.000461
114 0.000469
115 0.000484
116 0.000486
117 0.000494
118 0.000503
119 0.000522
120 0.000512
121 0.000524
122 0.000526
123 0.000522
124 0.000524
125 0.000533
126 0.000524
127 0.000530
128 0.000536
129 0.000522
130 0.000519
131 0.000538
132 0.000536
133 0.000519
134 0.000503
135 0.000477
136 0.000455
137 0.000441
138 0.000446
139 0.000439
140 0.000438
141 0.000456
142 0.000466
143 0.000470
144 0.000486
145 0.000491
146 0.000487
147 0.000499
148 0.000501
149 0.000489
150 0.000507
151 0.000512
152 0.000496
153 0.000513
154 0.000517
155 0.000514
156 0.000508
157 0.000501
158 0.000496
159 0.000503
160 0.000518
161 0.000536
162 0.000548
163 0.000577
164 0.000586
165 0.000601
166 0.000602
167 0.000586
168 0.000547
169 0.000516
170 0.000486
171 0.000460
172 0.000446
173 0.000434
174 0.000405
175 0.000399
176 0.000404
177 0.000402
178 0.000407
179 0.000416
180 0.000418
181 0.000428
182 0.000439
183 0.000436
184 0.000439
185 0.000458
186 0.000472
187 0.000466
188 0.000464
189 0.000470
190 0.000484
191 0.000495
192 0.000503
193 0.000503
194 0.000506
195 0.000505
196 0.000489
197 0.000482
198 0.000472
199 0.000479
200 0.000497
201 0.000489
202 0.000459
203 0.000461
204 0.000464
205 0.000450
206 0.000447
207 0.000459
208 0.000452
209 0.000447
210 0.000448
211 0.000458
212 0.000455
213 0.000461
214 0.000472
215 0.000461
216 0.000462
217 0.000459
218 0.000448
219 0.000433
220 0.000430
221 0.000418
222 0.000417
223 0.000431
224 0.000430
225 0.000419
226 0.000419
227 0.000404
228 0.000386
229 0.000366
230 0.000358
231 0.000362
232 0.000361
233 0.000369
234 0.000389
235 0.000406
236 0.000432
237 0.000413
238 0.000397
239 0.000393
240 0.000385
241 0.000377
242 0.000371
243 0.000370
244 0.000366
245 0.000359
246 0.000359
247 0.000355
248 0.000355
249 0.000360
250 0.000359
251 0.000355
252 0.000355
253 0.000346
254 0.000328
255 0.000324
256 0.000323
257 0.000316
258 0.000312
259 0.000312
260 0.000305
261 0.000295
262 0.000289
263 0.000281
264 0.000293
265 0.000304
266 0.000312
267 0.000310
268 0.000312
269 0.000318
270 0.000331
271 0.000338
272 0.000351
273 0.000351
274 0.000353
275 0.000365
276 0.000374
277 0.000381
278 0.000389
279 0.000392
280 0.000393
281 0.000376
282 0.000351
283 0.000328
284 0.000330
285 0.000323
286 0.000314
287 0.000302
288 0.000305
289 0.000302
290 0.000292
291 0.000286
292 0.000308
293 0.000318
294 0.000330
295 0.000337
296 0.000330
297 0.000326
298 0.000298
299 0.000272
300 0.000260
301 0.000258
302 0.000260
303 0.000274
304 0.000282
305 0.000293
306 0.000309
307 0.000321
308 0.000317
309 0.000323
310 0.000322
311 0.000331
312 0.000340
313 0.000344
314 0.000349
315 0.000358
316 0.000372
317 0.000384
318 0.000383
319 0.000386
320 0.000393
321 0.000377
322 0.000365
323 0.000343
324 0.000329
325 0.000326
326 0.000333
327 0.000328
328 0.000324
329 0.000320
330 0.000306
331 0.000298
332 0.000305
333 0.000297
334 0.000294
335 0.000311
336 0.000323
337 0.000327
338 0.000339
339 0.000354
340 0.000342
341 0.000356
342 0.000372
343 0.000371
344 0.000381
345 0.000396
346 0.000396
347 0.000409
348 0.000423
349 0.000412
350 0.000409
351 0.000427
352 0.000419
353 0.000406
354 0.000398
355 0.000396
356 0.000384
357 0.000373
358 0.000372
359 0.000357
360 0.000341
361 0.000326
362 0.000317
363 0.000315
364 0.000312
365 0.000292
366 0.000281
367 0.000275
368 0.000261
369 0.000243
370 0.000231
371 0.000214
372 0.000214
373 0.000225
374 0.000230
375 0.000225
376 0.000235
377 0.000235
378 0.000246
379 0.000253
380 0.000261
381 0.000273
382 0.000276
383 0.000286
384 0.000280
385 0.000269
386 0.000283
387 0.000284
388 0.000281
389 0.000280
390 0.000265
391 0.000259
392 0.000255
393 0.000242
394 0.000227
395 0.000222
396 0.000227
397 0.000244
398 0.000250
399 0.000256
400 0.000272
401 0.000281
402 0.000285
403 0.000300
404 0.000319
405 0.000328
406 0.000339
407 0.000355
408 0.000358
409 0.000364
410 0.000368
411 0.000385
412 0.000385
413 0.000385
414 0.000384
415 0.000391
416 0.000391
417 0.000398
418 0.000389
419 0.000393
420 0.000394
421 0.000390
422 0.000381
423 0.000386
424 0.000377
425 0.000366
426 0.000354
427 0.000359
428 0.000360
429 0.000344
430 0.000329
431 0.000319
432 0.000297
433 0.000283
434 0.000296
435 0.000300
436 0.000305
437 0.000319
438 0.000332
439 0.000341
440 0.000344
441 0.000332
442 0.000328
443 0.000332
444 0.000323
445 0.000316
446 0.000300
447 0.000286
448 0.000265
449 0.000241
450 0.000220
451 0.000195
452 0.000175
453 0.000160
454 0.000152
455 0.000144
456 0.000146
457 0.000150
458 0.000154
459 0.000172
460 0.000188
461 0.000180
462 0.000164
463 0.000155
464 0.000144
465 0.000136
466 0.000136
467 0.000141
468 0.000140
469 0.000153
470 0.000177
471 0.000181
472 0.000189
473 0.000187
474 0.000185
475 0.000194
476 0.000191
477 0.000190
478 0.000194
479 0.000201
480 0.000198
481 0.000188
482 0.000189
483 0.000198
484 0.000203
485 0.000205
486 0.000210
487 0.000212
488 0.000210
489 0.000209
490 0.000199
491 0.000196
492 0.000213
493 0.000206
494 0.000200
495 0.000196
496 0.000187
497 0.000173
498 0.000166
499 0.000149
500 0.000138
501 0.000148
502 0.000147
503 0.000144
504 0.000146
505 0.000158
506 0.000173
507 0.000190
508 0.000199
509 0.000201
510 0.000202
511 0.000203
512 0.000198
513 0.000189
514 0.000196
515 0.000194
516 0.000181
517 0.000174
518 0.000162
519 0.000152
520 0.000152
521 0.000145
522 0.000117
523 0.000106
524 0.000094
525 0.000079
526 0.000078
527 0.000079
528 0.000098
529 0.000121
530 0.000136
531 0.000141
532 0.000136
533 0.000130
534 0.000118
535 0.000114
536 0.000118
537 0.000121
538 0.000134
539 0.000149
540 0.000156
541 0.000155
542 0.000162
543 0.000165
544 0.000162
545 0.000171
546 0.000178
547 0.000166
548 0.000164
549 0.000165
550 0.000164
551 0.000169
552 0.000184
553 0.000199
554 0.000207
555 0.000229
556 0.000239
557 0.000239
558 0.000241
559 0.000244
560 0.000238
561 0.000233
562 0.000238
563 0.000234
564 0.000235
565 0.000244
566 0.000241
567 0.000250
568 0.000252
569 0.000243
570 0.000247
571 0.000246
572 0.000245
573 0.000248
574 0.000246
575 0.000234
576 0.000218
577 0.000212
578 0.000210
579 0.000197
580 0.000191
581 0.000197
582 0.000200
583 0.000185
584 0.000181
585 0.000167
586 0.000164
587 0.000175
588 0.000181
589 0.000182
590 0.000188
591 0.000194
592 0.000185
593 0.000170
594 0.000151
595 0.000132
596 0.000117
597 0.000098
598 0.000076
599 0.000057
600 0.000041
601 0.000041
602 0.000041
603 0.000042
604 0.000061
605 0.000068
606 0.000080
607 0.000087
608 0.000081
609 0.000086
610 0.000097
611 0.000100
612 0.000101
613 0.000107
614 0.000106
615 0.000102
616 0.000090
617 0.000073
618 0.000053
619 0.000042
620 0.000047
621 0.000044
622 0.000056
623 0.000079
624 0.000094
625 0.000106
626 0.000123
627 0.000131
628 0.000134
629 0.000129
630 0.000129
631 0.000123
632 0.000114
633 0.000110
634 0.000099
635 0.000093
636 0.000090
637 0.000094
638 0.000091
639 0.000092
640 0.000093
641 0.000093
642 0.000098
643 0.000097
644 0.000095
645 0.000099
646 0.000108
647 0.000113
648 0.000132
649 0.000144
650 0.000155
651 0.000171
652 0.000192
653 0.000203
654 0.000216
655 0.000226
656 0.000234
657 0.000244
658 0.000249
659 0.000256
660 0.000255
661 0.000251
662 0.000245
663 0.000235
664 0.000218
665 0.000197
666 0.000166
667 0.000145
668 0.000133
669 0.000111
670 0.000104
671 0.000098
672 0.000091
673 0.000096
674 0.000098
675 0.000091
676 0.000084
677 0.000081
678 0.000079
679 0.000073
680 0.000069
681 0.000073
682 0.000065
683 0.000081
684 0.000091
685 0.000087
686 0.000092
687 0.000092
688 0.000091
689 0.000084
690 0.000087
691 0.000082
692 0.000088
693 0.000105
694 0.000108
695 0.000116
696 0.000115
697 0.000102
698 0.000087
699 0.000085
700 0.000073
701 0.000064
702 0.000047
703 0.000041
704 0.000042
705 0.000044
706 0.000048
707 0.000047
708 0.000055
709 0.000061
710 0.000059
711 0.000055
712 0.000051
713 0.000049
714 0.000050
715 0.000059
716 0.000066
717 0.000063
718 0.000070
719 0.000071
720 0.000077
721 0.000091
722 0.000098
723 0.000109
724 0.000119
725 0.000134
726 0.000144
727 0.000142
728 0.000146
729 0.000149
730 0.000150
731 0.000151
732 0.000145
733 0.000139
734 0.000139
735 0.000142
736 0.000141
737 0.000143
738 0.000137
739 0.000136
740 0.000136
741 0.000132
742 0.000127
743 0.000127
744 0.000126
745 0.000133
746 0.000134
747 0.000132
748 0.000127
749 0.000126
750 0.000123
751 0.000130
752 0.000142
753 0.000141
754 0.000145
755 0.000146
756 0.000152
757 0.000150
758 0.000142
759 0.000143
760 0.000145
761 0.000138
762 0.000140
763 0.000144
764 0.000149
765 0.000148
766 0.000156
767 0.000177
768 0.000185
769 0.000192
770 0.000202
771 0.000214
772 0.000221
773 0.000227
774 0.000230
775 0.000228
776 0.000228
777 0.000220
778 0.000217
779 0.000212
780 0.000204
781 0.000204
782 0.000199
783 0.000193
784 0.000182
785 0.000171
786 0.000174
787 0.000182
788 0.000181
789 0.000183
790 0.000184
791 0.000182
792 0.000174
793 0.000167
794 0.000152
795 0.000143
796 0.000133
797 0.000127
798 0.000116
799 0.000103
800 0.000087
801 0.000079
802 0.000081
803 0.000078
804 0.000076
805 0.000075
806 0.000069
807 0.000071
808 0.000069
809 0.000064
