# i correlation
1 0.002218
2 0.002065
3 0.001925
4 0.001788
5 0.001686
6 0.001612
7 0.001545
8 0.001481
9 0.001427
10 0.001403
11 0.001399
12 0.001406
13 0.001408
14 0.001419
15 0.001406
16 0.001379
17 0.001368
18 0.001340
19 0.001324
20 0.001297
21 0.001281
22 0.001275
23 0.001247
24 0.001208
25 0.001191
26 0.001155
27 0.001135
28 0.001121
29 0.001114
30 0.001124
31 0.001118
32 0.001102
33 0.001080
34 0.001059
35 0.001062
36 0.001062
37 0.001071
38 0.001068
39 0.001044
40 0.001044
41 0.001030
42 0.001024
43 0.001011
44 0.001031
45 0.001032
46 0.001013
47 0.000988
48 0.000964
49 0.000971
50 0.000967
51 0.000950
52 0.000941
53 0.000918
54 0.000908
55 0.000900
56 0.000888
57 0.000907
58 0.000906
59 0.000922
60 0.000917
61 0.000918
62 0.000929
63 0.000933
64 0.000936
65 0.000935
66 0.000923
67 0.000931
68 0.000932
69 0.000924
70 0.000923
71 0.000917
72 0.000911
73 0.000890
74 0.000891
75 0.000917
76 0.000964
77 0.000987
78 0.000999
79 0.001006
80 0.001001
81 0.000978
82 0.000962
83 0.000938
84 0.000908
85 0.000874
86 0.000856
87 0.000839
88 0.000821
89 0.000820
90 0.000823
91 0.000812
92 0.000808
93 0.000811
94 0.000803
95 0.000803
96 0.000801
97 0.000808
98 0.000819
99 0.000835
100 0.000849
101 0.000872
102 0.000886
103 0.000904
104 0.000921
105 0.000927
106 0.000921
107 0.000913
108 0.000908
109 0.000913
110 0.000902
111 0.000902
112 0.000900
113 0.000895
114 0.000887
115 0.000876
116 0.000869
117 0.000856
118 0.000849
119 0.000845
120 0.000856
121 0.000860
122 0.000873
123 0.000887
124 0.000890
125 0.000888
126 0.000875
127 0.000866
128 0.000839
129 0.000825
130 0.000823
131 0.000803
132 0.000772
133 0.000784
134 0.000787
135 0.000780
136 0.000780
137 0.000784
138 0.000770
139 0.000765
140 0.000762
141 0.000749
142 0.000727
143 0.000703
144 0.000697
145 0.000713
146 0.000721
147 0.000719
148 0.000708
149 0.000691
150 0.000686
151 0.000688
152 0.000667
153 0.000661
154 0.000654
155 0.000655
156 0.000653
157 0.000649
158 0.000657
159 0.000660
160 0.000664
161 0.000657
162 0.000645
163 0.000637
164 0.000620
165 0.000601
166 0.000578
167 0.000550
168 0.000519
169 0.000480
170 0.000463
171 0.000445
172 0.000429
173 0.000422
174 0.000420
175 0.000415
176 0.000408
177 0.000417
178 0.000414
179 0.000418
180 0.000415
181 0.000422
182 0.000427
183 0.000416
184 0.000403
185 0.000403
186 0.000383
187 0.000350
188 0.000335
189 0.000321
190 0.000324
191 0.000320
192 0.000320
193 0.000314
194 0.000305
195 0.000326
196 0.000330
197 0.000342
198 0.000331
199 0.000316
200 0.000313
201 0.000308
202 0.000309
203 0.000305
204 0.000315
205 0.000298
206 0.000291
207 0.000296
208 0.000303
209 0.000334
210 0.000374
211 0.000385
212 0.000414
213 0.000436
214 0.000451
215 0.000480
216 0.000507
217 0.000522
218 0.000521
219 0.000506
220 0.000491
221 0.000466
222 0.000459
223 0.000470
224 0.000470
225 0.000489
226 0.000518
227 0.000538
228 0.000546
229 0.000563
230 0.000576
231 0.000592
232 0.000605
233 0.000615
234 0.000620
235 0.000617
236 0.000616
237 0.000624
238 0.000608
239 0.000617
240 0.000618
241 0.000604
242 0.000592
243 0.000557
244 0.000518
245 0.000482
246 0.000442
247 0.000408
248 0.000379
249 0.000356
250 0.000331
251 0.000304
252 0.000278
253 0.000278
254 0.000305
255 0.000314
256 0.000321
257 0.000337
258 0.000343
259 0.000339
260 0.000357
261 0.000364
262 0.000356
263 0.000326
264 0.000309
265 0.000295
266 0.000265
267 0.000250
268 0.000234
269 0.000229
270 0.000220
271 0.000224
272 0.000226
273 0.000229
274 0.000234
275 0.000245
276 0.000257
277 0.000261
278 0.000258
279 0.000267
280 0.000257
281 0.000227
282 0.000195
283 0.000164
284 0.000147
285 0.000123
286 0.000123
287 0.000125
288 0.000122
289 0.000116
290 0.000117
291 0.000126
292 0.000132
293 0.000135
294 0.000147
295 0.000144
296 0.000146
297 0.000144
298 0.000136
299 0.000131
300 0.000127
301 0.000139
302 0.000140
303 0.000142
304 0.000143
305 0.000121
306 0.000115
307 0.000117
308 0.000111
309 0.000124
310 0.000122
311 0.000108
312 0.000086
313 0.000077
314 0.000070
315 0.000078
316 0.000102
317 0.000111
318 0.000121
319 0.000147
320 0.000171
321 0.000189
322 0.000198
323 0.000194
324 0.000181
325 0.000162
326 0.000146
327 0.000108
328 0.000077
329 0.000056
330 0.000040
331 0.000026
332 0.000040
333 0.000047
334 0.000055
335 0.000068
336 0.000089
337 0.000111
338 0.000127
339 0.000131
340 0.000138
341 0.000147
342 0.000152
343 0.000166
344 0.000169
345 0.000166
346 0.000186
347 0.000208
348 0.000218
349 0.000225
350 0.000213
351 0.000210
352 0.000188
353 0.000183
354 0.000167
355 0.000171
356 0.000182
357 0.000179
358 0.000175
359 0.000170
360 0.000177
361 0.000169
362 0.000160
363 0.000175
364 0.000177
365 0.000180
366 0.000198
367 0.000204
368 0.000204
369 0.000196
370 0.000198
371 0.000185
372 0.000178
373 0.000172
374 0.000162
375 0.000137
376 0.000126
377 0.000121
378 0.000132
379 0.000141
380 0.000159
381 0.000163
382 0.000153
383 0.000153
384 0.000156
385 0.000164
386 0.000160
387 0.000167
388 0.000165
389 0.000152
390 0.000125
391 0.000113
392 0.000103
393 0.000084
394 0.000080
395 0.000090
396 0.000093
397 0.000101
398 0.000099
399 0.000098
400 0.000103
401 0.000113
402 0.000110
403 0.000098
404 0.000077
405 0.000060
406 0.000039
407 0.000015
408 0.000002
409 -0.000019
410 -0.000029
411 -0.000039
412 -0.000054
413 -0.000061
414 -0.000055
415 -0.000059
416 -0.000052
417 -0.000047
418 -0.000044
419 -0.000040
420 -0.000029
421 -0.000034
422 -0.000027
423 -0.000015
424 0.000009
425 0.000045
426 0.000069
427 0.000086
428 0.000091
429 0.000088
430 0.000083
431 0.000070
432 0.000054
433 0.000045
434 0.000037
435 0.000037
436 0.000042
437 0.000048
438 0.000049
439 0.000049
440 0.000051
441 0.000056
442 0.000072
443 0.000083
444 0.000085
445 0.000098
446 0.000123
447 0.000128
448 0.000127
449 0.000139
450 0.000150
451 0.000159
452 0.000176
453 0.000184
454 0.000188
455 0.000188
456 0.000196
457 0.000219
458 0.000241
459 0.000273
460 0.000313
461 0.000341
462 0.000354
463 0.000352
464 0.000346
465 0.000357
466 0.000373
467 0.000382
468 0.000397
469 0.000401
470 0.000400
471 0.000417
472 0.000424
473 0.000438
474 0.000454
475 0.000457
476 0.000457
477 0.000463
478 0.000453
479 0.000444
480 0.000439
481 0.000435
482 0.000429
483 0.000423
484 0.000416
485 0.000391
486 0.000373
487 0.000362
488 0.000350
489 0.000340
490 0.000339
491 0.000338
492 0.000345
493 0.000341
494 0.000359
495 0.000365
496 0.000386
497 0.000394
498 0.000404
499 0.000392
500 0.000378
501 0.000373
502 0.000363
503 0.000363
504 0.000366
505 0.000364
506 0.000377
507 0.000382
508 0.000373
509 0.000371
510 0.000376
511 0.000380
512 0.000383
513 0.000384
514 0.000385
515 0.000373
516 0.000357
517 0.000335
518 0.000327
519 0.000321
520 0.000320
521 0.000309
522 0.000293
523 0.000278
524 0.000266
525 0.000271
526 0.000278
527 0.000283
528 0.000297
529 0.000314
530 0.000325
531 0.000334
532 0.000337
533 0.000343
534 0.000343
535 0.000330
536 0.000331
537 0.000328
538 0.000331
539 0.000321
540 0.000309
541 0.000303
542 0.000294
543 0.000288
544 0.000280
545 0.000282
546 0.000278
547 0.000277
548 0.000285
549 0.000287
550 0.000288
551 0.000298
552 0.000289
553 0.000282
554 0.000254
555 0.000243
556 0.000238
557 0.000244
558 0.000254
559 0.000269
560 0.000285
561 0.000288
562 0.000291
563 0.000292
564 0.000293
565 0.000290
566 0.000287
567 0.000272
568 0.000249
569 0.000236
570 0.000242
571 0.000250
572 0.000243
573 0.000236
574 0.000239
575 0.000240
576 0.000239
577 0.000240
578 0.000244
579 0.000246
580 0.000250
581 0.000266
582 0.000292
583 0.000319
584 0.000325
585 0.000324
586 0.000322
587 0.000326
588 0.000324
589 0.000320
590 0.000319
591 0.000313
592 0.000306
593 0.000305
594 0.000293
595 0.000305
596 0.000332
597 0.000361
598 0.000374
599 0.000377
600 0.000379
601 0.000381
602 0.000389
603 0.000387
604 0.000381
605 0.000379
606 0.000365
607 0.000367
608 0.000373
609 0.000374
610 0.000375
611 0.000379
612 0.000380
613 0.000380
614 0.000376
615 0.000370
616 0.000369
617 0.000372
618 0.000369
619 0.000364
620 0.000363
621 0.000358
622 0.000349
623 0.000345
624 0.000339
625 0.000328
626 0.000319
627 0.000319
628 0.000314
629 0.000290
630 0.000271
631 0.000254
632 0.000240
633 0.000233
634 0.000222
635 0.000212
636 0.000210
637 0.000213
638 0.000220
639 0.000223
640 0.000225
641 0.000222
642 0.000234
643 0.000236
644 0.000218
645 0.000211
646 0.000197
647 0.000184
648 0.000162
649 0.000151
650 0.000147
651 0.000140
652 0.000131
653 0.000128
654 0.000122
655 0.000118
656 0.000118
657 0.000118
658 0.000115
659 0.000112
660 0.000119
661 0.000122
662 0.000129
663 0.000133
664 0.000135
665 0.000129
666 0.000115
667 0.000112
668 0.000111
669 0.000109
670 0.000102
671 0.000103
672 0.000101
673 0.000105
674 0.000110
675 0.000124
676 0.000135
677 0.000143
678 0.000148
679 0.000156
680 0.000156
681 0.000148
682 0.000151
683 0.000149
684 0.000147
685 0.000155
686 0.000163
687 0.000176
688 0.000189
689 0.000199
690 0.000208
691 0.000218
692 0.000229
693 0.000242
694 0.000247
695 0.000260
696 0.000275
697 0.000276
698 0.000284
699 0.000286
700 0.000289
701 0.000284
702 0.000278
703 0.000262
704 0.000267
705 0.000262
706 0.000264
707 0.000266
708 0.000268
709 0.000254
710 0.000255
711 0.000247
712 0.000240
713 0.000238
714 0.000234
715 0.000229
716 0.000227
717 0.000229
718 0.000226
719 0.000218
720 0.000219
721 0.000221
722 0.000226
723 0.000234
724 0.000233
725 0.000225
726 0.000227
727 0.000228
728 0.000228
729 0.000231
730 0.000222
731 0.000212
732 0.000196
733 0.000183
734 0.000179
735 0.000177
736 0.000177
737 0.000179
738 0.000185
739 0.000179
740 0.000183
741 0.000183
742 0.000186
743 0.000194
744 0.000192
745 0.000194
746 0.000193
747 0.000192
748 0.000189
749 0.000186
750 0.000183
751 0.000170
752 0.000170
753 0.000167
754 0.000160
755 0.000161
756 0.000158
757 0.000156
758 0.000151
759 0.000141
760 0.000133
761 0.000131
762 0.000131
763 0.000132
764 0.000135
765 0.000137
766 0.000139
767 0.000149
768 0.000156
769 0.000155
770 0.000149
771 0.000138
772 0.000143
773 0.000144
774 0.000143
775 0.000154
776 0.000155
777 0.000152
778 0.000146
779 0.000133
780 0.000120
781 0.000106
782 0.000093
783 0.000087
784 0.000085
785 0.000084
786 0.000079
787 0.000077
788 0.000078
789 0.000076
790 0.000077
791 0.000075
792 0.000073
793 0.000073
794 0.000081
795 0.000076
796 0.000073
797 0.000078
798 0.000086
799 0.000091
800 0.000095
801 0.000087
802 0.000087
803 0.000080
804 0.000075
805 0.000072
806 0.000068
807 0.000056
808 0.000046
809 0.000038
