# i correlation
1 0.002886
2 0.002708
3 0.002559
4 0.002413
5 0.002276
6 0.002181
7 0.002101
8 0.002043
9 0.001993
10 0.001963
11 0.001950
12 0.001935
13 0.001925
14 0.001934
15 0.001930
16 0.001922
17 0.001910
18 0.001888
19 0.001872
20 0.001837
21 0.001799
22 0.001750
23 0.001686
24 0.001632
25 0.001593
26 0.001545
27 0.001537
28 0.001557
29 0.001563
30 0.001570
31 0.001579
32 0.001576
33 0.001552
34 0.001530
35 0.001494
36 0.001448
37 0.001403
38 0.001368
39 0.001342
40 0.001331
41 0.001313
42 0.001325
43 0.001313
44 0.001293
45 0.001295
46 0.001300
47 0.001285
48 0.001274
49 0.001276
50 0.001295
51 0.001306
52 0.001305
53 0.001309
54 0.001325
55 0.001328
56 0.001325
57 0.001320
58 0.001308
59 0.001305
60 0.001283
61 0.001283
62 0.001277
63 0.001280
64 0.001267
65 0.001245
66 0.001224
67 0.001227
68 0.001223
69 0.001230
70 0.001256
71 0.001288
72 0.001282
73 0.001283
74 0.001297
75 0.001303
76 0.001297
77 0.001286
78 0.001274
79 0.001281
80 0.001277
81 0.001265
82 0.001288
83 0.001293
84 0.001280
85 0.001259
86 0.001239
87 0.001205
88 0.001168
89 0.001130
90 0.001094
91 0.001070
92 0.001050
93 0.001042
94 0.001030
95 0.001013
96 0.000997
97 0.001000
98 0.001017
99 0.001047
100 0.001072
101 0.001114
102 0.001147
103 0.001169
104 0.001198
105 0.001204
106 0.001185
107 0.001159
108 0.001117
109 0.001092
110 0.001053
111 0.001038
112 0.001028
113 0.001034
114 0.001039
115 0.001044
116 0.001067
117 0.001090
118 0.001110
119 0.001129
120 0.001128
121 0.001132
122 0.001149
123 0.001138
124 0.001128
125 0.001140
126 0.001144
127 0.001137
128 0.001134
129 0.001111
130 0.001090
131 0.001082
132 0.001084
133 0.001096
134 0.001129
135 0.001153
136 0.001183
137 0.001207
138 0.001224
139 0.001227
140 0.001228
141 0.001242
142 0.001236
143 0.001231
144 0.001220
145 0.001212
146 0.001223
147 0.001235
148 0.001220
149 0.001217
150 0.001222
151 0.001222
152 0.001219
153 0.001234
154 0.001240
155 0.001246
156 0.001272
157 0.001297
158 0.001318
159 0.001329
160 0.001330
161 0.001329
162 0.001324
163 0.001300
164 0.001265
165 0.001235
166 0.001197
167 0.001168
168 0.001165
169 0.001157
170 0.001136
171 0.001110
172 0.001091
173 0.001080
174 0.001072
175 0.001085
176 0.001116
177 0.001127
178 0.001126
179 0.001128
180 0.001133
181 0.001139
182 0.001117
183 0.001109
184 0.001119
185 0.001125
186 0.001133
187 0.001131
188 0.001127
189 0.001110
190 0.001103
191 0.001091
192 0.001089
193 0.001086
194 0.001080
195 0.001070
196 0.001068
197 0.001045
198 0.001040
199 0.001044
200 0.001064
201 0.001091
202 0.001100
203 0.001108
204 0.001112
205 0.001120
206 0.001104
207 0.001102
208 0.001125
209 0.001140
210 0.001144
211 0.001160
212 0.001163
213 0.001154
214 0.001147
215 0.001139
216 0.001139
217 0.001135
218 0.001141
219 0.001142
220 0.001141
221 0.001155
222 0.001169
223 0.001165
224 0.001156
225 0.001130
226 0.001116
227 0.001103
228 0.001081
229 0.001062
230 0.001051
231 0.001022
232 0.000991
233 0.000976
234 0.000943
235 0.000915
236 0.000912
237 0.000898
238 0.000896
239 0.000914
240 0.000925
241 0.000926
242 0.000925
243 0.000920
244 0.000900
245 0.000878
246 0.000843
247 0.000820
248 0.000788
249 0.000746
250 0.000721
251 0.000706
252 0.000686
253 0.000665
254 0.000653
255 0.000647
256 0.000648
257 0.000661
258 0.000684
259 0.000695
260 0.000693
261 0.000691
262 0.000687
263 0.000682
264 0.000678
265 0.000668
266 0.000658
267 0.000655
268 0.000650
269 0.000643
270 0.000634
271 0.000627
272 0.000635
273 0.000625
274 0.000625
275 0.000628
276 0.000617
277 0.000594
278 0.000595
279 0.000607
280 0.000606
281 0.000608
282 0.000615
283 0.000616
284 0.000601
285 0.000604
286 0.000600
287 0.000613
288 0.000619
289 0.000637
290 0.000648
291 0.000644
292 0.000645
293 0.000654
294 0.000652
295 0.000663
296 0.000660
297 0.000648
298 0.000652
299 0.000659
300 0.000673
301 0.000684
302 0.000685
303 0.000707
304 0.000721
305 0.000718
306 0.000722
307 0.000700
308 0.000672
309 0.000652
310 0.000639
311 0.000621
312 0.000630
313 0.000628
314 0.000639
315 0.000642
316 0.000625
317 0.000629
318 0.000637
319 0.000632
320 0.000631
321 0.000646
322 0.000641
323 0.000633
324 0.000612
325 0.000585
326 0.000556
327 0.000541
328 0.000530
329 0.000527
330 0.000534
331 0.000550
332 0.000553
333 0.000571
334 0.000593
335 0.000601
336 0.000584
337 0.000577
338 0.000559
339 0.000529
340 0.000515
341 0.000509
342 0.000515
343 0.000515
344 0.000517
345 0.000530
346 0.000568
347 0.000569
348 0.000570
349 0.000579
350 0.000581
351 0.000555
352 0.000546
353 0.000525
354 0.000514
355 0.000509
356 0.000509
357 0.000500
358 0.000492
359 0.000474
360 0.000463
361 0.000470
362 0.000495
363 0.000518
364 0.000547
365 0.000573
366 0.000590
367 0.000605
368 0.000611
369 0.000619
370 0.000630
371 0.000640
372 0.000650
373 0.000650
374 0.000658
375 0.000660
376 0.000662
377 0.000669
378 0.000668
379 0.000663
380 0.000669
381 0.000674
382 0.000670
383 0.000658
384 0.000655
385 0.000647
386 0.000642
387 0.000624
388 0.000626
389 0.000628
390 0.000622
391 0.000614
392 0.000613
393 0.000592
394 0.000577
395 0.000557
396 0.000539
397 0.000531
398 0.000515
399 0.000507
400 0.000511
401 0.000512
402 0.000516
403 0.000513
404 0.000516
405 0.000521
406 0.000517
407 0.000518
408 0.000512
409 0.000506
410 0.000497
411 0.000489
412 0.000482
413 0.000482
414 0.000478
415 0.000477
416 0.000474
417 0.000497
418 0.000495
419 0.000500
420 0.000512
421 0.000517
422 0.000504
423 0.000494
424 0.000480
425 0.000475
426 0.000475
427 0.000462
428 0.000463
429 0.000443
430 0.000426
431 0.000424
432 0.000434
433 0.000435
434 0.000446
435 0.000444
436 0.000435
437 0.000444
438 0.000450
439 0.000452
440 0.000443
441 0.000432
442 0.000435
443 0.000432
444 0.000420
445 0.000420
446 0.000422
447 0.000440
448 0.000445
449 0.000451
450 0.000447
451 0.000455
452 0.000464
453 0.000481
454 0.000494
455 0.000510
456 0.000516
457 0.000528
458 0.000525
459 0.000541
460 0.000527
461 0.000522
462 0.000509
463 0.000488
464 0.000462
465 0.000445
466 0.000421
467 0.000407
468 0.000410
469 0.000411
470 0.000414
471 0.000416
472 0.000403
473 0.000385
474 0.000381
475 0.000368
476 0.000377
477 0.000364
478 0.000346
479 0.000336
480 0.000311
481 0.000295
482 0.000272
483 0.000259
484 0.000258
485 0.000240
486 0.000211
487 0.000199
488 0.000198
489 0.000199
490 0.000210
491 0.000220
492 0.000222
493 0.000242
494 0.000241
495 0.000232
496 0.000228
497 0.000226
498 0.000224
499 0.000236
500 0.000238
501 0.000239
502 0.000240
503 0.000234
504 0.000241
505 0.000249
506 0.000260
507 0.000266
508 0.000272
509 0.000284
510 0.000298
511 0.000304
512 0.000308
513 0.000312
514 0.000318
515 0.000322
516 0.000327
517 0.000334
518 0.000338
519 0.000339
520 0.000331
521 0.000343
522 0.000357
523 0.000368
524 0.000378
525 0.000400
526 0.000428
527 0.000431
528 0.000440
529 0.000457
530 0.000479
531 0.000501
532 0.000520
533 0.000541
534 0.000548
535 0.000550
536 0.000543
537 0.000526
538 0.000511
539 0.000512
540 0.000515
541 0.000506
542 0.000501
543 0.000499
544 0.000487
545 0.000474
546 0.000468
547 0.000477
548 0.000481
549 0.000473
550 0.000477
551 0.000487
552 0.000482
553 0.000481
554 0.000478
555 0.000449
556 0.000437
557 0.000426
558 0.000420
559 0.000407
560 0.000401
561 0.000404
562 0.000401
563 0.000396
564 0.000401
565 0.000388
566 0.000358
567 0.000335
568 0.000318
569 0.000295
570 0.000289
571 0.000288
572 0.000292
573 0.000298
574 0.000301
575 0.000321
576 0.000334
577 0.000333
578 0.000328
579 0.000328
580 0.000334
581 0.000334
582 0.000331
583 0.000326
584 0.000312
585 0.000314
586 0.000308
587 0.000286
588 0.000267
589 0.000253
590 0.000244
591 0.000232
592 0.000230
593 0.000249
594 0.000266
595 0.000279
596 0.000297
597 0.000306
598 0.000291
599 0.000276
600 0.000261
601 0.000244
602 0.000229
603 0.000221
604 0.000216
605 0.000214
606 0.000213
607 0.000206
608 0.000194
609 0.000175
610 0.000173
611 0.000164
612 0.000154
613 0.000153
614 0.000151
615 0.000158
616 0.000164
617 0.000157
618 0.000158
619 0.000145
620 0.000121
621 0.000096
622 0.000089
623 0.000082
624 0.000080
625 0.000077
626 0.000073
627 0.000067
628 0.000063
629 0.000069
630 0.000070
631 0.000073
632 0.000072
633 0.000081
634 0.000092
635 0.000111
636 0.000129
637 0.000137
638 0.000138
639 0.000135
640 0.000126
641 0.000114
642 0.000101
643 0.000078
644 0.000068
645 0.000052
646 0.000033
647 0.000036
648 0.000033
649 0.000036
650 0.000049
651 0.000064
652 0.000088
653 0.000103
654 0.000117
655 0.000143
656 0.000173
657 0.000195
658 0.000207
659 0.000204
660 0.000203
661 0.000203
662 0.000193
663 0.000171
664 0.000162
665 0.000157
666 0.000148
667 0.000150
668 0.000157
669 0.000176
670 0.000190
671 0.000192
672 0.000193
673 0.000187
674 0.000170
675 0.000162
676 0.000161
677 0.000166
678 0.000157
679 0.000169
680 0.000179
681 0.000183
682 0.000176
683 0.000167
684 0.000163
685 0.000167
686 0.000175
687 0.000190
688 0.000191
689 0.000205
690 0.000216
691 0.000218
692 0.000218
693 0.000209
694 0.000191
695 0.000176
696 0.000156
697 0.000136
698 0.000134
699 0.000130
700 0.000135
701 0.000143
702 0.000151
703 0.000154
704 0.000151
705 0.000142
706 0.000130
707 0.000128
708 0.000120
709 0.000115
710 0.000114
711 0.000121
712 0.000125
713 0.000121
714 0.000116
715 0.000114
716 0.000103
717 0.000098
718 0.000096
719 0.000096
720 0.000094
721 0.000108
722 0.000121
723 0.000127
724 0.000131
725 0.000119
726 0.000114
727 0.000109
728 0.000099
729 0.000081
730 0.000071
731 0.000075
732 0.000085
733 0.000099
734 0.000109
735 0.000127
736 0.000141
737 0.000149
738 0.000162
739 0.000162
740 0.000172
741 0.000176
742 0.000183
743 0.000189
744 0.000186
745 0.000166
746 0.000146
747 0.000121
748 0.000101
749 0.000085
750 0.000083
751 0.000083
752 0.000098
753 0.000107
754 0.000113
755 0.000124
756 0.000138
757 0.000148
758 0.000149
759 0.000147
760 0.000144
761 0.000143
762 0.000140
763 0.000145
764 0.000148
765 0.000150
766 0.000147
767 0.000137
768 0.000118
769 0.000104
770 0.000088
771 0.000079
772 0.000077
773 0.000077
774 0.000081
775 0.000083
776 0.000083
777 0.000072
778 0.000058
779 0.000046
780 0.000035
781 0.000022
782 0.000015
783 0.000012
784 0.000005
785 -0.000005
786 -0.000012
787 -0.000022
788 -0.000028
789 -0.000030
790 -0.000038
791 -0.000040
792 -0.000039
793 -0.000027
794 -0.000017
795 -0.000010
796 -0.000007
797 0.000003
798 0.000009
799 0.000011
800 0.000003
801 -0.000003
802 -0.000014
803 -0.000023
804 -0.000027
805 -0.000025
806 -0.000024
807 -0.000023
808 -0.000030
809 -0.000045
