# i correlation
1 0.002558
2 0.002404
3 0.002255
4 0.002138
5 0.002038
6 0.001969
7 0.001909
8 0.001856
9 0.001825
10 0.001795
11 0.001770
12 0.001757
13 0.001747
14 0.001734
15 0.001719
16 0.001712
17 0.001685
18 0.001649
19 0.001630
20 0.001599
21 0.001565
22 0.001531
23 0.001521
24 0.001497
25 0.001482
26 0.001464
27 0.001466
28 0.001468
29 0.001477
30 0.001485
31 0.001488
32 0.001495
33 0.001472
34 0.001445
35 0.001409
36 0.001387
37 0.001382
38 0.001375
39 0.001374
40 0.001359
41 0.001345
42 0.001335
43 0.001322
44 0.001317
45 0.001299
46 0.001294
47 0.001284
48 0.001254
49 0.001205
50 0.001163
51 0.001124
52 0.001102
53 0.001089
54 0.001072
55 0.001066
56 0.001065
57 0.001073
58 0.001066
59 0.001063
60 0.001044
61 0.001038
62 0.001022
63 0.001007
64 0.000981
65 0.000954
66 0.000942
67 0.000952
68 0.000955
69 0.000972
70 0.000984
71 0.001011
72 0.001023
73 0.001024
74 0.001021
75 0.001011
76 0.000998
77 0.001001
78 0.001032
79 0.001057
80 0.001092
81 0.001112
82 0.001125
83 0.001135
84 0.001140
85 0.001142
86 0.001141
87 0.001139
88 0.001162
89 0.001173
90 0.001190
91 0.001204
92 0.001229
93 0.001243
94 0.001261
95 0.001276
96 0.001284
97 0.001286
98 0.001277
99 0.001266
100 0.001242
101 0.001226
102 0.001184
103 0.001154
104 0.001138
105 0.001133
106 0.001113
107 0.001088
108 0.001069
109 0.001068
110 0.001074
111 0.001082
112 0.001092
113 0.001091
114 0.001100
115 0.001111
116 0.001126
117 0.001149
118 0.001161
119 0.001152
120 0.001150
121 0.001136
122 0.001120
123 0.001102
124 0.001081
125 0.001077
126 0.001077
127 0.001096
128 0.001119
129 0.001142
130 0.001154
131 0.001145
132 0.001131
133 0.001108
134 0.001081
135 0.001057
136 0.001042
137 0.001032
138 0.001027
139 0.001018
140 0.001001
141 0.000992
142 0.000973
143 0.000950
144 0.000924
145 0.000904
146 0.000886
147 0.000878
148 0.000867
149 0.000857
150 0.000851
151 0.000847
152 0.000870
153 0.000887
154 0.000912
155 0.000919
156 0.000916
157 0.000920
158 0.000920
159 0.000914
160 0.000899
161 0.000890
162 0.000885
163 0.000869
164 0.000869
165 0.000871
166 0.000868
167 0.000868
168 0.000881
169 0.000880
170 0.000880
171 0.000872
172 0.000859
173 0.000852
174 0.000846
175 0.000841
176 0.000843
177 0.000845
178 0.000832
179 0.000809
180 0.000790
181 0.000776
182 0.000762
183 0.000761
184 0.000773
185 0.000785
186 0.000806
187 0.000833
188 0.000864
189 0.000896
190 0.000905
191 0.000914
192 0.000905
193 0.000895
194 0.000871
195 0.000841
196 0.000833
197 0.000832
198 0.000843
199 0.000863
200 0.000895
201 0.000926
202 0.000948
203 0.000960
204 0.000956
205 0.000941
206 0.000927
207 0.000916
208 0.000929
209 0.000935
210 0.000951
211 0.000960
212 0.000970
213 0.000972
214 0.000964
215 0.000960
216 0.000960
217 0.000969
218 0.000978
219 0.000998
220 0.001016
221 0.001019
222 0.001022
223 0.001016
224 0.000990
225 0.000968
226 0.000956
227 0.000933
228 0.000932
229 0.000946
230 0.000964
231 0.000969
232 0.000970
233 0.000993
234 0.001007
235 0.001027
236 0.001037
237 0.001048
238 0.001041
239 0.001037
240 0.001036
241 0.001017
242 0.001006
243 0.000999
244 0.000993
245 0.001009
246 0.001028
247 0.001056
248 0.001067
249 0.001094
250 0.001118
251 0.001123
252 0.001116
253 0.001093
254 0.001061
255 0.001030
256 0.000999
257 0.000967
258 0.000954
259 0.000940
260 0.000930
261 0.000912
262 0.000895
263 0.000874
264 0.000840
265 0.000822
266 0.000817
267 0.000808
268 0.000800
269 0.000794
270 0.000788
271 0.000767
272 0.000752
273 0.000743
274 0.000728
275 0.000726
276 0.000720
277 0.000709
278 0.000693
279 0.000698
280 0.000691
281 0.000708
282 0.000738
283 0.000746
284 0.000746
285 0.000739
286 0.000736
287 0.000716
288 0.000702
289 0.000693
290 0.000694
291 0.000690
292 0.000702
293 0.000708
294 0.000717
295 0.000714
296 0.000700
297 0.000693
298 0.000671
299 0.000645
300 0.000610
301 0.000580
302 0.000563
303 0.000552
304 0.000548
305 0.000551
306 0.000550
307 0.000559
308 0.000568
309 0.000575
310 0.000566
311 0.000568
312 0.000565
313 0.000573
314 0.000576
315 0.000566
316 0.000563
317 0.000557
318 0.000561
319 0.000556
320 0.000557
321 0.000561
322 0.000573
323 0.000591
324 0.000588
325 0.000587
326 0.000570
327 0.000563
328 0.000567
329 0.000606
330 0.000641
331 0.000667
332 0.000686
333 0.000697
334 0.000706
335 0.000712
336 0.000714
337 0.000718
338 0.000723
339 0.000730
340 0.000744
341 0.000745
342 0.000742
343 0.000754
344 0.000755
345 0.000754
346 0.000756
347 0.000757
348 0.000741
349 0.000744
350 0.000746
351 0.000764
352 0.000767
353 0.000768
354 0.000756
355 0.000756
356 0.000749
357 0.000735
358 0.000714
359 0.000707
360 0.000709
361 0.000717
362 0.000736
363 0.000749
364 0.000755
365 0.000753
366 0.000763
367 0.000771
368 0.000786
369 0.000792
370 0.000801
371 0.000789
372 0.000778
373 0.000756
374 0.000742
375 0.000741
376 0.000747
377 0.000769
378 0.000798
379 0.000809
380 0.000819
381 0.000821
382 0.000823
383 0.000812
384 0.000798
385 0.000784
386 0.000764
387 0.000758
388 0.000754
389 0.000742
390 0.000740
391 0.000751
392 0.000749
393 0.000756
394 0.000753
395 0.000732
396 0.000708
397 0.000696
398 0.000680
399 0.000676
400 0.000668
401 0.000652
402 0.000649
403 0.000650
404 0.000652
405 0.000646
406 0.000644
407 0.000642
408 0.000648
409 0.000661
410 0.000678
411 0.000692
412 0.000700
413 0.000704
414 0.000702
415 0.000692
416 0.000664
417 0.000647
418 0.000630
419 0.000612
420 0.000598
421 0.000589
422 0.000589
423 0.000597
424 0.000603
425 0.000601
426 0.000591
427 0.000584
428 0.000573
429 0.000568
430 0.000567
431 0.000563
432 0.000551
433 0.000544
434 0.000540
435 0.000535
436 0.000524
437 0.000506
438 0.000497
439 0.000498
440 0.000501
441 0.000525
442 0.000530
443 0.000537
444 0.000530
445 0.000526
446 0.000518
447 0.000508
448 0.000510
449 0.000526
450 0.000550
451 0.000565
452 0.000580
453 0.000571
454 0.000555
455 0.000549
456 0.000544
457 0.000538
458 0.000531
459 0.000536
460 0.000546
461 0.000562
462 0.000576
463 0.000580
464 0.000573
465 0.000569
466 0.000571
467 0.000568
468 0.000569
469 0.000569
470 0.000573
471 0.000570
472 0.000575
473 0.000587
474 0.000596
475 0.000605
476 0.000591
477 0.000575
478 0.000569
479 0.000565
480 0.000566
481 0.000566
482 0.000575
483 0.000576
484 0.000572
485 0.000563
486 0.000552
487 0.000556
488 0.000558
489 0.000566
490 0.000562
491 0.000560
492 0.000554
493 0.000551
494 0.000555
495 0.000559
496 0.000555
497 0.000555
498 0.000560
499 0.000557
500 0.000553
501 0.000546
502 0.000548
503 0.000548
504 0.000539
505 0.000540
506 0.000525
507 0.000525
508 0.000525
509 0.000519
510 0.000509
511 0.000496
512 0.000495
513 0.000494
514 0.000500
515 0.000493
516 0.000497
517 0.000495
518 0.000479
519 0.000466
520 0.000453
521 0.000452
522 0.000454
523 0.000457
524 0.000450
525 0.000432
526 0.000421
527 0.000413
528 0.000410
529 0.000401
530 0.000385
531 0.000380
532 0.000380
533 0.000393
534 0.000393
535 0.000398
536 0.000396
537 0.000400
538 0.000390
539 0.000386
540 0.000395
541 0.000402
542 0.000414
543 0.000419
544 0.000427
545 0.000435
546 0.000441
547 0.000440
548 0.000429
549 0.000415
550 0.000393
551 0.000387
552 0.000383
553 0.000376
554 0.000363
555 0.000358
556 0.000353
557 0.000345
558 0.000340
559 0.000339
560 0.000344
561 0.000346
562 0.000343
563 0.000355
564 0.000358
565 0.000366
566 0.000366
567 0.000369
568 0.000369
569 0.000377
570 0.000384
571 0.000396
572 0.000407
573 0.000408
574 0.000409
575 0.000404
576 0.000404
577 0.000405
578 0.000398
579 0.000400
580 0.000409
581 0.000407
582 0.000404
583 0.000402
584 0.000396
585 0.000391
586 0.000389
587 0.000379
588 0.000383
589 0.000391
590 0.000395
591 0.000399
592 0.000406
593 0.000401
594 0.000395
595 0.000384
596 0.000373
597 0.000360
598 0.000362
599 0.000374
600 0.000389
601 0.000392
602 0.000405
603 0.000404
604 0.000408
605 0.000406
606 0.000403
607 0.000398
608 0.000390
609 0.000375
610 0.000357
611 0.000350
612 0.000352
613 0.000360
614 0.000363
615 0.000366
616 0.000365
617 0.000370
618 0.000369
619 0.000365
620 0.000361
621 0.000356
622 0.000353
623 0.000345
624 0.000337
625 0.000327
626 0.000315
627 0.000310
628 0.000312
629 0.000313
630 0.000317
631 0.000325
632 0.000335
633 0.000343
634 0.000355
635 0.000348
636 0.000351
637 0.000350
638 0.000349
639 0.000344
640 0.000336
641 0.000334
642 0.000322
643 0.000325
644 0.000332
645 0.000343
646 0.000348
647 0.000339
648 0.000323
649 0.000306
650 0.000291
651 0.000287
652 0.000287
653 0.000278
654 0.000266
655 0.000256
656 0.000250
657 0.000246
658 0.000245
659 0.000242
660 0.000247
661 0.000253
662 0.000254
663 0.000250
664 0.000253
665 0.000240
666 0.000220
667 0.000200
668 0.000184
669 0.000174
670 0.000173
671 0.000163
672 0.000162
673 0.000156
674 0.000155
675 0.000165
676 0.000176
677 0.000172
678 0.000176
679 0.000168
680 0.000162
681 0.000163
682 0.000156
683 0.000152
684 0.000142
685 0.000135
686 0.000130
687 0.000122
688 0.000109
689 0.000096
690 0.000089
691 0.000090
692 0.000097
693 0.000100
694 0.000095
695 0.000096
696 0.000092
697 0.000091
698 0.000087
699 0.000094
700 0.000103
701 0.000118
702 0.000128
703 0.000142
704 0.000147
705 0.000151
706 0.000153
707 0.000144
708 0.000139
709 0.000135
710 0.000131
711 0.000131
712 0.000134
713 0.000135
714 0.000132
715 0.000132
716 0.000128
717 0.000131
718 0.000133
719 0.000146
720 0.000157
721 0.000163
722 0.000173
723 0.000178
724 0.000194
725 0.000218
726 0.000235
727 0.000250
728 0.000259
729 0.000264
730 0.000265
731 0.000274
732 0.000279
733 0.000289
734 0.000296
735 0.000307
736 0.000313
737 0.000321
738 0.000325
739 0.000325
740 0.000325
741 0.000324
742 0.000329
743 0.000339
744 0.000353
745 0.000364
746 0.000372
747 0.000381
748 0.000386
749 0.000380
750 0.000379
751 0.000369
752 0.000362
753 0.000357
754 0.000354
755 0.000342
756 0.000337
757 0.000330
758 0.000326
759 0.000327
760 0.000326
761 0.000327
762 0.000328
763 0.000333
764 0.000338
765 0.000334
766 0.000335
767 0.000331
768 0.000325
769 0.000315
770 0.000307
771 0.000298
772 0.000294
773 0.000300
774 0.000302
775 0.000308
776 0.000313
777 0.000316
778 0.000310
779 0.000302
780 0.000299
781 0.000296
782 0.000298
783 0.000294
784 0.000288
785 0.000277
786 0.000272
787 0.000266
788 0.000258
789 0.000246
790 0.000244
791 0.000244
792 0.000248
793 0.000252
794 0.000250
795 0.000245
796 0.000241
797 0.000233
798 0.000224
799 0.000213
800 0.000205
801 0.000191
802 0.000185
803 0.000185
804 0.000189
805 0.000196
806 0.000198
807 0.000200
808 0.000200
809 0.000199
