# i correlation
1 0.002387
2 0.002205
3 0.002070
4 0.001940
5 0.001814
6 0.001701
7 0.001615
8 0.001559
9 0.001515
10 0.001496
11 0.001491
12 0.001478
13 0.001472
14 0.001455
15 0.001434
16 0.001425
17 0.001410
18 0.001390
19 0.001382
20 0.001366
21 0.001346
22 0.001324
23 0.001294
24 0.001274
25 0.001258
26 0.001234
27 0.001205
28 0.001178
29 0.001161
30 0.001138
31 0.001109
32 0.001080
33 0.001056
34 0.001039
35 0.001021
36 0.001015
37 0.001011
38 0.001025
39 0.001041
40 0.001059
41 0.001065
42 0.001087
43 0.001107
44 0.001106
45 0.001098
46 0.001097
47 0.001077
48 0.001054
49 0.001023
50 0.000991
51 0.000972
52 0.000959
53 0.000962
54 0.000958
55 0.000939
56 0.000935
57 0.000934
58 0.000939
59 0.000953
60 0.000975
61 0.000985
62 0.000982
63 0.000983
64 0.000986
65 0.000992
66 0.001002
67 0.001015
68 0.001028
69 0.001035
70 0.001043
71 0.001038
72 0.001043
73 0.001071
74 0.001091
75 0.001108
76 0.001130
77 0.001148
78 0.001163
79 0.001170
80 0.001166
81 0.001170
82 0.001150
83 0.001137
84 0.001119
85 0.001091
86 0.001081
87 0.001080
88 0.001078
89 0.001086
90 0.001099
91 0.001099
92 0.001096
93 0.001086
94 0.001091
95 0.001078
96 0.001057
97 0.001051
98 0.001042
99 0.001016
100 0.000985
101 0.000963
102 0.000947
103 0.000950
104 0.000944
105 0.000941
106 0.000933
107 0.000914
108 0.000889
109 0.000871
110 0.000845
111 0.000827
112 0.000805
113 0.000791
114 0.000781
115 0.000789
116 0.000812
117 0.000840
118 0.000868
119 0.000888
120 0.000901
121 0.000906
122 0.000903
123 0.000900
124 0.000905
125 0.000892
126 0.000887
127 0.000872
128 0.000846
129 0.000820
130 0.000785
131 0.000754
132 0.000732
133 0.000701
134 0.000672
135 0.000665
136 0.000665
137 0.000688
138 0.000701
139 0.000705
140 0.000706
141 0.000720
142 0.000726
143 0.000716
144 0.000698
145 0.000679
146 0.000662
147 0.000654
148 0.000637
149 0.000631
150 0.000639
151 0.000666
152 0.000681
153 0.000673
154 0.000668
155 0.000650
156 0.000633
157 0.000631
158 0.000609
159 0.000569
160 0.000551
161 0.000540
162 0.000525
163 0.000517
164 0.000510
165 0.000521
166 0.000535
167 0.000552
168 0.000570
169 0.000577
170 0.000585
171 0.000587
172 0.000570
173 0.000572
174 0.000559
175 0.000537
176 0.000516
177 0.000511
178 0.000531
179 0.000528
180 0.000524
181 0.000528
182 0.000538
183 0.000542
184 0.000554
185 0.000585
186 0.000621
187 0.000636
188 0.000640
189 0.000627
190 0.000626
191 0.000616
192 0.000616
193 0.000623
194 0.000635
195 0.000654
196 0.000665
197 0.000674
198 0.000673
199 0.000685
200 0.000704
201 0.000706
202 0.000696
203 0.000695
204 0.000705
205 0.000716
206 0.000716
207 0.000708
208 0.000696
209 0.000684
210 0.000666
211 0.000652
212 0.000648
213 0.000640
214 0.000623
215 0.000603
216 0.000580
217 0.000548
218 0.000523
219 0.000495
220 0.000458
221 0.000433
222 0.000407
223 0.000379
224 0.000365
225 0.000359
226 0.000368
227 0.000375
228 0.000368
229 0.000372
230 0.000382
231 0.000389
232 0.000389
233 0.000388
234 0.000381
235 0.000373
236 0.000365
237 0.000335
238 0.000335
239 0.000328
240 0.000314
241 0.000298
242 0.000283
243 0.000265
244 0.000266
245 0.000274
246 0.000296
247 0.000307
248 0.000328
249 0.000332
250 0.000322
251 0.000318
252 0.000315
253 0.000291
254 0.000271
255 0.000275
256 0.000278
257 0.000285
258 0.000314
259 0.000340
260 0.000355
261 0.000361
262 0.000368
263 0.000385
264 0.000394
265 0.000387
266 0.000365
267 0.000354
268 0.000339
269 0.000323
270 0.000325
271 0.000334
272 0.000334
273 0.000343
274 0.000363
275 0.000375
276 0.000388
277 0.000393
278 0.000401
279 0.000400
280 0.000401
281 0.000408
282 0.000415
283 0.000409
284 0.000413
285 0.000415
286 0.000422
287 0.000444
288 0.000453
289 0.000455
290 0.000460
291 0.000469
292 0.000477
293 0.000481
294 0.000483
295 0.000476
296 0.000468
297 0.000458
298 0.000451
299 0.000447
300 0.000431
301 0.000408
302 0.000386
303 0.000369
304 0.000362
305 0.000356
306 0.000335
307 0.000310
308 0.000287
309 0.000268
310 0.000258
311 0.000235
312 0.000227
313 0.000210
314 0.000188
315 0.000179
316 0.000163
317 0.000145
318 0.000134
319 0.000118
320 0.000112
321 0.000104
322 0.000093
323 0.000094
324 0.000109
325 0.000131
326 0.000142
327 0.000147
328 0.000160
329 0.000168
330 0.000180
331 0.000200
332 0.000215
333 0.000228
334 0.000236
335 0.000222
336 0.000226
337 0.000227
338 0.000221
339 0.000235
340 0.000245
341 0.000246
342 0.000241
343 0.000234
344 0.000230
345 0.000214
346 0.000191
347 0.000189
348 0.000189
349 0.000183
350 0.000187
351 0.000199
352 0.000216
353 0.000243
354 0.000261
355 0.000276
356 0.000283
357 0.000307
358 0.000323
359 0.000320
360 0.000303
361 0.000280
362 0.000266
363 0.000261
364 0.000249
365 0.000236
366 0.000229
367 0.000220
368 0.000224
369 0.000226
370 0.000225
371 0.000219
372 0.000216
373 0.000234
374 0.000254
375 0.000256
376 0.000261
377 0.000266
378 0.000268
379 0.000277
380 0.000275
381 0.000273
382 0.000271
383 0.000277
384 0.000274
385 0.000282
386 0.000281
387 0.000290
388 0.000286
389 0.000281
390 0.000273
391 0.000264
392 0.000241
393 0.000222
394 0.000198
395 0.000170
396 0.000146
397 0.000129
398 0.000110
399 0.000106
400 0.000119
401 0.000131
402 0.000145
403 0.000152
404 0.000150
405 0.000136
406 0.000109
407 0.000087
408 0.000061
409 0.000050
410 0.000039
411 0.000035
412 0.000034
413 0.000047
414 0.000078
415 0.000108
416 0.000135
417 0.000160
418 0.000178
419 0.000197
420 0.000215
421 0.000226
422 0.000223
423 0.000226
424 0.000211
425 0.000187
426 0.000177
427 0.000162
428 0.000158
429 0.000158
430 0.000159
431 0.000169
432 0.000179
433 0.000197
434 0.000216
435 0.000214
436 0.000223
437 0.000221
438 0.000228
439 0.000245
440 0.000244
441 0.000252
442 0.000260
443 0.000269
444 0.000280
445 0.000280
446 0.000276
447 0.000255
448 0.000224
449 0.000204
450 0.000183
451 0.000160
452 0.000154
453 0.000164
454 0.000172
455 0.000191
456 0.000205
457 0.000238
458 0.000257
459 0.000273
460 0.000290
461 0.000302
462 0.000307
463 0.000313
464 0.000317
465 0.000317
466 0.000320
467 0.000313
468 0.000316
469 0.000309
470 0.000303
471 0.000295
472 0.000293
473 0.000290
474 0.000279
475 0.000265
476 0.000263
477 0.000270
478 0.000266
479 0.000267
480 0.000273
481 0.000288
482 0.000307
483 0.000324
484 0.000331
485 0.000342
486 0.000348
487 0.000334
488 0.000316
489 0.000283
490 0.000272
491 0.000267
492 0.000265
493 0.000259
494 0.000255
495 0.000243
496 0.000225
497 0.000223
498 0.000210
499 0.000206
500 0.000214
501 0.000214
502 0.000204
503 0.000210
504 0.000218
505 0.000224
506 0.000225
507 0.000216
508 0.000193
509 0.000173
510 0.000167
511 0.000167
512 0.000157
513 0.000143
514 0.000135
515 0.000123
516 0.000102
517 0.000079
518 0.000059
519 0.000049
520 0.000047
521 0.000037
522 0.000029
523 0.000016
524 0.000002
525 -0.000019
526 -0.000028
527 -0.000029
528 -0.000030
529 -0.000042
530 -0.000041
531 -0.000042
532 -0.000044
533 -0.000036
534 -0.000024
535 -0.000011
536 0.000002
537 0.000023
538 0.000039
539 0.000066
540 0.000090
541 0.000107
542 0.000108
543 0.000106
544 0.000109
545 0.000115
546 0.000121
547 0.000127
548 0.000122
549 0.000120
550 0.000115
551 0.000121
552 0.000140
553 0.000146
554 0.000144
555 0.000145
556 0.000146
557 0.000145
558 0.000156
559 0.000168
560 0.000192
561 0.000208
562 0.000223
563 0.000242
564 0.000255
565 0.000251
566 0.000243
567 0.000234
568 0.000219
569 0.000202
570 0.000191
571 0.000190
572 0.000182
573 0.000177
574 0.000179
575 0.000192
576 0.000193
577 0.000197
578 0.000203
579 0.000202
580 0.000213
581 0.000231
582 0.000240
583 0.000254
584 0.000251
585 0.000252
586 0.000253
587 0.000249
588 0.000256
589 0.000259
590 0.000249
591 0.000242
592 0.000234
593 0.000218
594 0.000197
595 0.000174
596 0.000154
597 0.000140
598 0.000114
599 0.000089
600 0.000067
601 0.000047
602 0.000035
603 0.000022
604 0.000015
605 0.000002
606 -0.000003
607 -0.000002
608 0.000001
609 0.000005
610 -0.000003
611 -0.000008
612 -0.000014
613 -0.000022
614 -0.000016
615 -0.000020
616 -0.000029
617 -0.000028
618 -0.000018
619 -0.000010
620 -0.000007
621 0.000002
622 0.000009
623 0.000016
624 0.000026
625 0.000036
626 0.000034
627 0.000045
628 0.000068
629 0.000089
630 0.000098
631 0.000107
632 0.000119
633 0.000132
634 0.000136
635 0.000140
636 0.000140
637 0.000135
638 0.000127
639 0.000124
640 0.000109
641 0.000100
642 0.000092
643 0.000084
644 0.000065
645 0.000053
646 0.000048
647 0.000049
648 0.000053
649 0.000066
650 0.000092
651 0.000110
652 0.000123
653 0.000128
654 0.000131
655 0.000127
656 0.000113
657 0.000114
658 0.000114
659 0.000108
660 0.000104
661 0.000111
662 0.000112
663 0.000110
664 0.000101
665 0.000091
666 0.000085
667 0.000087
668 0.000091
669 0.000093
670 0.000099
671 0.000108
672 0.000118
673 0.000116
674 0.000111
675 0.000102
676 0.000082
677 0.000063
678 0.000058
679 0.000064
680 0.000060
681 0.000056
682 0.000062
683 0.000058
684 0.000051
685 0.000042
686 0.000026
687 0.000015
688 0.000004
689 -0.000001
690 -0.000004
691 0.000003
692 0.000013
693 0.000014
694 0.000007
695 -0.000004
696 -0.000019
697 -0.000027
698 -0.000041
699 -0.000059
700 -0.000075
701 -0.000075
702 -0.000083
703 -0.000084
704 -0.000083
705 -0.000079
706 -0.000073
707 -0.000067
708 -0.000069
709 -0.000076
710 -0.000079
711 -0.000093
712 -0.000094
713 -0.000094
714 -0.000101
715 -0.000102
716 -0.000104
717 -0.000099
718 -0.000107
719 -0.000119
720 -0.000126
721 -0.000134
722 -0.000144
723 -0.000152
724 -0.000160
725 -0.000165
726 -0.000162
727 -0.000165
728 -0.000168
729 -0.000170
730 -0.000170
731 -0.000157
732 -0.000147
733 -0.000136
734 -0.000128
735 -0.000125
736 -0.000123
737 -0.000129
738 -0.000137
739 -0.000148
740 -0.000154
741 -0.000165
742 -0.000176
743 -0.000183
744 -0.000187
745 -0.000179
746 -0.000166
747 -0.000154
748 -0.000139
749 -0.000127
750 -0.000125
751 -0.000122
752 -0.000122
753 -0.000127
754 -0.000127
755 -0.000133
756 -0.000140
757 -0.000144
758 -0.000148
759 -0.000135
760 -0.000123
761 -0.000120
762 -0.000120
763 -0.000123
764 -0.000132
765 -0.000139
766 -0.000145
767 -0.000152
768 -0.000161
769 -0.000167
770 -0.000167
771 -0.000162
772 -0.000157
773 -0.000147
774 -0.000135
775 -0.000124
776 -0.000116
777 -0.000111
778 -0.000099
779 -0.000089
780 -0.000086
781 -0.000096
782 -0.000111
783 -0.000130
784 -0.000152
785 -0.000168
786 -0.000177
787 -0.000184
788 -0.000185
789 -0.000183
790 -0.000179
791 -0.000171
792 -0.000171
793 -0.000170
794 -0.000165
795 -0.000170
796 -0.000177
797 -0.000177
798 -0.000175
799 -0.000176
800 -0.000179
801 -0.000183
802 -0.000182
803 -0.000186
804 -0.000192
805 -0.000199
806 -0.000210
807 -0.000214
808 -0.000215
809 -0.000221
