# i correlation
1 0.002607
2 0.002430
3 0.002294
4 0.002182
5 0.002094
6 0.002017
7 0.001961
8 0.001914
9 0.001850
10 0.001804
11 0.001778
12 0.001755
13 0.001722
14 0.001688
15 0.001644
16 0.001620
17 0.001582
18 0.001557
19 0.001538
20 0.001519
21 0.001517
22 0.001515
23 0.001523
24 0.001529
25 0.001503
26 0.001491
27 0.001468
28 0.001468
29 0.001464
30 0.001451
31 0.001436
32 0.001437
33 0.001414
34 0.001403
35 0.001414
36 0.001413
37 0.001394
38 0.001375
39 0.001361
40 0.001344
41 0.001325
42 0.001306
43 0.001295
44 0.001299
45 0.001288
46 0.001270
47 0.001253
48 0.001246
49 0.001230
50 0.001225
51 0.001217
52 0.001212
53 0.001199
54 0.001178
55 0.001176
56 0.001169
57 0.001174
58 0.001188
59 0.001181
60 0.001165
61 0.001136
62 0.001116
63 0.001080
64 0.001052
65 0.001037
66 0.001010
67 0.000982
68 0.000980
69 0.000969
70 0.000962
71 0.000930
72 0.000893
73 0.000866
74 0.000845
75 0.000827
76 0.000796
77 0.000767
78 0.000747
79 0.000728
80 0.000736
81 0.000750
82 0.000764
83 0.000783
84 0.000791
85 0.000805
86 0.000835
87 0.000848
88 0.000868
89 0.000897
90 0.000908
91 0.000925
92 0.000938
93 0.000955
94 0.000986
95 0.000992
96 0.000998
97 0.001016
98 0.001003
99 0.000998
100 0.000986
101 0.000994
102 0.000979
103 0.000981
104 0.000983
105 0.000992
106 0.000996
107 0.001002
108 0.001019
109 0.001038
110 0.001066
111 0.001065
112 0.001054
113 0.001048
114 0.001040
115 0.001032
116 0.001012
117 0.001032
118 0.001038
119 0.001035
120 0.001025
121 0.001014
122 0.001000
123 0.000989
124 0.000965
125 0.000951
126 0.000935
127 0.000900
128 0.000874
129 0.000859
130 0.000844
131 0.000854
132 0.000867
133 0.000889
134 0.000903
135 0.000905
136 0.000907
137 0.000896
138 0.000902
139 0.000907
140 0.000922
141 0.000935
142 0.000954
143 0.000963
144 0.000985
145 0.001009
146 0.001026
147 0.001056
148 0.001076
149 0.001087
150 0.001094
151 0.001086
152 0.001069
153 0.001049
154 0.001022
155 0.001003
156 0.000995
157 0.000991
158 0.000966
159 0.000939
160 0.000916
161 0.000894
162 0.000891
163 0.000903
164 0.000907
165 0.000891
166 0.000888
167 0.000895
168 0.000917
169 0.000940
170 0.000940
171 0.000931
172 0.000915
173 0.000901
174 0.000900
175 0.000908
176 0.000930
177 0.000948
178 0.000942
179 0.000944
180 0.000942
181 0.000928
182 0.000918
183 0.000906
184 0.000877
185 0.000842
186 0.000809
187 0.000776
188 0.000763
189 0.000748
190 0.000718
191 0.000710
192 0.000726
193 0.000724
194 0.000719
195 0.000716
196 0.000713
197 0.000701
198 0.000703
199 0.000693
200 0.000689
201 0.000694
202 0.000688
203 0.000703
204 0.000728
205 0.000732
206 0.000763
207 0.000778
208 0.000803
209 0.000829
210 0.000845
211 0.000848
212 0.000847
213 0.000807
214 0.000810
215 0.000799
216 0.000782
217 0.000769
218 0.000769
219 0.000759
220 0.000749
221 0.000738
222 0.000708
223 0.000671
224 0.000645
225 0.000635
226 0.000623
227 0.000621
228 0.000619
229 0.000591
230 0.000572
231 0.000549
232 0.000545
233 0.000545
234 0.000547
235 0.000552
236 0.000558
237 0.000593
238 0.000637
239 0.000678
240 0.000702
241 0.000709
242 0.000720
243 0.000714
244 0.000711
245 0.000703
246 0.000705
247 0.000719
248 0.000723
249 0.000715
250 0.000713
251 0.000716
252 0.000693
253 0.000660
254 0.000636
255 0.000608
256 0.000599
257 0.000598
258 0.000617
259 0.000649
260 0.000667
261 0.000663
262 0.000645
263 0.000632
264 0.000622
265 0.000614
266 0.000631
267 0.000647
268 0.000651
269 0.000652
270 0.000646
271 0.000625
272 0.000618
273 0.000607
274 0.000606
275 0.000588
276 0.000587
277 0.000587
278 0.000584
279 0.000587
280 0.000598
281 0.000600
282 0.000620
283 0.000637
284 0.000643
285 0.000665
286 0.000688
287 0.000686
288 0.000663
289 0.000637
290 0.000631
291 0.000620
292 0.000620
293 0.000616
294 0.000607
295 0.000607
296 0.000601
297 0.000608
298 0.000617
299 0.000612
300 0.000610
301 0.000603
302 0.000602
303 0.000601
304 0.000589
305 0.000582
306 0.000565
307 0.000556
308 0.000552
309 0.000572
310 0.000578
311 0.000596
312 0.000597
313 0.000590
314 0.000580
315 0.000579
316 0.000579
317 0.000588
318 0.000592
319 0.000589
320 0.000594
321 0.000615
322 0.000621
323 0.000614
324 0.000612
325 0.000610
326 0.000615
327 0.000615
328 0.000615
329 0.000637
330 0.000625
331 0.000629
332 0.000631
333 0.000634
334 0.000648
335 0.000644
336 0.000639
337 0.000627
338 0.000606
339 0.000592
340 0.000601
341 0.000605
342 0.000602
343 0.000605
344 0.000607
345 0.000630
346 0.000630
347 0.000626
348 0.000628
349 0.000622
350 0.000626
351 0.000610
352 0.000595
353 0.000579
354 0.000568
355 0.000582
356 0.000598
357 0.000626
358 0.000640
359 0.000649
360 0.000643
361 0.000645
362 0.000631
363 0.000609
364 0.000580
365 0.000544
366 0.000506
367 0.000466
368 0.000441
369 0.000422
370 0.000405
371 0.000396
372 0.000386
373 0.000390
374 0.000389
375 0.000387
376 0.000369
377 0.000375
378 0.000377
379 0.000382
380 0.000404
381 0.000424
382 0.000428
383 0.000431
384 0.000451
385 0.000462
386 0.000462
387 0.000474
388 0.000465
389 0.000466
390 0.000455
391 0.000452
392 0.000451
393 0.000447
394 0.000448
395 0.000442
396 0.000437
397 0.000426
398 0.000414
399 0.000396
400 0.000382
401 0.000365
402 0.000359
403 0.000360
404 0.000356
405 0.000344
406 0.000335
407 0.000327
408 0.000327
409 0.000319
410 0.000319
411 0.000308
412 0.000291
413 0.000275
414 0.000266
415 0.000272
416 0.000273
417 0.000266
418 0.000271
419 0.000272
420 0.000286
421 0.000281
422 0.000272
423 0.000273
424 0.000273
425 0.000274
426 0.000284
427 0.000289
428 0.000295
429 0.000300
430 0.000320
431 0.000323
432 0.000334
433 0.000331
434 0.000326
435 0.000327
436 0.000328
437 0.000332
438 0.000333
439 0.000330
440 0.000316
441 0.000297
442 0.000293
443 0.000303
444 0.000309
445 0.000308
446 0.000319
447 0.000335
448 0.000339
449 0.000340
450 0.000336
451 0.000341
452 0.000337
453 0.000330
454 0.000325
455 0.000323
456 0.000323
457 0.000300
458 0.000291
459 0.000289
460 0.000301
461 0.000302
462 0.000310
463 0.000308
464 0.000298
465 0.000292
466 0.000286
467 0.000304
468 0.000333
469 0.000357
470 0.000360
471 0.000348
472 0.000320
473 0.000296
474 0.000267
475 0.000260
476 0.000260
477 0.000256
478 0.000261
479 0.000258
480 0.000262
481 0.000267
482 0.000255
483 0.000242
484 0.000233
485 0.000219
486 0.000213
487 0.000197
488 0.000194
489 0.000201
490 0.000210
491 0.000235
492 0.000260
493 0.000276
494 0.000284
495 0.000289
496 0.000288
497 0.000294
498 0.000296
499 0.000299
500 0.000296
501 0.000293
502 0.000275
503 0.000276
504 0.000281
505 0.000291
506 0.000305
507 0.000312
508 0.000301
509 0.000286
510 0.000269
511 0.000245
512 0.000223
513 0.000218
514 0.000194
515 0.000179
516 0.000161
517 0.000160
518 0.000158
519 0.000160
520 0.000160
521 0.000168
522 0.000160
523 0.000159
524 0.000158
525 0.000163
526 0.000158
527 0.000175
528 0.000191
529 0.000206
530 0.000212
531 0.000207
532 0.000196
533 0.000193
534 0.000183
535 0.000180
536 0.000183
537 0.000205
538 0.000215
539 0.000212
540 0.000214
541 0.000227
542 0.000225
543 0.000226
544 0.000221
545 0.000216
546 0.000208
547 0.000186
548 0.000167
549 0.000145
550 0.000123
551 0.000120
552 0.000117
553 0.000115
554 0.000117
555 0.000121
556 0.000121
557 0.000127
558 0.000125
559 0.000126
560 0.000132
561 0.000150
562 0.000152
563 0.000146
564 0.000147
565 0.000140
566 0.000129
567 0.000113
568 0.000108
569 0.000119
570 0.000111
571 0.000102
572 0.000106
573 0.000111
574 0.000094
575 0.000080
576 0.000065
577 0.000062
578 0.000059
579 0.000063
580 0.000057
581 0.000050
582 0.000040
583 0.000046
584 0.000038
585 0.000042
586 0.000035
587 0.000052
588 0.000072
589 0.000081
590 0.000072
591 0.000058
592 0.000053
593 0.000056
594 0.000052
595 0.000052
596 0.000067
597 0.000065
598 0.000061
599 0.000062
600 0.000062
601 0.000077
602 0.000078
603 0.000087
604 0.000096
605 0.000095
606 0.000098
607 0.000101
608 0.000098
609 0.000091
610 0.000073
611 0.000066
612 0.000057
613 0.000040
614 0.000027
615 0.000025
616 0.000024
617 0.000028
618 0.000029
619 0.000030
620 0.000030
621 0.000020
622 0.000021
623 0.000024
624 0.000035
625 0.000043
626 0.000055
627 0.000067
628 0.000078
629 0.000085
630 0.000087
631 0.000095
632 0.000115
633 0.000111
634 0.000099
635 0.000087
636 0.000076
637 0.000066
638 0.000070
639 0.000083
640 0.000100
641 0.000121
642 0.000133
643 0.000147
644 0.000156
645 0.000159
646 0.000162
647 0.000173
648 0.000181
649 0.000177
650 0.000173
651 0.000167
652 0.000160
653 0.000156
654 0.000158
655 0.000163
656 0.000159
657 0.000161
658 0.000162
659 0.000154
660 0.000148
661 0.000140
662 0.000141
663 0.000143
664 0.000132
665 0.000126
666 0.000120
667 0.000117
668 0.000115
669 0.000108
670 0.000112
671 0.000110
672 0.000110
673 0.000117
674 0.000136
675 0.000147
676 0.000158
677 0.000163
678 0.000159
679 0.000165
680 0.000154
681 0.000147
682 0.000142
683 0.000134
684 0.000129
685 0.000125
686 0.000128
687 0.000140
688 0.000144
689 0.000140
690 0.000146
691 0.000140
692 0.000144
693 0.000145
694 0.000140
695 0.000142
696 0.000130
697 0.000123
698 0.000129
699 0.000123
700 0.000113
701 0.000096
702 0.000088
703 0.000074
704 0.000056
705 0.000045
706 0.000044
707 0.000044
708 0.000043
709 0.000043
710 0.000045
711 0.000060
712 0.000062
713 0.000060
714 0.000053
715 0.000044
716 0.000040
717 0.000031
718 0.000028
719 0.000027
720 0.000028
721 0.000022
722 0.000008
723 -0.000004
724 -0.000022
725 -0.000038
726 -0.000063
727 -0.000075
728 -0.000083
729 -0.000092
730 -0.000103
731 -0.000111
732 -0.000109
733 -0.000111
734 -0.000114
735 -0.000112
736 -0.000102
737 -0.000089
738 -0.000087
739 -0.000086
740 -0.000080
741 -0.000072
742 -0.000077
743 -0.000078
744 -0.000075
745 -0.000074
746 -0.000076
747 -0.000080
748 -0.000084
749 -0.000079
750 -0.000079
751 -0.000080
752 -0.000083
753 -0.000083
754 -0.000088
755 -0.000088
756 -0.000090
757 -0.000095
758 -0.000107
759 -0.000126
760 -0.000142
761 -0.000155
762 -0.000167
763 -0.000174
764 -0.000176
765 -0.000176
766 -0.000186
767 -0.000185
768 -0.000182
769 -0.000185
770 -0.000191
771 -0.000196
772 -0.000196
773 -0.000191
774 -0.000204
775 -0.000209
776 -0.000205
777 -0.000201
778 -0.000201
779 -0.000195
780 -0.000184
781 -0.000177
782 -0.000184
783 -0.000188
784 -0.000188
785 -0.000183
786 -0.000186
787 -0.000184
788 -0.000183
789 -0.000172
790 -0.000174
791 -0.000174
792 -0.000175
793 -0.000167
794 -0.000166
795 -0.000171
796 -0.000174
797 -0.000174
798 -0.000182
799 -0.000186
800 -0.000184
801 -0.000185
802 -0.000184
803 -0.000183
804 -0.000187
805 -0.000185
806 -0.000189
807 -0.000181
808 -0.000172
809 -0.000168
