# i correlation
1 0.001982
2 0.001835
3 0.001708
4 0.001605
5 0.001502
6 0.001437
7 0.001359
8 0.001275
9 0.001197
10 0.001158
11 0.001110
12 0.001083
13 0.001060
14 0.001045
15 0.001021
16 0.001001
17 0.001004
18 0.000986
19 0.000973
20 0.000980
21 0.000971
22 0.000970
23 0.000968
24 0.000960
25 0.000957
26 0.000950
27 0.000931
28 0.000911
29 0.000921
30 0.000926
31 0.000929
32 0.000927
33 0.000911
34 0.000885
35 0.000862
36 0.000821
37 0.000799
38 0.000765
39 0.000751
40 0.000749
41 0.000770
42 0.000795
43 0.000802
44 0.000811
45 0.000825
46 0.000823
47 0.000798
48 0.000771
49 0.000752
50 0.000720
51 0.000688
52 0.000661
53 0.000630
54 0.000617
55 0.000620
56 0.000603
57 0.000607
58 0.000586
59 0.000562
60 0.000531
61 0.000541
62 0.000556
63 0.000584
64 0.000604
65 0.000611
66 0.000579
67 0.000568
68 0.000568
69 0.000571
70 0.000567
71 0.000553
72 0.000555
73 0.000538
74 0.000539
75 0.000559
76 0.000568
77 0.000569
78 0.000557
79 0.000546
80 0.000519
81 0.000499
82 0.000468
83 0.000454
84 0.000421
85 0.000420
86 0.000420
87 0.000431
88 0.000442
89 0.000462
90 0.000479
91 0.000504
92 0.000515
93 0.000522
94 0.000527
95 0.000523
96 0.000523
97 0.000533
98 0.000550
99 0.000533
100 0.000548
101 0.000549
102 0.000541
103 0.000516
104 0.000520
105 0.000511
106 0.000510
107 0.000505
108 0.000500
109 0.000487
110 0.000477
111 0.000488
112 0.000494
113 0.000473
114 0.000459
115 0.000445
116 0.000428
117 0.000416
118 0.000416
119 0.000439
120 0.000457
121 0.000484
122 0.000502
123 0.000495
124 0.000478
125 0.000483
126 0.000487
127 0.000487
128 0.000479
129 0.000450
130 0.000429
131 0.000409
132 0.000404
133 0.000408
134 0.000438
135 0.000463
136 0.000485
137 0.000500
138 0.000517
139 0.000543
140 0.000576
141 0.000593
142 0.000600
143 0.000610
144 0.000611
145 0.000606
146 0.000606
147 0.000596
148 0.000593
149 0.000570
150 0.000563
151 0.000568
152 0.000578
153 0.000572
154 0.000560
155 0.000566
156 0.000565
157 0.000555
158 0.000532
159 0.000489
160 0.000448
161 0.000434
162 0.000434
163 0.000412
164 0.000394
165 0.000392
166 0.000393
167 0.000405
168 0.000432
169 0.000452
170 0.000487
171 0.000487
172 0.000484
173 0.000476
174 0.000473
175 0.000469
176 0.000475
177 0.000506
178 0.000521
179 0.000533
180 0.000541
181 0.000566
182 0.000575
183 0.000594
184 0.000614
185 0.000642
186 0.000627
187 0.000631
188 0.000628
189 0.000622
190 0.000595
191 0.000591
192 0.000588
193 0.000577
194 0.000544
195 0.000525
196 0.000492
197 0.000470
198 0.000448
199 0.000430
200 0.000407
201 0.000378
202 0.000390
203 0.000399
204 0.000405
205 0.000409
206 0.000401
207 0.000392
208 0.000402
209 0.000402
210 0.000406
211 0.000422
212 0.000452
213 0.000465
214 0.000462
215 0.000467
216 0.000456
217 0.000444
218 0.000427
219 0.000418
220 0.000420
221 0.000395
222 0.000367
223 0.000354
224 0.000326
225 0.000337
226 0.000347
227 0.000360
228 0.000350
229 0.000352
230 0.000352
231 0.000347
232 0.000367
233 0.000384
234 0.000388
235 0.000385
236 0.000373
237 0.000380
238 0.000391
239 0.000394
240 0.000383
241 0.000345
242 0.000325
243 0.000300
244 0.000279
245 0.000266
246 0.000262
247 0.000256
248 0.000243
249 0.000250
250 0.000254
251 0.000248
252 0.000250
253 0.000247
254 0.000240
255 0.000238
256 0.000251
257 0.000265
258 0.000268
259 0.000280
260 0.000289
261 0.000287
262 0.000286
263 0.000281
264 0.000267
265 0.000254
266 0.000236
267 0.000223
268 0.000203
269 0.000192
270 0.000187
271 0.000192
272 0.000186
273 0.000170
274 0.000177
275 0.000175
276 0.000178
277 0.000183
278 0.000195
279 0.000207
280 0.000205
281 0.000205
282 0.000207
283 0.000215
284 0.000214
285 0.000215
286 0.000188
287 0.000151
288 0.000113
289 0.000102
290 0.000095
291 0.000100
292 0.000104
293 0.000104
294 0.000110
295 0.000117
296 0.000122
297 0.000139
298 0.000138
299 0.000135
300 0.000137
301 0.000149
302 0.000180
303 0.000220
304 0.000254
305 0.000277
306 0.000297
307 0.000303
308 0.000305
309 0.000300
310 0.000280
311 0.000264
312 0.000235
313 0.000219
314 0.000208
315 0.000192
316 0.000191
317 0.000180
318 0.000167
319 0.000153
320 0.000146
321 0.000144
322 0.000137
323 0.000150
324 0.000163
325 0.000168
326 0.000170
327 0.000184
328 0.000188
329 0.000194
330 0.000192
331 0.000185
332 0.000178
333 0.000173
334 0.000171
335 0.000166
336 0.000152
337 0.000137
338 0.000135
339 0.000130
340 0.000136
341 0.000121
342 0.000092
343 0.000073
344 0.000046
345 0.000015
346 0.000007
347 -0.000002
348 0.000009
349 0.000017
350 0.000013
351 0.000003
352 -0.000009
353 -0.000017
354 -0.000002
355 0.000010
356 0.000001
357 -0.000007
358 -0.000000
359 -0.000004
360 0.000009
361 0.000024
362 0.000020
363 -0.000004
364 -0.000009
365 -0.000008
366 0.000004
367 0.000015
368 0.000025
369 0.000019
370 0.000019
371 0.000005
372 0.000014
373 0.000016
374 0.000008
375 -0.000004
376 -0.000008
377 -0.000018
378 -0.000021
379 -0.000032
380 -0.000028
381 -0.000012
382 0.000004
383 0.000023
384 0.000027
385 0.000028
386 0.000027
387 0.000013
388 -0.000013
389 -0.000023
390 -0.000022
391 -0.000026
392 -0.000033
393 -0.000043
394 -0.000072
395 -0.000077
396 -0.000063
397 -0.000031
398 -0.000018
399 0.000006
400 0.000008
401 0.000018
402 0.000034
403 0.000057
404 0.000074
405 0.000082
406 0.000098
407 0.000108
408 0.000117
409 0.000103
410 0.000088
411 0.000061
412 0.000033
413 0.000019
414 0.000008
415 -0.000010
416 -0.000026
417 -0.000041
418 -0.000054
419 -0.000053
420 -0.000057
421 -0.000067
422 -0.000073
423 -0.000073
424 -0.000070
425 -0.000063
426 -0.000071
427 -0.000071
428 -0.000068
429 -0.000080
430 -0.000087
431 -0.000078
432 -0.000077
433 -0.000079
434 -0.000084
435 -0.000097
436 -0.000113
437 -0.000117
438 -0.000115
439 -0.000123
440 -0.000128
441 -0.000103
442 -0.000086
443 -0.000072
444 -0.000047
445 -0.000025
446 -0.000000
447 0.000028
448 0.000064
449 0.000095
450 0.000109
451 0.000139
452 0.000153
453 0.000159
454 0.000160
455 0.000178
456 0.000171
457 0.000157
458 0.000148
459 0.000149
460 0.000144
461 0.000130
462 0.000108
463 0.000092
464 0.000086
465 0.000085
466 0.000066
467 0.000060
468 0.000052
469 0.000050
470 0.000040
471 0.000034
472 0.000037
473 0.000050
474 0.000054
475 0.000063
476 0.000077
477 0.000084
478 0.000101
479 0.000097
480 0.000103
481 0.000090
482 0.000097
483 0.000105
484 0.000109
485 0.000101
486 0.000109
487 0.000097
488 0.000107
489 0.000123
490 0.000135
491 0.000128
492 0.000120
493 0.000102
494 0.000094
495 0.000100
496 0.000108
497 0.000116
498 0.000115
499 0.000108
500 0.000101
501 0.000100
502 0.000092
503 0.000084
504 0.000079
505 0.000075
506 0.000075
507 0.000063
508 0.000062
509 0.000066
510 0.000066
511 0.000065
512 0.000063
513 0.000058
514 0.000054
515 0.000048
516 0.000048
517 0.000050
518 0.000046
519 0.000042
520 0.000034
521 0.000028
522 0.000021
523 0.000021
524 0.000021
525 0.000016
526 0.000011
527 0.000003
528 -0.000000
529 -0.000004
530 -0.000021
531 -0.000032
532 -0.000042
533 -0.000053
534 -0.000049
535 -0.000051
536 -0.000049
537 -0.000056
538 -0.000054
539 -0.000043
540 -0.000044
541 -0.000033
542 -0.000033
543 -0.000024
544 -0.000021
545 -0.000007
546 0.000012
547 0.000020
548 0.000020
549 0.000036
550 0.000036
551 0.000036
552 0.000033
553 0.000064
554 0.000084
555 0.000101
556 0.000106
557 0.000104
558 0.000098
559 0.000097
560 0.000109
561 0.000135
562 0.000132
563 0.000139
564 0.000135
565 0.000131
566 0.000125
567 0.000118
568 0.000106
569 0.000110
570 0.000094
571 0.000083
572 0.000058
573 0.000048
574 0.000038
575 0.000048
576 0.000060
577 0.000069
578 0.000088
579 0.000104
580 0.000127
581 0.000146
582 0.000159
583 0.000170
584 0.000189
585 0.000203
586 0.000217
587 0.000229
588 0.000237
589 0.000231
590 0.000237
591 0.000237
592 0.000240
593 0.000246
594 0.000249
595 0.000262
596 0.000264
597 0.000259
598 0.000266
599 0.000279
600 0.000291
601 0.000302
602 0.000303
603 0.000302
604 0.000285
605 0.000273
606 0.000264
607 0.000256
608 0.000258
609 0.000257
610 0.000272
611 0.000284
612 0.000296
613 0.000306
614 0.000303
615 0.000297
616 0.000297
617 0.000305
618 0.000305
619 0.000298
620 0.000284
621 0.000268
622 0.000252
623 0.000241
624 0.000225
625 0.000226
626 0.000234
627 0.000228
628 0.000226
629 0.000229
630 0.000237
631 0.000245
632 0.000256
633 0.000267
634 0.000275
635 0.000274
636 0.000270
637 0.000266
638 0.000260
639 0.000249
640 0.000249
641 0.000254
642 0.000251
643 0.000252
644 0.000243
645 0.000241
646 0.000237
647 0.000238
648 0.000229
649 0.000211
650 0.000190
651 0.000172
652 0.000153
653 0.000136
654 0.000125
655 0.000117
656 0.000106
657 0.000107
658 0.000110
659 0.000108
660 0.000114
661 0.000113
662 0.000123
663 0.000139
664 0.000150
665 0.000154
666 0.000146
667 0.000161
668 0.000159
669 0.000150
670 0.000139
671 0.000132
672 0.000129
673 0.000127
674 0.000117
675 0.000121
676 0.000126
677 0.000122
678 0.000121
679 0.000114
680 0.000115
681 0.000113
682 0.000114
683 0.000105
684 0.000105
685 0.000093
686 0.000086
687 0.000085
688 0.000093
689 0.000102
690 0.000109
691 0.000116
692 0.000118
693 0.000116
694 0.000109
695 0.000103
696 0.000103
697 0.000097
698 0.000098
699 0.000081
700 0.000071
701 0.000061
702 0.000057
703 0.000053
704 0.000049
705 0.000053
706 0.000064
707 0.000068
708 0.000073
709 0.000076
710 0.000072
711 0.000071
712 0.000072
713 0.000075
714 0.000068
715 0.000062
716 0.000058
717 0.000054
718 0.000047
719 0.000040
720 0.000038
721 0.000044
722 0.000051
723 0.000063
724 0.000065
725 0.000058
726 0.000060
727 0.000059
728 0.000054
729 0.000047
730 0.000047
731 0.000044
732 0.000054
733 0.000054
734 0.000055
735 0.000061
736 0.000061
737 0.000070
738 0.000077
739 0.000085
740 0.000083
741 0.000082
742 0.000076
743 0.000072
744 0.000063
745 0.000049
746 0.000044
747 0.000035
748 0.000027
749 0.000023
750 0.000020
751 0.000018
752 0.000024
753 0.000032
754 0.000050
755 0.000066
756 0.000065
757 0.000067
758 0.000069
759 0.000072
760 0.000064
761 0.000073
762 0.000074
763 0.000079
764 0.000082
765 0.000083
766 0.000093
767 0.000105
768 0.000123
769 0.000143
770 0.000144
771 0.000154
772 0.000160
773 0.000164
774 0.000169
775 0.000169
776 0.000164
777 0.000153
778 0.000147
779 0.000133
780 0.000127
781 0.000126
782 0.000126
783 0.000131
784 0.000140
785 0.000143
786 0.000148
787 0.000157
788 0.000171
789 0.000185
790 0.000190
791 0.000199
792 0.000210
793 0.000216
794 0.000222
795 0.000228
796 0.000239
797 0.000237
798 0.000251
799 0.000254
800 0.000267
801 0.000269
802 0.000268
803 0.000268
804 0.000265
805 0.000258
806 0.000253
807 0.000248
808 0.000241
809 0.000238
