# i correlation
1 0.002367
2 0.002181
3 0.002043
4 0.001931
5 0.001829
6 0.001717
7 0.001620
8 0.001528
9 0.001448
10 0.001401
11 0.001358
12 0.001331
13 0.001319
14 0.001323
15 0.001326
16 0.001318
17 0.001312
18 0.001316
19 0.001331
20 0.001339
21 0.001366
22 0.001365
23 0.001370
24 0.001370
25 0.001367
26 0.001346
27 0.001317
28 0.001271
29 0.001234
30 0.001207
31 0.001191
32 0.001186
33 0.001181
34 0.001186
35 0.001171
36 0.001156
37 0.001154
38 0.001156
39 0.001165
40 0.001175
41 0.001149
42 0.001125
43 0.001102
44 0.001089
45 0.001072
46 0.001045
47 0.001037
48 0.001033
49 0.001027
50 0.001013
51 0.001000
52 0.000990
53 0.000962
54 0.000936
55 0.000909
56 0.000909
57 0.000918
58 0.000912
59 0.000911
60 0.000877
61 0.000849
62 0.000824
63 0.000800
64 0.000790
65 0.000779
66 0.000778
67 0.000769
68 0.000762
69 0.000768
70 0.000772
71 0.000785
72 0.000795
73 0.000818
74 0.000840
75 0.000872
76 0.000887
77 0.000904
78 0.000906
79 0.000904
80 0.000901
81 0.000897
82 0.000883
83 0.000865
84 0.000823
85 0.000802
86 0.000770
87 0.000752
88 0.000736
89 0.000739
90 0.000733
91 0.000745
92 0.000751
93 0.000732
94 0.000729
95 0.000725
96 0.000740
97 0.000749
98 0.000732
99 0.000729
100 0.000741
101 0.000741
102 0.000740
103 0.000722
104 0.000699
105 0.000677
106 0.000684
107 0.000682
108 0.000695
109 0.000715
110 0.000719
111 0.000711
112 0.000720
113 0.000724
114 0.000743
115 0.000769
116 0.000794
117 0.000803
118 0.000781
119 0.000759
120 0.000745
121 0.000761
122 0.000787
123 0.000801
124 0.000804
125 0.000801
126 0.000788
127 0.000792
128 0.000806
129 0.000808
130 0.000830
131 0.000863
132 0.000863
133 0.000854
134 0.000871
135 0.000888
136 0.000887
137 0.000888
138 0.000897
139 0.000903
140 0.000908
141 0.000921
142 0.000930
143 0.000923
144 0.000901
145 0.000880
146 0.000881
147 0.000873
148 0.000874
149 0.000863
150 0.000839
151 0.000812
152 0.000793
153 0.000798
154 0.000807
155 0.000799
156 0.000800
157 0.000784
158 0.000773
159 0.000754
160 0.000757
161 0.000761
162 0.000769
163 0.000768
164 0.000770
165 0.000768
166 0.000786
167 0.000801
168 0.000825
169 0.000850
170 0.000848
171 0.000845
172 0.000834
173 0.000838
174 0.000857
175 0.000865
176 0.000854
177 0.000835
178 0.000815
179 0.000804
180 0.000790
181 0.000776
182 0.000772
183 0.000771
184 0.000750
185 0.000744
186 0.000740
187 0.000755
188 0.000771
189 0.000795
190 0.000814
191 0.000811
192 0.000805
193 0.000800
194 0.000790
195 0.000761
196 0.000733
197 0.000709
198 0.000704
199 0.000704
200 0.000710
201 0.000699
202 0.000689
203 0.000696
204 0.000694
205 0.000691
206 0.000690
207 0.000667
208 0.000643
209 0.000623
210 0.000620
211 0.000619
212 0.000612
213 0.000616
214 0.000602
215 0.000589
216 0.000570
217 0.000558
218 0.000556
219 0.000548
220 0.000557
221 0.000551
222 0.000557
223 0.000586
224 0.000615
225 0.000642
226 0.000663
227 0.000701
228 0.000709
229 0.000702
230 0.000696
231 0.000692
232 0.000680
233 0.000666
234 0.000648
235 0.000621
236 0.000575
237 0.000557
238 0.000555
239 0.000560
240 0.000545
241 0.000529
242 0.000512
243 0.000484
244 0.000473
245 0.000482
246 0.000493
247 0.000514
248 0.000533
249 0.000548
250 0.000562
251 0.000582
252 0.000595
253 0.000592
254 0.000584
255 0.000567
256 0.000556
257 0.000540
258 0.000517
259 0.000513
260 0.000517
261 0.000510
262 0.000515
263 0.000538
264 0.000553
265 0.000576
266 0.000591
267 0.000593
268 0.000607
269 0.000628
270 0.000641
271 0.000645
272 0.000676
273 0.000689
274 0.000688
275 0.000686
276 0.000694
277 0.000710
278 0.000712
279 0.000716
280 0.000702
281 0.000691
282 0.000671
283 0.000653
284 0.000638
285 0.000621
286 0.000617
287 0.000594
288 0.000567
289 0.000549
290 0.000532
291 0.000550
292 0.000568
293 0.000578
294 0.000569
295 0.000583
296 0.000624
297 0.000651
298 0.000682
299 0.000707
300 0.000726
301 0.000726
302 0.000733
303 0.000737
304 0.000734
305 0.000711
306 0.000690
307 0.000680
308 0.000681
309 0.000672
310 0.000658
311 0.000637
312 0.000637
313 0.000639
314 0.000633
315 0.000634
316 0.000640
317 0.000656
318 0.000662
319 0.000666
320 0.000657
321 0.000659
322 0.000668
323 0.000677
324 0.000675
325 0.000661
326 0.000653
327 0.000644
328 0.000637
329 0.000619
330 0.000592
331 0.000583
332 0.000569
333 0.000563
334 0.000545
335 0.000548
336 0.000553
337 0.000563
338 0.000560
339 0.000551
340 0.000559
341 0.000577
342 0.000601
343 0.000614
344 0.000605
345 0.000598
346 0.000589
347 0.000591
348 0.000598
349 0.000588
350 0.000565
351 0.000544
352 0.000534
353 0.000522
354 0.000512
355 0.000493
356 0.000489
357 0.000498
358 0.000498
359 0.000485
360 0.000479
361 0.000497
362 0.000509
363 0.000512
364 0.000503
365 0.000489
366 0.000497
367 0.000496
368 0.000491
369 0.000498
370 0.000491
371 0.000479
372 0.000468
373 0.000478
374 0.000482
375 0.000480
376 0.000473
377 0.000467
378 0.000466
379 0.000460
380 0.000456
381 0.000472
382 0.000473
383 0.000463
384 0.000444
385 0.000444
386 0.000425
387 0.000424
388 0.000423
389 0.000409
390 0.000395
391 0.000396
392 0.000398
393 0.000409
394 0.000419
395 0.000431
396 0.000433
397 0.000430
398 0.000440
399 0.000453
400 0.000466
401 0.000476
402 0.000476
403 0.000467
404 0.000467
405 0.000453
406 0.000444
407 0.000439
408 0.000443
409 0.000452
410 0.000466
411 0.000455
412 0.000444
413 0.000445
414 0.000451
415 0.000450
416 0.000454
417 0.000449
418 0.000463
419 0.000466
420 0.000475
421 0.000488
422 0.000487
423 0.000502
424 0.000508
425 0.000513
426 0.000515
427 0.000522
428 0.000496
429 0.000469
430 0.000464
431 0.000469
432 0.000462
433 0.000454
434 0.000462
435 0.000457
436 0.000431
437 0.000416
438 0.000415
439 0.000418
440 0.000417
441 0.000415
442 0.000423
443 0.000418
444 0.000426
445 0.000435
446 0.000426
447 0.000412
448 0.000399
449 0.000387
450 0.000381
451 0.000374
452 0.000382
453 0.000387
454 0.000404
455 0.000422
456 0.000433
457 0.000442
458 0.000459
459 0.000461
460 0.000454
461 0.000448
462 0.000434
463 0.000433
464 0.000428
465 0.000425
466 0.000416
467 0.000405
468 0.000396
469 0.000393
470 0.000402
471 0.000406
472 0.000417
473 0.000417
474 0.000416
475 0.000416
476 0.000410
477 0.000399
478 0.000394
479 0.000407
480 0.000406
481 0.000387
482 0.000383
483 0.000381
484 0.000378
485 0.000376
486 0.000363
487 0.000350
488 0.000337
489 0.000332
490 0.000335
491 0.000344
492 0.000344
493 0.000347
494 0.000327
495 0.000313
496 0.000318
497 0.000327
498 0.000329
499 0.000313
500 0.000294
501 0.000301
502 0.000299
503 0.000294
504 0.000299
505 0.000307
506 0.000320
507 0.000321
508 0.000310
509 0.000311
510 0.000314
511 0.000316
512 0.000330
513 0.000336
514 0.000334
515 0.000330
516 0.000338
517 0.000332
518 0.000314
519 0.000293
520 0.000266
521 0.000239
522 0.000229
523 0.000232
524 0.000235
525 0.000236
526 0.000239
527 0.000257
528 0.000261
529 0.000258
530 0.000262
531 0.000283
532 0.000298
533 0.000295
534 0.000293
535 0.000293
536 0.000293
537 0.000304
538 0.000302
539 0.000306
540 0.000310
541 0.000330
542 0.000329
543 0.000318
544 0.000302
545 0.000283
546 0.000286
547 0.000293
548 0.000296
549 0.000297
550 0.000298
551 0.000295
552 0.000291
553 0.000276
554 0.000261
555 0.000268
556 0.000267
557 0.000254
558 0.000231
559 0.000208
560 0.000186
561 0.000175
562 0.000164
563 0.000143
564 0.000144
565 0.000156
566 0.000166
567 0.000175
568 0.000183
569 0.000191
570 0.000196
571 0.000192
572 0.000206
573 0.000218
574 0.000225
575 0.000233
576 0.000242
577 0.000228
578 0.000215
579 0.000199
580 0.000192
581 0.000186
582 0.000175
583 0.000157
584 0.000153
585 0.000143
586 0.000133
587 0.000140
588 0.000150
589 0.000168
590 0.000176
591 0.000191
592 0.000200
593 0.000209
594 0.000223
595 0.000240
596 0.000257
597 0.000261
598 0.000267
599 0.000265
600 0.000261
601 0.000260
602 0.000246
603 0.000230
604 0.000211
605 0.000206
606 0.000201
607 0.000196
608 0.000202
609 0.000206
610 0.000213
611 0.000210
612 0.000223
613 0.000236
614 0.000258
615 0.000275
616 0.000288
617 0.000290
618 0.000283
619 0.000274
620 0.000271
621 0.000278
622 0.000274
623 0.000270
624 0.000268
625 0.000258
626 0.000256
627 0.000247
628 0.000236
629 0.000225
630 0.000212
631 0.000196
632 0.000188
633 0.000185
634 0.000192
635 0.000198
636 0.000207
637 0.000212
638 0.000213
639 0.000220
640 0.000233
641 0.000238
642 0.000226
643 0.000216
644 0.000215
645 0.000216
646 0.000219
647 0.000232
648 0.000237
649 0.000236
650 0.000236
651 0.000234
652 0.000232
653 0.000227
654 0.000217
655 0.000214
656 0.000206
657 0.000199
658 0.000192
659 0.000187
660 0.000177
661 0.000174
662 0.000173
663 0.000158
664 0.000152
665 0.000160
666 0.000170
667 0.000174
668 0.000170
669 0.000167
670 0.000169
671 0.000170
672 0.000190
673 0.000215
674 0.000227
675 0.000228
676 0.000229
677 0.000223
678 0.000217
679 0.000197
680 0.000179
681 0.000168
682 0.000152
683 0.000144
684 0.000135
685 0.000124
686 0.000110
687 0.000099
688 0.000088
689 0.000082
690 0.000080
691 0.000079
692 0.000069
693 0.000059
694 0.000050
695 0.000052
696 0.000056
697 0.000058
698 0.000049
699 0.000048
700 0.000047
701 0.000037
702 0.000030
703 0.000035
704 0.000046
705 0.000049
706 0.000057
707 0.000073
708 0.000078
709 0.000076
710 0.000075
711 0.000075
712 0.000078
713 0.000083
714 0.000089
715 0.000097
716 0.000102
717 0.000112
718 0.000126
719 0.000128
720 0.000126
721 0.000124
722 0.000120
723 0.000125
724 0.000137
725 0.000144
726 0.000152
727 0.000158
728 0.000164
729 0.000173
730 0.000187
731 0.000211
732 0.000221
733 0.000226
734 0.000223
735 0.000229
736 0.000244
737 0.000248
738 0.000249
739 0.000251
740 0.000255
741 0.000256
742 0.000261
743 0.000264
744 0.000268
745 0.000266
746 0.000257
747 0.000259
748 0.000256
749 0.000249
750 0.000242
751 0.000249
752 0.000260
753 0.000270
754 0.000282
755 0.000294
756 0.000310
757 0.000324
758 0.000335
759 0.000334
760 0.000325
761 0.000337
762 0.000341
763 0.000334
764 0.000328
765 0.000327
766 0.000336
767 0.000337
768 0.000336
769 0.000330
770 0.000325
771 0.000321
772 0.000318
773 0.000303
774 0.000286
775 0.000271
776 0.000263
777 0.000259
778 0.000264
779 0.000273
780 0.000278
781 0.000274
782 0.000280
783 0.000293
784 0.000310
785 0.000314
786 0.000303
787 0.000301
788 0.000306
789 0.000312
790 0.000314
791 0.000308
792 0.000305
793 0.000305
794 0.000308
795 0.000314
796 0.000314
797 0.000308
798 0.000305
799 0.000296
800 0.000289
801 0.000285
802 0.000275
803 0.000270
804 0.000276
805 0.000281
806 0.000284
807 0.000285
808 0.000294
809 0.000309
