# i correlation
1 0.001877
2 0.001709
3 0.001563
4 0.001455
5 0.001379
6 0.001301
7 0.001239
8 0.001205
9 0.001149
10 0.001102
11 0.001069
12 0.001048
13 0.001013
14 0.001004
15 0.000981
16 0.000981
17 0.001009
18 0.001011
19 0.001020
20 0.001000
21 0.000972
22 0.000947
23 0.000912
24 0.000883
25 0.000847
26 0.000832
27 0.000820
28 0.000827
29 0.000827
30 0.000841
31 0.000857
32 0.000856
33 0.000855
34 0.000840
35 0.000855
36 0.000860
37 0.000868
38 0.000878
39 0.000873
40 0.000873
41 0.000864
42 0.000839
43 0.000835
44 0.000813
45 0.000814
46 0.000804
47 0.000804
48 0.000808
49 0.000841
50 0.000858
51 0.000883
52 0.000885
53 0.000885
54 0.000854
55 0.000854
56 0.000850
57 0.000845
58 0.000816
59 0.000797
60 0.000772
61 0.000742
62 0.000725
63 0.000711
64 0.000700
65 0.000659
66 0.000658
67 0.000662
68 0.000669
69 0.000657
70 0.000640
71 0.000639
72 0.000666
73 0.000686
74 0.000688
75 0.000697
76 0.000721
77 0.000722
78 0.000721
79 0.000694
80 0.000682
81 0.000669
82 0.000648
83 0.000642
84 0.000617
85 0.000602
86 0.000619
87 0.000625
88 0.000647
89 0.000640
90 0.000652
91 0.000638
92 0.000642
93 0.000638
94 0.000628
95 0.000625
96 0.000623
97 0.000622
98 0.000629
99 0.000637
100 0.000672
101 0.000675
102 0.000671
103 0.000651
104 0.000673
105 0.000696
106 0.000720
107 0.000722
108 0.000731
109 0.000720
110 0.000694
111 0.000663
112 0.000654
113 0.000657
114 0.000650
115 0.000633
116 0.000631
117 0.000637
118 0.000625
119 0.000603
120 0.000561
121 0.000521
122 0.000486
123 0.000503
124 0.000497
125 0.000488
126 0.000490
127 0.000474
128 0.000491
129 0.000503
130 0.000507
131 0.000520
132 0.000514
133 0.000512
134 0.000502
135 0.000505
136 0.000527
137 0.000533
138 0.000530
139 0.000522
140 0.000524
141 0.000518
142 0.000507
143 0.000506
144 0.000491
145 0.000493
146 0.000488
147 0.000494
148 0.000511
149 0.000514
150 0.000517
151 0.000508
152 0.000496
153 0.000484
154 0.000473
155 0.000465
156 0.000474
157 0.000474
158 0.000454
159 0.000451
160 0.000450
161 0.000471
162 0.000472
163 0.000449
164 0.000454
165 0.000443
166 0.000455
167 0.000465
168 0.000476
169 0.000498
170 0.000490
171 0.000466
172 0.000436
173 0.000421
174 0.000412
175 0.000395
176 0.000384
177 0.000364
178 0.000355
179 0.000352
180 0.000344
181 0.000354
182 0.000352
183 0.000352
184 0.000356
185 0.000362
186 0.000384
187 0.000395
188 0.000408
189 0.000422
190 0.000428
191 0.000428
192 0.000433
193 0.000426
194 0.000406
195 0.000388
196 0.000369
197 0.000360
198 0.000349
199 0.000352
200 0.000362
201 0.000380
202 0.000387
203 0.000397
204 0.000408
205 0.000439
206 0.000482
207 0.000517
208 0.000541
209 0.000555
210 0.000547
211 0.000534
212 0.000525
213 0.000524
214 0.000527
215 0.000501
216 0.000476
217 0.000447
218 0.000438
219 0.000445
220 0.000453
221 0.000462
222 0.000450
223 0.000453
224 0.000462
225 0.000468
226 0.000472
227 0.000456
228 0.000465
229 0.000482
230 0.000497
231 0.000512
232 0.000494
233 0.000475
234 0.000451
235 0.000432
236 0.000445
237 0.000465
238 0.000482
239 0.000493
240 0.000516
241 0.000538
242 0.000574
243 0.000584
244 0.000578
245 0.000578
246 0.000579
247 0.000591
248 0.000610
249 0.000625
250 0.000636
251 0.000627
252 0.000624
253 0.000618
254 0.000614
255 0.000608
256 0.000613
257 0.000621
258 0.000619
259 0.000619
260 0.000608
261 0.000606
262 0.000599
263 0.000579
264 0.000558
265 0.000529
266 0.000507
267 0.000490
268 0.000474
269 0.000487
270 0.000480
271 0.000482
272 0.000470
273 0.000464
274 0.000462
275 0.000474
276 0.000494
277 0.000517
278 0.000528
279 0.000539
280 0.000539
281 0.000536
282 0.000529
283 0.000520
284 0.000505
285 0.000508
286 0.000511
287 0.000526
288 0.000539
289 0.000536
290 0.000538
291 0.000531
292 0.000538
293 0.000553
294 0.000553
295 0.000551
296 0.000535
297 0.000535
298 0.000525
299 0.000519
300 0.000499
301 0.000486
302 0.000487
303 0.000470
304 0.000461
305 0.000475
306 0.000492
307 0.000515
308 0.000512
309 0.000512
310 0.000506
311 0.000492
312 0.000472
313 0.000443
314 0.000458
315 0.000469
316 0.000477
317 0.000470
318 0.000455
319 0.000442
320 0.000433
321 0.000438
322 0.000451
323 0.000471
324 0.000490
325 0.000507
326 0.000515
327 0.000512
328 0.000520
329 0.000539
330 0.000547
331 0.000556
332 0.000561
333 0.000560
334 0.000540
335 0.000535
336 0.000530
337 0.000537
338 0.000547
339 0.000552
340 0.000542
341 0.000530
342 0.000530
343 0.000521
344 0.000521
345 0.000524
346 0.000514
347 0.000521
348 0.000518
349 0.000537
350 0.000559
351 0.000552
352 0.000539
353 0.000536
354 0.000554
355 0.000571
356 0.000598
357 0.000619
358 0.000613
359 0.000606
360 0.000583
361 0.000578
362 0.000567
363 0.000562
364 0.000557
365 0.000547
366 0.000535
367 0.000542
368 0.000542
369 0.000529
370 0.000505
371 0.000468
372 0.000416
373 0.000387
374 0.000377
375 0.000391
376 0.000397
377 0.000385
378 0.000387
379 0.000366
380 0.000354
381 0.000350
382 0.000349
383 0.000349
384 0.000348
385 0.000350
386 0.000334
387 0.000329
388 0.000325
389 0.000313
390 0.000305
391 0.000289
392 0.000286
393 0.000294
394 0.000296
395 0.000317
396 0.000331
397 0.000346
398 0.000368
399 0.000368
400 0.000376
401 0.000384
402 0.000395
403 0.000386
404 0.000380
405 0.000381
406 0.000382
407 0.000387
408 0.000361
409 0.000348
410 0.000347
411 0.000351
412 0.000353
413 0.000349
414 0.000346
415 0.000342
416 0.000339
417 0.000331
418 0.000313
419 0.000310
420 0.000306
421 0.000298
422 0.000284
423 0.000269
424 0.000256
425 0.000245
426 0.000226
427 0.000214
428 0.000206
429 0.000193
430 0.000188
431 0.000190
432 0.000183
433 0.000189
434 0.000185
435 0.000173
436 0.000151
437 0.000156
438 0.000168
439 0.000195
440 0.000212
441 0.000222
442 0.000229
443 0.000239
444 0.000257
445 0.000275
446 0.000274
447 0.000284
448 0.000276
449 0.000278
450 0.000277
451 0.000282
452 0.000268
453 0.000255
454 0.000242
455 0.000247
456 0.000252
457 0.000262
458 0.000280
459 0.000287
460 0.000287
461 0.000303
462 0.000325
463 0.000352
464 0.000363
465 0.000359
466 0.000354
467 0.000349
468 0.000355
469 0.000355
470 0.000344
471 0.000328
472 0.000310
473 0.000298
474 0.000269
475 0.000235
476 0.000199
477 0.000168
478 0.000140
479 0.000121
480 0.000115
481 0.000107
482 0.000104
483 0.000107
484 0.000122
485 0.000122
486 0.000116
487 0.000109
488 0.000111
489 0.000105
490 0.000110
491 0.000109
492 0.000109
493 0.000111
494 0.000108
495 0.000096
496 0.000078
497 0.000058
498 0.000068
499 0.000085
500 0.000105
501 0.000128
502 0.000140
503 0.000149
504 0.000149
505 0.000138
506 0.000148
507 0.000158
508 0.000157
509 0.000140
510 0.000125
511 0.000130
512 0.000123
513 0.000116
514 0.000110
515 0.000109
516 0.000107
517 0.000109
518 0.000115
519 0.000131
520 0.000151
521 0.000179
522 0.000182
523 0.000189
524 0.000197
525 0.000192
526 0.000174
527 0.000147
528 0.000129
529 0.000106
530 0.000103
531 0.000103
532 0.000099
533 0.000090
534 0.000071
535 0.000071
536 0.000081
537 0.000093
538 0.000095
539 0.000103
540 0.000109
541 0.000113
542 0.000103
543 0.000097
544 0.000096
545 0.000111
546 0.000113
547 0.000119
548 0.000112
549 0.000103
550 0.000093
551 0.000086
552 0.000073
553 0.000059
554 0.000041
555 0.000037
556 0.000043
557 0.000066
558 0.000076
559 0.000088
560 0.000092
561 0.000092
562 0.000109
563 0.000123
564 0.000137
565 0.000140
566 0.000138
567 0.000140
568 0.000152
569 0.000151
570 0.000168
571 0.000188
572 0.000187
573 0.000191
574 0.000186
575 0.000186
576 0.000192
577 0.000200
578 0.000212
579 0.000229
580 0.000241
581 0.000252
582 0.000255
583 0.000240
584 0.000225
585 0.000205
586 0.000190
587 0.000189
588 0.000192
589 0.000185
590 0.000185
591 0.000177
592 0.000182
593 0.000173
594 0.000165
595 0.000166
596 0.000183
597 0.000186
598 0.000206
599 0.000233
600 0.000257
601 0.000277
602 0.000265
603 0.000254
604 0.000263
605 0.000253
606 0.000254
607 0.000256
608 0.000266
609 0.000279
610 0.000281
611 0.000276
612 0.000279
613 0.000281
614 0.000279
615 0.000275
616 0.000269
617 0.000268
618 0.000263
619 0.000252
620 0.000246
621 0.000242
622 0.000232
623 0.000228
624 0.000221
625 0.000211
626 0.000201
627 0.000201
628 0.000197
629 0.000196
630 0.000197
631 0.000205
632 0.000214
633 0.000217
634 0.000223
635 0.000222
636 0.000219
637 0.000222
638 0.000218
639 0.000210
640 0.000202
641 0.000187
642 0.000160
643 0.000130
644 0.000106
645 0.000099
646 0.000095
647 0.000105
648 0.000112
649 0.000127
650 0.000147
651 0.000165
652 0.000179
653 0.000194
654 0.000208
655 0.000217
656 0.000223
657 0.000226
658 0.000227
659 0.000228
660 0.000217
661 0.000200
662 0.000192
663 0.000184
664 0.000182
665 0.000177
666 0.000150
667 0.000134
668 0.000136
669 0.000130
670 0.000129
671 0.000122
672 0.000125
673 0.000139
674 0.000146
675 0.000137
676 0.000136
677 0.000135
678 0.000125
679 0.000112
680 0.000107
681 0.000105
682 0.000110
683 0.000107
684 0.000095
685 0.000097
686 0.000097
687 0.000103
688 0.000114
689 0.000127
690 0.000145
691 0.000159
692 0.000171
693 0.000184
694 0.000190
695 0.000176
696 0.000165
697 0.000158
698 0.000150
699 0.000150
700 0.000159
701 0.000156
702 0.000147
703 0.000141
704 0.000144
705 0.000153
706 0.000155
707 0.000163
708 0.000176
709 0.000189
710 0.000199
711 0.000208
712 0.000213
713 0.000224
714 0.000234
715 0.000224
716 0.000221
717 0.000210
718 0.000198
719 0.000182
720 0.000165
721 0.000153
722 0.000143
723 0.000127
724 0.000119
725 0.000108
726 0.000106
727 0.000112
728 0.000106
729 0.000107
730 0.000110
731 0.000121
732 0.000136
733 0.000128
734 0.000116
735 0.000113
736 0.000110
737 0.000107
738 0.000104
739 0.000094
740 0.000102
741 0.000105
742 0.000103
743 0.000106
744 0.000107
745 0.000114
746 0.000130
747 0.000126
748 0.000124
749 0.000129
750 0.000124
751 0.000132
752 0.000139
753 0.000137
754 0.000139
755 0.000134
756 0.000129
757 0.000126
758 0.000103
759 0.000081
760 0.000072
761 0.000066
762 0.000060
763 0.000061
764 0.000058
765 0.000064
766 0.000074
767 0.000080
768 0.000089
769 0.000094
770 0.000107
771 0.000112
772 0.000114
773 0.000113
774 0.000106
775 0.000100
776 0.000093
777 0.000087
778 0.000090
779 0.000086
780 0.000090
781 0.000090
782 0.000086
783 0.000087
784 0.000081
785 0.000072
786 0.000074
787 0.000075
788 0.000081
789 0.000084
790 0.000082
791 0.000084
792 0.000078
793 0.000077
794 0.000083
795 0.000081
796 0.000079
797 0.000081
798 0.000088
799 0.000100
800 0.000111
801 0.000116
802 0.000124
803 0.000128
804 0.000126
805 0.000122
806 0.000115
807 0.000114
808 0.000122
809 0.000127
