# i correlation
1 0.002584
2 0.002427
3 0.002299
4 0.002187
5 0.002081
6 0.002011
7 0.001960
8 0.001911
9 0.001859
10 0.001827
11 0.001801
12 0.001790
13 0.001772
14 0.001743
15 0.001725
16 0.001734
17 0.001736
18 0.001720
19 0.001701
20 0.001676
21 0.001645
22 0.001621
23 0.001599
24 0.001583
25 0.001552
26 0.001524
27 0.001505
28 0.001501
29 0.001482
30 0.001471
31 0.001466
32 0.001448
33 0.001438
34 0.001417
35 0.001397
36 0.001380
37 0.001361
38 0.001351
39 0.001344
40 0.001342
41 0.001347
42 0.001346
43 0.001344
44 0.001330
45 0.001302
46 0.001307
47 0.001307
48 0.001280
49 0.001270
50 0.001261
51 0.001267
52 0.001274
53 0.001265
54 0.001264
55 0.001264
56 0.001249
57 0.001235
58 0.001207
59 0.001198
60 0.001178
61 0.001162
62 0.001158
63 0.001170
64 0.001191
65 0.001195
66 0.001197
67 0.001192
68 0.001176
69 0.001161
70 0.001150
71 0.001147
72 0.001134
73 0.001141
74 0.001149
75 0.001171
76 0.001172
77 0.001185
78 0.001180
79 0.001179
80 0.001187
81 0.001183
82 0.001174
83 0.001181
84 0.001183
85 0.001184
86 0.001174
87 0.001168
88 0.001162
89 0.001136
90 0.001110
91 0.001103
92 0.001097
93 0.001095
94 0.001104
95 0.001112
96 0.001108
97 0.001096
98 0.001081
99 0.001060
100 0.001049
101 0.001051
102 0.001047
103 0.001050
104 0.001062
105 0.001066
106 0.001044
107 0.001033
108 0.001025
109 0.001012
110 0.001015
111 0.001033
112 0.001047
113 0.001069
114 0.001085
115 0.001099
116 0.001111
117 0.001132
118 0.001138
119 0.001126
120 0.001095
121 0.001080
122 0.001061
123 0.001039
124 0.001014
125 0.000987
126 0.000992
127 0.001011
128 0.001013
129 0.001020
130 0.001023
131 0.001009
132 0.000997
133 0.000987
134 0.000985
135 0.000994
136 0.000985
137 0.001005
138 0.000999
139 0.000989
140 0.000981
141 0.000957
142 0.000934
143 0.000911
144 0.000907
145 0.000904
146 0.000907
147 0.000906
148 0.000905
149 0.000901
150 0.000899
151 0.000903
152 0.000896
153 0.000889
154 0.000890
155 0.000869
156 0.000849
157 0.000825
158 0.000787
159 0.000757
160 0.000737
161 0.000732
162 0.000724
163 0.000724
164 0.000717
165 0.000699
166 0.000676
167 0.000657
168 0.000652
169 0.000653
170 0.000663
171 0.000669
172 0.000669
173 0.000668
174 0.000650
175 0.000638
176 0.000639
177 0.000641
178 0.000648
179 0.000660
180 0.000675
181 0.000706
182 0.000715
183 0.000715
184 0.000702
185 0.000688
186 0.000671
187 0.000649
188 0.000641
189 0.000636
190 0.000611
191 0.000596
192 0.000616
193 0.000637
194 0.000659
195 0.000669
196 0.000675
197 0.000678
198 0.000682
199 0.000688
200 0.000688
201 0.000710
202 0.000725
203 0.000725
204 0.000733
205 0.000746
206 0.000737
207 0.000714
208 0.000702
209 0.000693
210 0.000687
211 0.000679
212 0.000675
213 0.000665
214 0.000658
215 0.000640
216 0.000627
217 0.000625
218 0.000644
219 0.000650
220 0.000655
221 0.000661
222 0.000673
223 0.000674
224 0.000678
225 0.000676
226 0.000673
227 0.000656
228 0.000641
229 0.000633
230 0.000635
231 0.000650
232 0.000675
233 0.000691
234 0.000704
235 0.000708
236 0.000710
237 0.000696
238 0.000679
239 0.000666
240 0.000662
241 0.000655
242 0.000645
243 0.000642
244 0.000653
245 0.000655
246 0.000654
247 0.000654
248 0.000665
249 0.000674
250 0.000680
251 0.000686
252 0.000683
253 0.000670
254 0.000654
255 0.000641
256 0.000645
257 0.000664
258 0.000690
259 0.000713
260 0.000724
261 0.000727
262 0.000724
263 0.000711
264 0.000720
265 0.000729
266 0.000745
267 0.000758
268 0.000757
269 0.000756
270 0.000740
271 0.000712
272 0.000693
273 0.000666
274 0.000648
275 0.000641
276 0.000645
277 0.000642
278 0.000638
279 0.000626
280 0.000601
281 0.000586
282 0.000575
283 0.000559
284 0.000549
285 0.000533
286 0.000535
287 0.000529
288 0.000523
289 0.000508
290 0.000498
291 0.000499
292 0.000482
293 0.000465
294 0.000435
295 0.000410
296 0.000390
297 0.000383
298 0.000389
299 0.000404
300 0.000424
301 0.000423
302 0.000411
303 0.000414
304 0.000396
305 0.000385
306 0.000380
307 0.000380
308 0.000385
309 0.000401
310 0.000416
311 0.000419
312 0.000431
313 0.000438
314 0.000431
315 0.000431
316 0.000438
317 0.000439
318 0.000450
319 0.000457
320 0.000461
321 0.000452
322 0.000431
323 0.000426
324 0.000424
325 0.000431
326 0.000445
327 0.000456
328 0.000468
329 0.000478
330 0.000479
331 0.000492
332 0.000498
333 0.000498
334 0.000503
335 0.000511
336 0.000516
337 0.000520
338 0.000526
339 0.000527
340 0.000522
341 0.000511
342 0.000503
343 0.000506
344 0.000504
345 0.000499
346 0.000486
347 0.000475
348 0.000471
349 0.000482
350 0.000493
351 0.000501
352 0.000515
353 0.000525
354 0.000526
355 0.000548
356 0.000559
357 0.000561
358 0.000548
359 0.000538
360 0.000518
361 0.000507
362 0.000508
363 0.000495
364 0.000483
365 0.000467
366 0.000464
367 0.000458
368 0.000436
369 0.000421
370 0.000422
371 0.000420
372 0.000424
373 0.000426
374 0.000432
375 0.000437
376 0.000445
377 0.000450
378 0.000459
379 0.000457
380 0.000457
381 0.000450
382 0.000439
383 0.000450
384 0.000468
385 0.000479
386 0.000494
387 0.000515
388 0.000520
389 0.000530
390 0.000537
391 0.000545
392 0.000530
393 0.000523
394 0.000513
395 0.000514
396 0.000508
397 0.000516
398 0.000519
399 0.000524
400 0.000519
401 0.000526
402 0.000525
403 0.000536
404 0.000564
405 0.000593
406 0.000607
407 0.000605
408 0.000612
409 0.000607
410 0.000588
411 0.000569
412 0.000552
413 0.000541
414 0.000531
415 0.000519
416 0.000511
417 0.000502
418 0.000498
419 0.000487
420 0.000480
421 0.000489
422 0.000495
423 0.000505
424 0.000501
425 0.000503
426 0.000502
427 0.000502
428 0.000500
429 0.000497
430 0.000519
431 0.000525
432 0.000539
433 0.000548
434 0.000529
435 0.000518
436 0.000505
437 0.000498
438 0.000488
439 0.000486
440 0.000486
441 0.000483
442 0.000482
443 0.000487
444 0.000497
445 0.000504
446 0.000502
447 0.000508
448 0.000506
449 0.000498
450 0.000493
451 0.000492
452 0.000488
453 0.000487
454 0.000492
455 0.000505
456 0.000506
457 0.000499
458 0.000484
459 0.000468
460 0.000460
461 0.000462
462 0.000454
463 0.000459
464 0.000471
465 0.000480
466 0.000486
467 0.000491
468 0.000502
469 0.000519
470 0.000542
471 0.000561
472 0.000577
473 0.000579
474 0.000575
475 0.000562
476 0.000547
477 0.000523
478 0.000507
479 0.000497
480 0.000500
481 0.000503
482 0.000514
483 0.000518
484 0.000532
485 0.000556
486 0.000562
487 0.000572
488 0.000597
489 0.000615
490 0.000621
491 0.000623
492 0.000622
493 0.000610
494 0.000595
495 0.000578
496 0.000558
497 0.000544
498 0.000536
499 0.000539
500 0.000540
501 0.000550
502 0.000555
503 0.000548
504 0.000545
505 0.000535
506 0.000529
507 0.000531
508 0.000535
509 0.000529
510 0.000521
511 0.000521
512 0.000521
513 0.000517
514 0.000507
515 0.000494
516 0.000482
517 0.000475
518 0.000475
519 0.000478
520 0.000485
521 0.000491
522 0.000482
523 0.000484
524 0.000494
525 0.000505
526 0.000505
527 0.000505
528 0.000511
529 0.000490
530 0.000462
531 0.000451
532 0.000446
533 0.000428
534 0.000423
535 0.000427
536 0.000433
537 0.000446
538 0.000441
539 0.000435
540 0.000429
541 0.000423
542 0.000415
543 0.000415
544 0.000424
545 0.000428
546 0.000419
547 0.000401
548 0.000395
549 0.000391
550 0.000384
551 0.000371
552 0.000360
553 0.000348
554 0.000342
555 0.000338
556 0.000335
557 0.000326
558 0.000322
559 0.000321
560 0.000316
561 0.000313
562 0.000315
563 0.000308
564 0.000298
565 0.000287
566 0.000277
567 0.000275
568 0.000267
569 0.000256
570 0.000256
571 0.000250
572 0.000258
573 0.000261
574 0.000270
575 0.000273
576 0.000283
577 0.000292
578 0.000298
579 0.000304
580 0.000301
581 0.000299
582 0.000299
583 0.000305
584 0.000316
585 0.000328
586 0.000337
587 0.000345
588 0.000347
589 0.000350
590 0.000347
591 0.000345
592 0.000340
593 0.000329
594 0.000319
595 0.000308
596 0.000305
597 0.000293
598 0.000295
599 0.000291
600 0.000294
601 0.000308
602 0.000332
603 0.000356
604 0.000367
605 0.000370
606 0.000377
607 0.000391
608 0.000397
609 0.000405
610 0.000408
611 0.000404
612 0.000388
613 0.000374
614 0.000361
615 0.000351
616 0.000343
617 0.000335
618 0.000324
619 0.000319
620 0.000315
621 0.000317
622 0.000318
623 0.000314
624 0.000311
625 0.000310
626 0.000310
627 0.000304
628 0.000302
629 0.000294
630 0.000284
631 0.000272
632 0.000257
633 0.000236
634 0.000213
635 0.000199
636 0.000201
637 0.000204
638 0.000210
639 0.000218
640 0.000212
641 0.000216
642 0.000221
643 0.000224
644 0.000225
645 0.000215
646 0.000190
647 0.000170
648 0.000154
649 0.000152
650 0.000136
651 0.000120
652 0.000106
653 0.000096
654 0.000085
655 0.000077
656 0.000072
657 0.000061
658 0.000059
659 0.000048
660 0.000030
661 0.000019
662 0.000007
663 0.000003
664 -0.000000
665 0.000016
666 0.000021
667 0.000031
668 0.000033
669 0.000038
670 0.000023
671 0.000015
672 0.000003
673 -0.000011
674 -0.000023
675 -0.000033
676 -0.000048
677 -0.000047
678 -0.000059
679 -0.000078
680 -0.000091
681 -0.000105
682 -0.000114
683 -0.000118
684 -0.000122
685 -0.000129
686 -0.000142
687 -0.000154
688 -0.000162
689 -0.000163
690 -0.000154
691 -0.000144
692 -0.000138
693 -0.000141
694 -0.000146
695 -0.000148
696 -0.000138
697 -0.000147
698 -0.000161
699 -0.000166
700 -0.000165
701 -0.000179
702 -0.000185
703 -0.000189
704 -0.000191
705 -0.000189
706 -0.000188
707 -0.000182
708 -0.000171
709 -0.000163
710 -0.000157
711 -0.000152
712 -0.000140
713 -0.000129
714 -0.000116
715 -0.000117
716 -0.000112
717 -0.000112
718 -0.000104
719 -0.000096
720 -0.000084
721 -0.000076
722 -0.000071
723 -0.000077
724 -0.000070
725 -0.000070
726 -0.000067
727 -0.000073
728 -0.000084
729 -0.000086
730 -0.000082
731 -0.000081
732 -0.000080
733 -0.000067
734 -0.000064
735 -0.000073
736 -0.000073
737 -0.000074
738 -0.000072
739 -0.000071
740 -0.000068
741 -0.000071
742 -0.000066
743 -0.000066
744 -0.000072
745 -0.000077
746 -0.000078
747 -0.000081
748 -0.000087
749 -0.000090
750 -0.000091
751 -0.000096
752 -0.000096
753 -0.000094
754 -0.000085
755 -0.000076
756 -0.000069
757 -0.000056
758 -0.000051
759 -0.000045
760 -0.000035
761 -0.000021
762 -0.000021
763 -0.000021
764 -0.000023
765 -0.000025
766 -0.000035
767 -0.000042
768 -0.000044
769 -0.000049
770 -0.000057
771 -0.000060
772 -0.000072
773 -0.000088
774 -0.000110
775 -0.000132
776 -0.000147
777 -0.000161
778 -0.000175
779 -0.000187
780 -0.000197
781 -0.000205
782 -0.000205
783 -0.000205
784 -0.000203
785 -0.000191
786 -0.000190
787 -0.000188
788 -0.000177
789 -0.000171
790 -0.000171
791 -0.000171
792 -0.000168
793 -0.000169
794 -0.000174
795 -0.000174
796 -0.000168
797 -0.000170
798 -0.000178
799 -0.000182
800 -0.000180
801 -0.000178
802 -0.000180
803 -0.000175
804 -0.000164
805 -0.000150
806 -0.000136
807 -0.000125
808 -0.000113
809 -0.000105
