# i correlation
1 0.002486
2 0.002313
3 0.002173
4 0.002072
5 0.001978
6 0.001896
7 0.001854
8 0.001819
9 0.001783
10 0.001754
11 0.001744
12 0.001715
13 0.001687
14 0.001657
15 0.001627
16 0.001616
17 0.001597
18 0.001572
19 0.001556
20 0.001550
21 0.001547
22 0.001542
23 0.001527
24 0.001516
25 0.001514
26 0.001503
27 0.001501
28 0.001491
29 0.001468
30 0.001443
31 0.001416
32 0.001397
33 0.001382
34 0.001389
35 0.001384
36 0.001370
37 0.001374
38 0.001357
39 0.001336
40 0.001308
41 0.001269
42 0.001246
43 0.001234
44 0.001223
45 0.001220
46 0.001204
47 0.001193
48 0.001168
49 0.001155
50 0.001161
51 0.001149
52 0.001142
53 0.001159
54 0.001178
55 0.001188
56 0.001193
57 0.001201
58 0.001185
59 0.001156
60 0.001120
61 0.001098
62 0.001083
63 0.001059
64 0.001064
65 0.001071
66 0.001068
67 0.001050
68 0.001044
69 0.001049
70 0.001049
71 0.001062
72 0.001093
73 0.001103
74 0.001108
75 0.001113
76 0.001121
77 0.001121
78 0.001112
79 0.001136
80 0.001154
81 0.001155
82 0.001156
83 0.001126
84 0.001109
85 0.001109
86 0.001114
87 0.001137
88 0.001140
89 0.001144
90 0.001148
91 0.001149
92 0.001147
93 0.001144
94 0.001130
95 0.001124
96 0.001131
97 0.001121
98 0.001119
99 0.001111
100 0.001101
101 0.001109
102 0.001098
103 0.001079
104 0.001071
105 0.001040
106 0.001029
107 0.001026
108 0.001028
109 0.001020
110 0.000994
111 0.000989
112 0.001007
113 0.001016
114 0.001026
115 0.001012
116 0.001011
117 0.001004
118 0.000989
119 0.000968
120 0.000960
121 0.000928
122 0.000922
123 0.000922
124 0.000934
125 0.000968
126 0.000991
127 0.000983
128 0.000975
129 0.000969
130 0.000956
131 0.000952
132 0.000935
133 0.000933
134 0.000917
135 0.000905
136 0.000905
137 0.000914
138 0.000904
139 0.000891
140 0.000863
141 0.000856
142 0.000847
143 0.000857
144 0.000876
145 0.000898
146 0.000930
147 0.000937
148 0.000920
149 0.000891
150 0.000875
151 0.000873
152 0.000871
153 0.000855
154 0.000847
155 0.000835
156 0.000815
157 0.000803
158 0.000797
159 0.000821
160 0.000843
161 0.000852
162 0.000838
163 0.000834
164 0.000817
165 0.000798
166 0.000766
167 0.000759
168 0.000766
169 0.000764
170 0.000754
171 0.000771
172 0.000778
173 0.000788
174 0.000764
175 0.000750
176 0.000748
177 0.000731
178 0.000728
179 0.000709
180 0.000701
181 0.000701
182 0.000709
183 0.000720
184 0.000726
185 0.000721
186 0.000724
187 0.000720
188 0.000725
189 0.000724
190 0.000727
191 0.000733
192 0.000733
193 0.000729
194 0.000735
195 0.000733
196 0.000730
197 0.000735
198 0.000747
199 0.000769
200 0.000797
201 0.000825
202 0.000842
203 0.000838
204 0.000843
205 0.000870
206 0.000862
207 0.000854
208 0.000846
209 0.000831
210 0.000817
211 0.000796
212 0.000790
213 0.000787
214 0.000778
215 0.000782
216 0.000809
217 0.000826
218 0.000850
219 0.000855
220 0.000851
221 0.000846
222 0.000820
223 0.000802
224 0.000800
225 0.000825
226 0.000865
227 0.000878
228 0.000877
229 0.000871
230 0.000860
231 0.000831
232 0.000806
233 0.000785
234 0.000759
235 0.000742
236 0.000734
237 0.000730
238 0.000732
239 0.000747
240 0.000754
241 0.000762
242 0.000782
243 0.000802
244 0.000810
245 0.000817
246 0.000815
247 0.000809
248 0.000804
249 0.000775
250 0.000758
251 0.000760
252 0.000755
253 0.000758
254 0.000753
255 0.000764
256 0.000753
257 0.000730
258 0.000706
259 0.000693
260 0.000671
261 0.000634
262 0.000598
263 0.000581
264 0.000574
265 0.000564
266 0.000572
267 0.000569
268 0.000557
269 0.000546
270 0.000543
271 0.000537
272 0.000530
273 0.000532
274 0.000536
275 0.000527
276 0.000531
277 0.000541
278 0.000524
279 0.000520
280 0.000525
281 0.000533
282 0.000534
283 0.000527
284 0.000526
285 0.000525
286 0.000508
287 0.000489
288 0.000473
289 0.000463
290 0.000463
291 0.000472
292 0.000487
293 0.000513
294 0.000528
295 0.000525
296 0.000535
297 0.000539
298 0.000567
299 0.000578
300 0.000586
301 0.000592
302 0.000595
303 0.000586
304 0.000590
305 0.000595
306 0.000607
307 0.000609
308 0.000606
309 0.000589
310 0.000583
311 0.000569
312 0.000561
313 0.000572
314 0.000593
315 0.000610
316 0.000620
317 0.000630
318 0.000628
319 0.000636
320 0.000621
321 0.000617
322 0.000614
323 0.000613
324 0.000603
325 0.000588
326 0.000568
327 0.000560
328 0.000557
329 0.000554
330 0.000550
331 0.000543
332 0.000555
333 0.000567
334 0.000566
335 0.000566
336 0.000548
337 0.000522
338 0.000515
339 0.000500
340 0.000475
341 0.000460
342 0.000445
343 0.000443
344 0.000435
345 0.000435
346 0.000441
347 0.000436
348 0.000423
349 0.000418
350 0.000417
351 0.000430
352 0.000435
353 0.000439
354 0.000434
355 0.000430
356 0.000442
357 0.000451
358 0.000447
359 0.000442
360 0.000430
361 0.000409
362 0.000407
363 0.000413
364 0.000420
365 0.000415
366 0.000403
367 0.000405
368 0.000397
369 0.000401
370 0.000409
371 0.000419
372 0.000441
373 0.000470
374 0.000484
375 0.000485
376 0.000494
377 0.000499
378 0.000510
379 0.000525
380 0.000546
381 0.000551
382 0.000540
383 0.000531
384 0.000527
385 0.000532
386 0.000539
387 0.000533
388 0.000530
389 0.000540
390 0.000554
391 0.000561
392 0.000568
393 0.000573
394 0.000584
395 0.000589
396 0.000582
397 0.000599
398 0.000610
399 0.000635
400 0.000666
401 0.000692
402 0.000712
403 0.000731
404 0.000754
405 0.000758
406 0.000760
407 0.000764
408 0.000758
409 0.000749
410 0.000748
411 0.000752
412 0.000755
413 0.000744
414 0.000750
415 0.000738
416 0.000723
417 0.000711
418 0.000701
419 0.000705
420 0.000705
421 0.000706
422 0.000697
423 0.000685
424 0.000670
425 0.000653
426 0.000651
427 0.000656
428 0.000662
429 0.000671
430 0.000689
431 0.000718
432 0.000728
433 0.000744
434 0.000733
435 0.000723
436 0.000709
437 0.000706
438 0.000695
439 0.000697
440 0.000695
441 0.000691
442 0.000690
443 0.000700
444 0.000727
445 0.000740
446 0.000745
447 0.000752
448 0.000758
449 0.000757
450 0.000742
451 0.000736
452 0.000731
453 0.000717
454 0.000698
455 0.000687
456 0.000672
457 0.000663
458 0.000665
459 0.000673
460 0.000692
461 0.000707
462 0.000701
463 0.000688
464 0.000676
465 0.000667
466 0.000661
467 0.000652
468 0.000644
469 0.000643
470 0.000630
471 0.000631
472 0.000626
473 0.000616
474 0.000612
475 0.000605
476 0.000609
477 0.000596
478 0.000570
479 0.000548
480 0.000524
481 0.000507
482 0.000503
483 0.000505
484 0.000514
485 0.000503
486 0.000499
487 0.000491
488 0.000476
489 0.000449
490 0.000429
491 0.000412
492 0.000393
493 0.000394
494 0.000402
495 0.000411
496 0.000419
497 0.000419
498 0.000426
499 0.000433
500 0.000432
501 0.000440
502 0.000442
503 0.000443
504 0.000445
505 0.000448
506 0.000466
507 0.000466
508 0.000458
509 0.000452
510 0.000456
511 0.000455
512 0.000452
513 0.000446
514 0.000423
515 0.000415
516 0.000415
517 0.000424
518 0.000432
519 0.000451
520 0.000471
521 0.000489
522 0.000498
523 0.000516
524 0.000542
525 0.000554
526 0.000557
527 0.000557
528 0.000549
529 0.000540
530 0.000532
531 0.000534
532 0.000538
533 0.000548
534 0.000561
535 0.000569
536 0.000567
537 0.000566
538 0.000568
539 0.000571
540 0.000590
541 0.000609
542 0.000601
543 0.000592
544 0.000595
545 0.000610
546 0.000618
547 0.000620
548 0.000639
549 0.000652
550 0.000657
551 0.000660
552 0.000661
553 0.000672
554 0.000643
555 0.000621
556 0.000608
557 0.000611
558 0.000618
559 0.000641
560 0.000660
561 0.000672
562 0.000673
563 0.000671
564 0.000675
565 0.000674
566 0.000660
567 0.000636
568 0.000622
569 0.000603
570 0.000587
571 0.000568
572 0.000557
573 0.000551
574 0.000542
575 0.000544
576 0.000544
577 0.000553
578 0.000559
579 0.000563
580 0.000572
581 0.000581
582 0.000581
583 0.000587
584 0.000576
585 0.000572
586 0.000556
587 0.000539
588 0.000521
589 0.000507
590 0.000505
591 0.000495
592 0.000504
593 0.000498
594 0.000493
595 0.000488
596 0.000490
597 0.000492
598 0.000502
599 0.000510
600 0.000519
601 0.000511
602 0.000517
603 0.000531
604 0.000540
605 0.000547
606 0.000560
607 0.000567
608 0.000571
609 0.000569
610 0.000571
611 0.000571
612 0.000571
613 0.000572
614 0.000568
615 0.000575
616 0.000574
617 0.000584
618 0.000588
619 0.000591
620 0.000601
621 0.000608
622 0.000616
623 0.000611
624 0.000594
625 0.000583
626 0.000575
627 0.000577
628 0.000568
629 0.000563
630 0.000567
631 0.000581
632 0.000594
633 0.000604
634 0.000599
635 0.000601
636 0.000598
637 0.000598
638 0.000599
639 0.000602
640 0.000599
641 0.000593
642 0.000594
643 0.000599
644 0.000597
645 0.000598
646 0.000605
647 0.000621
648 0.000631
649 0.000643
650 0.000644
651 0.000642
652 0.000649
653 0.000651
654 0.000649
655 0.000638
656 0.000636
657 0.000643
658 0.000649
659 0.000651
660 0.000657
661 0.000653
662 0.000650
663 0.000636
664 0.000617
665 0.000612
666 0.000612
667 0.000621
668 0.000611
669 0.000602
670 0.000592
671 0.000582
672 0.000584
673 0.000582
674 0.000579
675 0.000568
676 0.000563
677 0.000563
678 0.000560
679 0.000561
680 0.000558
681 0.000566
682 0.000560
683 0.000549
684 0.000547
685 0.000554
686 0.000554
687 0.000551
688 0.000558
689 0.000556
690 0.000545
691 0.000531
692 0.000523
693 0.000518
694 0.000517
695 0.000510
696 0.000505
697 0.000512
698 0.000512
699 0.000518
700 0.000517
701 0.000510
702 0.000501
703 0.000497
704 0.000497
705 0.000489
706 0.000475
707 0.000466
708 0.000456
709 0.000444
710 0.000436
711 0.000431
712 0.000435
713 0.000429
714 0.000423
715 0.000415
716 0.000419
717 0.000422
718 0.000422
719 0.000417
720 0.000416
721 0.000413
722 0.000420
723 0.000418
724 0.000417
725 0.000415
726 0.000416
727 0.000414
728 0.000416
729 0.000421
730 0.000415
731 0.000410
732 0.000398
733 0.000391
734 0.000379
735 0.000365
736 0.000353
737 0.000341
738 0.000332
739 0.000331
740 0.000326
741 0.000318
742 0.000316
743 0.000314
744 0.000308
745 0.000301
746 0.000293
747 0.000286
748 0.000273
749 0.000262
750 0.000261
751 0.000250
752 0.000236
753 0.000235
754 0.000245
755 0.000254
756 0.000257
757 0.000259
758 0.000265
759 0.000268
760 0.000264
761 0.000264
762 0.000260
763 0.000257
764 0.000258
765 0.000262
766 0.000267
767 0.000272
768 0.000278
769 0.000284
770 0.000291
771 0.000299
772 0.000295
773 0.000284
774 0.000276
775 0.000272
776 0.000277
777 0.000279
778 0.000287
779 0.000297
780 0.000297
781 0.000290
782 0.000285
783 0.000279
784 0.000268
785 0.000251
786 0.000245
787 0.000236
788 0.000227
789 0.000223
790 0.000219
791 0.000208
792 0.000206
793 0.000207
794 0.000209
795 0.000203
796 0.000194
797 0.000186
798 0.000180
799 0.000176
800 0.000179
801 0.000180
802 0.000173
803 0.000170
804 0.000174
805 0.000176
806 0.000174
807 0.000173
808 0.000181
809 0.000181
