# i correlation
1 0.002513
2 0.002318
3 0.002162
4 0.002023
5 0.001909
6 0.001806
7 0.001733
8 0.001658
9 0.001591
10 0.001526
11 0.001469
12 0.001403
13 0.001342
14 0.001293
15 0.001248
16 0.001218
17 0.001200
18 0.001173
19 0.001129
20 0.001094
21 0.001064
22 0.001016
23 0.000976
24 0.000938
25 0.000927
26 0.000926
27 0.000954
28 0.000979
29 0.001022
30 0.001062
31 0.001100
32 0.001132
33 0.001163
34 0.001187
35 0.001191
36 0.001203
37 0.001212
38 0.001212
39 0.001221
40 0.001222
41 0.001238
42 0.001233
43 0.001215
44 0.001181
45 0.001164
46 0.001155
47 0.001138
48 0.001118
49 0.001092
50 0.001071
51 0.001046
52 0.001015
53 0.000997
54 0.000997
55 0.000990
56 0.000985
57 0.000989
58 0.000996
59 0.000985
60 0.000994
61 0.001007
62 0.001020
63 0.001041
64 0.001072
65 0.001094
66 0.001084
67 0.001063
68 0.001043
69 0.001020
70 0.001007
71 0.000993
72 0.001001
73 0.001019
74 0.001039
75 0.001071
76 0.001093
77 0.001106
78 0.001126
79 0.001110
80 0.001096
81 0.001090
82 0.001072
83 0.001033
84 0.000989
85 0.000965
86 0.000943
87 0.000922
88 0.000899
89 0.000871
90 0.000854
91 0.000837
92 0.000841
93 0.000855
94 0.000856
95 0.000871
96 0.000892
97 0.000898
98 0.000882
99 0.000883
100 0.000877
101 0.000895
102 0.000896
103 0.000893
104 0.000888
105 0.000865
106 0.000848
107 0.000830
108 0.000813
109 0.000784
110 0.000769
111 0.000744
112 0.000728
113 0.000724
114 0.000715
115 0.000703
116 0.000692
117 0.000675
118 0.000635
119 0.000610
120 0.000592
121 0.000587
122 0.000596
123 0.000604
124 0.000603
125 0.000583
126 0.000575
127 0.000560
128 0.000548
129 0.000538
130 0.000533
131 0.000532
132 0.000538
133 0.000547
134 0.000579
135 0.000625
136 0.000642
137 0.000667
138 0.000701
139 0.000722
140 0.000734
141 0.000747
142 0.000767
143 0.000796
144 0.000835
145 0.000850
146 0.000872
147 0.000885
148 0.000866
149 0.000851
150 0.000841
151 0.000846
152 0.000833
153 0.000830
154 0.000840
155 0.000849
156 0.000860
157 0.000869
158 0.000857
159 0.000822
160 0.000792
161 0.000760
162 0.000723
163 0.000678
164 0.000648
165 0.000633
166 0.000593
167 0.000582
168 0.000583
169 0.000581
170 0.000573
171 0.000560
172 0.000543
173 0.000524
174 0.000494
175 0.000480
176 0.000482
177 0.000501
178 0.000516
179 0.000530
180 0.000539
181 0.000532
182 0.000536
183 0.000536
184 0.000535
185 0.000517
186 0.000504
187 0.000492
188 0.000493
189 0.000508
190 0.000512
191 0.000517
192 0.000521
193 0.000521
194 0.000528
195 0.000521
196 0.000516
197 0.000531
198 0.000561
199 0.000579
200 0.000616
201 0.000646
202 0.000670
203 0.000675
204 0.000666
205 0.000666
206 0.000669
207 0.000680
208 0.000675
209 0.000685
210 0.000683
211 0.000682
212 0.000691
213 0.000691
214 0.000689
215 0.000684
216 0.000691
217 0.000686
218 0.000685
219 0.000686
220 0.000679
221 0.000678
222 0.000677
223 0.000689
224 0.000681
225 0.000681
226 0.000666
227 0.000654
228 0.000638
229 0.000632
230 0.000614
231 0.000617
232 0.000628
233 0.000633
234 0.000653
235 0.000664
236 0.000683
237 0.000673
238 0.000649
239 0.000634
240 0.000624
241 0.000609
242 0.000604
243 0.000613
244 0.000607
245 0.000613
246 0.000628
247 0.000628
248 0.000615
249 0.000600
250 0.000590
251 0.000580
252 0.000578
253 0.000568
254 0.000573
255 0.000572
256 0.000572
257 0.000570
258 0.000575
259 0.000580
260 0.000583
261 0.000587
262 0.000592
263 0.000611
264 0.000621
265 0.000624
266 0.000637
267 0.000653
268 0.000654
269 0.000643
270 0.000636
271 0.000613
272 0.000596
273 0.000583
274 0.000572
275 0.000579
276 0.000590
277 0.000605
278 0.000612
279 0.000632
280 0.000637
281 0.000652
282 0.000647
283 0.000631
284 0.000635
285 0.000639
286 0.000631
287 0.000622
288 0.000596
289 0.000577
290 0.000552
291 0.000536
292 0.000533
293 0.000548
294 0.000564
295 0.000567
296 0.000581
297 0.000586
298 0.000588
299 0.000605
300 0.000624
301 0.000650
302 0.000658
303 0.000665
304 0.000680
305 0.000672
306 0.000668
307 0.000656
308 0.000648
309 0.000652
310 0.000646
311 0.000640
312 0.000627
313 0.000608
314 0.000595
315 0.000585
316 0.000580
317 0.000570
318 0.000562
319 0.000545
320 0.000519
321 0.000505
322 0.000499
323 0.000482
324 0.000478
325 0.000455
326 0.000438
327 0.000429
328 0.000419
329 0.000409
330 0.000411
331 0.000403
332 0.000389
333 0.000397
334 0.000398
335 0.000416
336 0.000428
337 0.000442
338 0.000466
339 0.000495
340 0.000536
341 0.000564
342 0.000591
343 0.000577
344 0.000570
345 0.000568
346 0.000573
347 0.000579
348 0.000579
349 0.000588
350 0.000588
351 0.000597
352 0.000589
353 0.000577
354 0.000571
355 0.000569
356 0.000575
357 0.000589
358 0.000603
359 0.000617
360 0.000630
361 0.000623
362 0.000606
363 0.000596
364 0.000581
365 0.000557
366 0.000540
367 0.000540
368 0.000527
369 0.000531
370 0.000528
371 0.000531
372 0.000526
373 0.000531
374 0.000551
375 0.000558
376 0.000569
377 0.000588
378 0.000607
379 0.000626
380 0.000633
381 0.000632
382 0.000628
383 0.000625
384 0.000612
385 0.000600
386 0.000574
387 0.000534
388 0.000497
389 0.000467
390 0.000445
391 0.000435
392 0.000437
393 0.000431
394 0.000431
395 0.000414
396 0.000394
397 0.000375
398 0.000351
399 0.000324
400 0.000307
401 0.000284
402 0.000272
403 0.000255
404 0.000257
405 0.000268
406 0.000283
407 0.000297
408 0.000300
409 0.000288
410 0.000283
411 0.000281
412 0.000279
413 0.000277
414 0.000272
415 0.000267
416 0.000270
417 0.000264
418 0.000248
419 0.000248
420 0.000238
421 0.000230
422 0.000228
423 0.000230
424 0.000239
425 0.000250
426 0.000258
427 0.000254
428 0.000243
429 0.000216
430 0.000189
431 0.000173
432 0.000165
433 0.000157
434 0.000154
435 0.000164
436 0.000181
437 0.000186
438 0.000195
439 0.000215
440 0.000227
441 0.000234
442 0.000229
443 0.000252
444 0.000268
445 0.000270
446 0.000272
447 0.000278
448 0.000284
449 0.000284
450 0.000273
451 0.000252
452 0.000244
453 0.000232
454 0.000238
455 0.000239
456 0.000244
457 0.000257
458 0.000273
459 0.000279
460 0.000281
461 0.000289
462 0.000287
463 0.000278
464 0.000268
465 0.000263
466 0.000247
467 0.000216
468 0.000197
469 0.000175
470 0.000155
471 0.000130
472 0.000112
473 0.000104
474 0.000099
475 0.000093
476 0.000088
477 0.000106
478 0.000114
479 0.000140
480 0.000158
481 0.000159
482 0.000150
483 0.000135
484 0.000118
485 0.000101
486 0.000118
487 0.000129
488 0.000130
489 0.000122
490 0.000122
491 0.000115
492 0.000104
493 0.000107
494 0.000116
495 0.000128
496 0.000124
497 0.000118
498 0.000118
499 0.000109
500 0.000106
501 0.000106
502 0.000103
503 0.000113
504 0.000115
505 0.000105
506 0.000103
507 0.000102
508 0.000109
509 0.000122
510 0.000126
511 0.000133
512 0.000140
513 0.000147
514 0.000148
515 0.000148
516 0.000156
517 0.000160
518 0.000160
519 0.000154
520 0.000160
521 0.000172
522 0.000182
523 0.000185
524 0.000190
525 0.000205
526 0.000214
527 0.000213
528 0.000225
529 0.000232
530 0.000237
531 0.000230
532 0.000211
533 0.000194
534 0.000172
535 0.000156
536 0.000166
537 0.000163
538 0.000152
539 0.000142
540 0.000151
541 0.000149
542 0.000150
543 0.000163
544 0.000172
545 0.000168
546 0.000153
547 0.000143
548 0.000126
549 0.000114
550 0.000107
551 0.000117
552 0.000122
553 0.000130
554 0.000137
555 0.000139
556 0.000139
557 0.000163
558 0.000181
559 0.000184
560 0.000181
561 0.000192
562 0.000211
563 0.000223
564 0.000229
565 0.000236
566 0.000233
567 0.000232
568 0.000224
569 0.000210
570 0.000192
571 0.000177
572 0.000152
573 0.000120
574 0.000105
575 0.000089
576 0.000088
577 0.000083
578 0.000085
579 0.000077
580 0.000066
581 0.000067
582 0.000077
583 0.000099
584 0.000111
585 0.000118
586 0.000137
587 0.000157
588 0.000175
589 0.000180
590 0.000189
591 0.000192
592 0.000200
593 0.000210
594 0.000224
595 0.000237
596 0.000254
597 0.000266
598 0.000272
599 0.000278
600 0.000288
601 0.000301
602 0.000325
603 0.000362
604 0.000391
605 0.000414
606 0.000425
607 0.000416
608 0.000413
609 0.000402
610 0.000384
611 0.000360
612 0.000341
613 0.000333
614 0.000336
615 0.000343
616 0.000345
617 0.000347
618 0.000342
619 0.000345
620 0.000344
621 0.000336
622 0.000334
623 0.000324
624 0.000305
625 0.000292
626 0.000283
627 0.000274
628 0.000252
629 0.000239
630 0.000225
631 0.000213
632 0.000202
633 0.000201
634 0.000191
635 0.000182
636 0.000178
637 0.000179
638 0.000180
639 0.000177
640 0.000181
641 0.000191
642 0.000204
643 0.000210
644 0.000225
645 0.000232
646 0.000243
647 0.000258
648 0.000268
649 0.000271
650 0.000279
651 0.000284
652 0.000295
653 0.000295
654 0.000290
655 0.000281
656 0.000274
657 0.000264
658 0.000261
659 0.000269
660 0.000289
661 0.000302
662 0.000300
663 0.000312
664 0.000325
665 0.000315
666 0.000298
667 0.000274
668 0.000266
669 0.000260
670 0.000263
671 0.000266
672 0.000258
673 0.000242
674 0.000221
675 0.000205
676 0.000174
677 0.000154
678 0.000148
679 0.000169
680 0.000192
681 0.000204
682 0.000206
683 0.000208
684 0.000207
685 0.000193
686 0.000173
687 0.000161
688 0.000152
689 0.000144
690 0.000143
691 0.000151
692 0.000155
693 0.000161
694 0.000163
695 0.000170
696 0.000173
697 0.000174
698 0.000184
699 0.000188
700 0.000200
701 0.000216
702 0.000218
703 0.000220
704 0.000210
705 0.000201
706 0.000196
707 0.000181
708 0.000166
709 0.000170
710 0.000185
711 0.000198
712 0.000204
713 0.000205
714 0.000195
715 0.000193
716 0.000196
717 0.000187
718 0.000177
719 0.000171
720 0.000165
721 0.000150
722 0.000144
723 0.000132
724 0.000118
725 0.000104
726 0.000093
727 0.000084
728 0.000079
729 0.000069
730 0.000066
731 0.000054
732 0.000040
733 0.000034
734 0.000029
735 0.000022
736 0.000008
737 0.000013
738 0.000014
739 0.000010
740 0.000011
741 0.000015
742 0.000016
743 0.000026
744 0.000042
745 0.000061
746 0.000081
747 0.000094
748 0.000105
749 0.000119
750 0.000114
751 0.000109
752 0.000104
753 0.000099
754 0.000090
755 0.000080
756 0.000074
757 0.000075
758 0.000077
759 0.000082
760 0.000096
761 0.000113
762 0.000119
763 0.000119
764 0.000120
765 0.000120
766 0.000127
767 0.000131
768 0.000122
769 0.000097
770 0.000073
771 0.000061
772 0.000040
773 0.000022
774 0.000012
775 0.000003
776 0.000006
777 -0.000001
778 -0.000020
779 -0.000043
780 -0.000064
781 -0.000082
782 -0.000099
783 -0.000110
784 -0.000117
785 -0.000124
786 -0.000128
787 -0.000134
788 -0.000140
789 -0.000147
790 -0.000156
791 -0.000166
792 -0.000173
793 -0.000178
794 -0.000174
795 -0.000164
796 -0.000154
797 -0.000144
798 -0.000139
799 -0.000128
800 -0.000124
801 -0.000124
802 -0.000123
803 -0.000111
804 -0.000092
805 -0.000067
806 -0.000046
807 -0.000024
808 -0.000018
809 -0.000017
