# i correlation
1 0.002350
2 0.002187
3 0.002048
4 0.001915
5 0.001809
6 0.001706
7 0.001624
8 0.001556
9 0.001505
10 0.001476
11 0.001451
12 0.001418
13 0.001384
14 0.001343
15 0.001331
16 0.001305
17 0.001278
18 0.001236
19 0.001197
20 0.001165
21 0.001143
22 0.001137
23 0.001121
24 0.001110
25 0.001117
26 0.001121
27 0.001128
28 0.001121
29 0.001099
30 0.001070
31 0.001041
32 0.001013
33 0.001003
34 0.000991
35 0.000977
36 0.000975
37 0.000965
38 0.000934
39 0.000908
40 0.000869
41 0.000845
42 0.000823
43 0.000821
44 0.000820
45 0.000802
46 0.000796
47 0.000797
48 0.000799
49 0.000798
50 0.000797
51 0.000812
52 0.000817
53 0.000824
54 0.000828
55 0.000825
56 0.000819
57 0.000815
58 0.000797
59 0.000781
60 0.000787
61 0.000796
62 0.000808
63 0.000812
64 0.000820
65 0.000831
66 0.000848
67 0.000858
68 0.000860
69 0.000870
70 0.000883
71 0.000883
72 0.000891
73 0.000899
74 0.000902
75 0.000884
76 0.000881
77 0.000884
78 0.000853
79 0.000838
80 0.000827
81 0.000825
82 0.000825
83 0.000820
84 0.000832
85 0.000840
86 0.000842
87 0.000865
88 0.000889
89 0.000916
90 0.000918
91 0.000898
92 0.000887
93 0.000884
94 0.000891
95 0.000891
96 0.000901
97 0.000885
98 0.000862
99 0.000852
100 0.000853
101 0.000853
102 0.000839
103 0.000821
104 0.000814
105 0.000800
106 0.000793
107 0.000776
108 0.000755
109 0.000725
110 0.000689
111 0.000666
112 0.000645
113 0.000620
114 0.000590
115 0.000570
116 0.000559
117 0.000564
118 0.000566
119 0.000567
120 0.000560
121 0.000571
122 0.000596
123 0.000624
124 0.000620
125 0.000620
126 0.000609
127 0.000600
128 0.000598
129 0.000576
130 0.000569
131 0.000576
132 0.000582
133 0.000585
134 0.000591
135 0.000596
136 0.000598
137 0.000614
138 0.000631
139 0.000655
140 0.000675
141 0.000681
142 0.000662
143 0.000652
144 0.000635
145 0.000608
146 0.000592
147 0.000569
148 0.000558
149 0.000555
150 0.000561
151 0.000556
152 0.000547
153 0.000563
154 0.000561
155 0.000555
156 0.000560
157 0.000559
158 0.000578
159 0.000594
160 0.000612
161 0.000630
162 0.000649
163 0.000656
164 0.000664
165 0.000667
166 0.000684
167 0.000680
168 0.000693
169 0.000702
170 0.000709
171 0.000709
172 0.000697
173 0.000697
174 0.000718
175 0.000736
176 0.000745
177 0.000742
178 0.000732
179 0.000735
180 0.000735
181 0.000722
182 0.000713
183 0.000710
184 0.000694
185 0.000681
186 0.000665
187 0.000651
188 0.000638
189 0.000632
190 0.000635
191 0.000637
192 0.000648
193 0.000657
194 0.000644
195 0.000642
196 0.000639
197 0.000651
198 0.000650
199 0.000627
200 0.000592
201 0.000575
202 0.000569
203 0.000559
204 0.000556
205 0.000550
206 0.000540
207 0.000551
208 0.000557
209 0.000557
210 0.000547
211 0.000530
212 0.000528
213 0.000513
214 0.000485
215 0.000447
216 0.000421
217 0.000408
218 0.000389
219 0.000387
220 0.000399
221 0.000395
222 0.000384
223 0.000395
224 0.000407
225 0.000410
226 0.000417
227 0.000411
228 0.000410
229 0.000409
230 0.000411
231 0.000412
232 0.000407
233 0.000400
234 0.000407
235 0.000423
236 0.000425
237 0.000435
238 0.000434
239 0.000443
240 0.000448
241 0.000447
242 0.000445
243 0.000433
244 0.000424
245 0.000441
246 0.000465
247 0.000479
248 0.000491
249 0.000492
250 0.000491
251 0.000484
252 0.000475
253 0.000475
254 0.000469
255 0.000471
256 0.000482
257 0.000493
258 0.000513
259 0.000548
260 0.000569
261 0.000563
262 0.000570
263 0.000577
264 0.000590
265 0.000596
266 0.000584
267 0.000579
268 0.000568
269 0.000562
270 0.000565
271 0.000575
272 0.000593
273 0.000585
274 0.000606
275 0.000625
276 0.000632
277 0.000625
278 0.000614
279 0.000597
280 0.000578
281 0.000585
282 0.000581
283 0.000574
284 0.000562
285 0.000550
286 0.000553
287 0.000562
288 0.000547
289 0.000539
290 0.000536
291 0.000547
292 0.000562
293 0.000580
294 0.000589
295 0.000566
296 0.000566
297 0.000583
298 0.000602
299 0.000626
300 0.000631
301 0.000634
302 0.000633
303 0.000616
304 0.000585
305 0.000546
306 0.000508
307 0.000479
308 0.000457
309 0.000443
310 0.000434
311 0.000410
312 0.000391
313 0.000384
314 0.000384
315 0.000392
316 0.000409
317 0.000393
318 0.000378
319 0.000368
320 0.000374
321 0.000376
322 0.000378
323 0.000373
324 0.000366
325 0.000365
326 0.000355
327 0.000353
328 0.000350
329 0.000347
330 0.000345
331 0.000331
332 0.000325
333 0.000329
334 0.000329
335 0.000345
336 0.000358
337 0.000361
338 0.000356
339 0.000338
340 0.000323
341 0.000313
342 0.000302
343 0.000307
344 0.000323
345 0.000336
346 0.000348
347 0.000373
348 0.000405
349 0.000429
350 0.000431
351 0.000444
352 0.000456
353 0.000474
354 0.000480
355 0.000478
356 0.000470
357 0.000475
358 0.000478
359 0.000476
360 0.000476
361 0.000467
362 0.000459
363 0.000471
364 0.000479
365 0.000494
366 0.000504
367 0.000510
368 0.000513
369 0.000498
370 0.000492
371 0.000490
372 0.000490
373 0.000496
374 0.000486
375 0.000466
376 0.000461
377 0.000445
378 0.000435
379 0.000432
380 0.000435
381 0.000433
382 0.000435
383 0.000439
384 0.000425
385 0.000415
386 0.000410
387 0.000427
388 0.000450
389 0.000456
390 0.000457
391 0.000451
392 0.000435
393 0.000424
394 0.000406
395 0.000384
396 0.000360
397 0.000339
398 0.000322
399 0.000323
400 0.000327
401 0.000316
402 0.000309
403 0.000313
404 0.000328
405 0.000342
406 0.000347
407 0.000334
408 0.000310
409 0.000308
410 0.000305
411 0.000291
412 0.000279
413 0.000259
414 0.000241
415 0.000239
416 0.000240
417 0.000235
418 0.000230
419 0.000225
420 0.000224
421 0.000228
422 0.000223
423 0.000199
424 0.000200
425 0.000208
426 0.000216
427 0.000228
428 0.000225
429 0.000225
430 0.000226
431 0.000224
432 0.000226
433 0.000225
434 0.000227
435 0.000228
436 0.000237
437 0.000244
438 0.000257
439 0.000279
440 0.000304
441 0.000326
442 0.000348
443 0.000364
444 0.000380
445 0.000377
446 0.000362
447 0.000362
448 0.000362
449 0.000365
450 0.000354
451 0.000341
452 0.000337
453 0.000337
454 0.000325
455 0.000329
456 0.000336
457 0.000344
458 0.000339
459 0.000328
460 0.000319
461 0.000320
462 0.000316
463 0.000303
464 0.000287
465 0.000271
466 0.000260
467 0.000254
468 0.000252
469 0.000257
470 0.000255
471 0.000240
472 0.000235
473 0.000227
474 0.000222
475 0.000206
476 0.000216
477 0.000217
478 0.000218
479 0.000225
480 0.000224
481 0.000232
482 0.000231
483 0.000237
484 0.000252
485 0.000256
486 0.000259
487 0.000251
488 0.000236
489 0.000221
490 0.000189
491 0.000161
492 0.000130
493 0.000099
494 0.000086
495 0.000089
496 0.000097
497 0.000102
498 0.000111
499 0.000121
500 0.000114
501 0.000101
502 0.000087
503 0.000068
504 0.000055
505 0.000043
506 0.000058
507 0.000073
508 0.000081
509 0.000099
510 0.000123
511 0.000157
512 0.000177
513 0.000196
514 0.000212
515 0.000216
516 0.000206
517 0.000202
518 0.000204
519 0.000196
520 0.000196
521 0.000195
522 0.000203
523 0.000217
524 0.000224
525 0.000224
526 0.000228
527 0.000227
528 0.000234
529 0.000242
530 0.000241
531 0.000233
532 0.000237
533 0.000246
534 0.000250
535 0.000246
536 0.000243
537 0.000244
538 0.000245
539 0.000253
540 0.000253
541 0.000256
542 0.000262
543 0.000268
544 0.000278
545 0.000284
546 0.000298
547 0.000307
548 0.000316
549 0.000327
550 0.000350
551 0.000365
552 0.000365
553 0.000370
554 0.000366
555 0.000366
556 0.000368
557 0.000369
558 0.000371
559 0.000367
560 0.000355
561 0.000350
562 0.000343
563 0.000330
564 0.000309
565 0.000294
566 0.000286
567 0.000271
568 0.000270
569 0.000274
570 0.000277
571 0.000288
572 0.000292
573 0.000306
574 0.000311
575 0.000321
576 0.000318
577 0.000303
578 0.000287
579 0.000266
580 0.000261
581 0.000256
582 0.000244
583 0.000239
584 0.000240
585 0.000234
586 0.000227
587 0.000213
588 0.000198
589 0.000159
590 0.000130
591 0.000107
592 0.000095
593 0.000078
594 0.000058
595 0.000046
596 0.000036
597 0.000021
598 0.000010
599 0.000007
600 0.000010
601 0.000012
602 0.000015
603 0.000026
604 0.000032
605 0.000029
606 0.000030
607 0.000037
608 0.000048
609 0.000053
610 0.000067
611 0.000080
612 0.000090
613 0.000080
614 0.000067
615 0.000057
616 0.000048
617 0.000045
618 0.000045
619 0.000062
620 0.000078
621 0.000087
622 0.000103
623 0.000113
624 0.000115
625 0.000117
626 0.000106
627 0.000101
628 0.000095
629 0.000091
630 0.000080
631 0.000064
632 0.000057
633 0.000044
634 0.000035
635 0.000028
636 0.000031
637 0.000037
638 0.000050
639 0.000063
640 0.000069
641 0.000069
642 0.000066
643 0.000055
644 0.000047
645 0.000053
646 0.000060
647 0.000080
648 0.000099
649 0.000112
650 0.000120
651 0.000127
652 0.000135
653 0.000133
654 0.000125
655 0.000122
656 0.000118
657 0.000113
658 0.000110
659 0.000103
660 0.000093
661 0.000075
662 0.000062
663 0.000053
664 0.000051
665 0.000055
666 0.000047
667 0.000029
668 0.000016
669 0.000007
670 -0.000009
671 -0.000026
672 -0.000037
673 -0.000032
674 -0.000030
675 -0.000022
676 -0.000014
677 -0.000015
678 -0.000015
679 -0.000026
680 -0.000025
681 -0.000017
682 -0.000009
683 -0.000014
684 -0.000025
685 -0.000035
686 -0.000038
687 -0.000040
688 -0.000039
689 -0.000040
690 -0.000043
691 -0.000051
692 -0.000055
693 -0.000058
694 -0.000058
695 -0.000069
696 -0.000073
697 -0.000086
698 -0.000102
699 -0.000118
700 -0.000132
701 -0.000141
702 -0.000143
703 -0.000137
704 -0.000132
705 -0.000126
706 -0.000112
707 -0.000099
708 -0.000088
709 -0.000072
710 -0.000067
711 -0.000058
712 -0.000054
713 -0.000050
714 -0.000053
715 -0.000054
716 -0.000044
717 -0.000042
718 -0.000034
719 -0.000017
720 -0.000003
721 0.000015
722 0.000028
723 0.000040
724 0.000045
725 0.000044
726 0.000048
727 0.000043
728 0.000034
729 0.000030
730 0.000025
731 0.000031
732 0.000029
733 0.000031
734 0.000033
735 0.000039
736 0.000052
737 0.000064
738 0.000069
739 0.000073
740 0.000076
741 0.000087
742 0.000097
743 0.000107
744 0.000117
745 0.000125
746 0.000138
747 0.000143
748 0.000161
749 0.000175
750 0.000184
751 0.000184
752 0.000181
753 0.000182
754 0.000184
755 0.000180
756 0.000176
757 0.000167
758 0.000158
759 0.000157
760 0.000159
761 0.000152
762 0.000138
763 0.000131
764 0.000121
765 0.000108
766 0.000096
767 0.000073
768 0.000052
769 0.000033
770 0.000024
771 0.000010
772 -0.000004
773 -0.000016
774 -0.000021
775 -0.000027
776 -0.000035
777 -0.000042
778 -0.000048
779 -0.000055
780 -0.000063
781 -0.000074
782 -0.000085
783 -0.000081
784 -0.000079
785 -0.000070
786 -0.000064
787 -0.000066
788 -0.000067
789 -0.000072
790 -0.000075
791 -0.000085
792 -0.000088
793 -0.000093
794 -0.000094
795 -0.000095
796 -0.000089
797 -0.000080
798 -0.000072
799 -0.000066
800 -0.000058
801 -0.000048
802 -0.000041
803 -0.000030
804 -0.000018
805 -0.000008
806 -0.000007
807 -0.000007
808 -0.000005
809 0.000004
