# i correlation
1 0.002347
2 0.002167
3 0.002027
4 0.001903
5 0.001797
6 0.001712
7 0.001638
8 0.001570
9 0.001488
10 0.001427
11 0.001385
12 0.001345
13 0.001307
14 0.001284
15 0.001254
16 0.001242
17 0.001219
18 0.001198
19 0.001197
20 0.001190
21 0.001184
22 0.001178
23 0.001166
24 0.001148
25 0.001109
26 0.001087
27 0.001070
28 0.001059
29 0.001048
30 0.001047
31 0.001034
32 0.001014
33 0.000981
34 0.000971
35 0.000987
36 0.000989
37 0.000972
38 0.000988
39 0.001011
40 0.001042
41 0.001059
42 0.001083
43 0.001085
44 0.001083
45 0.001072
46 0.001064
47 0.001043
48 0.001015
49 0.000990
50 0.000974
51 0.000942
52 0.000909
53 0.000877
54 0.000855
55 0.000831
56 0.000826
57 0.000837
58 0.000855
59 0.000874
60 0.000863
61 0.000858
62 0.000841
63 0.000830
64 0.000803
65 0.000772
66 0.000760
67 0.000770
68 0.000752
69 0.000736
70 0.000735
71 0.000731
72 0.000707
73 0.000717
74 0.000726
75 0.000746
76 0.000764
77 0.000782
78 0.000803
79 0.000798
80 0.000823
81 0.000856
82 0.000894
83 0.000929
84 0.000938
85 0.000936
86 0.000956
87 0.000982
88 0.001011
89 0.001031
90 0.001057
91 0.001069
92 0.001083
93 0.001098
94 0.001105
95 0.001106
96 0.001102
97 0.001087
98 0.001064
99 0.001041
100 0.001008
101 0.000988
102 0.000976
103 0.000966
104 0.000958
105 0.000956
106 0.000977
107 0.000990
108 0.000991
109 0.000986
110 0.000974
111 0.000963
112 0.000951
113 0.000946
114 0.000924
115 0.000890
116 0.000867
117 0.000864
118 0.000868
119 0.000867
120 0.000861
121 0.000852
122 0.000841
123 0.000849
124 0.000872
125 0.000882
126 0.000897
127 0.000921
128 0.000941
129 0.000937
130 0.000913
131 0.000899
132 0.000903
133 0.000909
134 0.000924
135 0.000934
136 0.000937
137 0.000931
138 0.000921
139 0.000911
140 0.000913
141 0.000916
142 0.000911
143 0.000896
144 0.000888
145 0.000849
146 0.000809
147 0.000777
148 0.000748
149 0.000725
150 0.000693
151 0.000679
152 0.000657
153 0.000651
154 0.000638
155 0.000633
156 0.000625
157 0.000627
158 0.000636
159 0.000637
160 0.000630
161 0.000623
162 0.000616
163 0.000612
164 0.000608
165 0.000601
166 0.000605
167 0.000609
168 0.000629
169 0.000659
170 0.000670
171 0.000682
172 0.000661
173 0.000642
174 0.000637
175 0.000623
176 0.000609
177 0.000596
178 0.000586
179 0.000582
180 0.000600
181 0.000617
182 0.000654
183 0.000677
184 0.000709
185 0.000731
186 0.000747
187 0.000779
188 0.000794
189 0.000803
190 0.000820
191 0.000830
192 0.000823
193 0.000835
194 0.000855
195 0.000869
196 0.000854
197 0.000851
198 0.000869
199 0.000884
200 0.000887
201 0.000907
202 0.000924
203 0.000948
204 0.000960
205 0.000954
206 0.000943
207 0.000932
208 0.000917
209 0.000915
210 0.000930
211 0.000953
212 0.000964
213 0.000950
214 0.000936
215 0.000920
216 0.000918
217 0.000915
218 0.000897
219 0.000905
220 0.000916
221 0.000913
222 0.000914
223 0.000916
224 0.000908
225 0.000909
226 0.000916
227 0.000910
228 0.000908
229 0.000904
230 0.000920
231 0.000926
232 0.000926
233 0.000912
234 0.000893
235 0.000880
236 0.000850
237 0.000825
238 0.000805
239 0.000770
240 0.000737
241 0.000726
242 0.000731
243 0.000726
244 0.000722
245 0.000723
246 0.000733
247 0.000733
248 0.000714
249 0.000706
250 0.000707
251 0.000706
252 0.000714
253 0.000719
254 0.000712
255 0.000700
256 0.000650
257 0.000611
258 0.000578
259 0.000541
260 0.000514
261 0.000508
262 0.000511
263 0.000500
264 0.000504
265 0.000520
266 0.000525
267 0.000529
268 0.000536
269 0.000539
270 0.000558
271 0.000551
272 0.000540
273 0.000551
274 0.000542
275 0.000534
276 0.000537
277 0.000541
278 0.000523
279 0.000503
280 0.000480
281 0.000479
282 0.000468
283 0.000443
284 0.000433
285 0.000430
286 0.000430
287 0.000428
288 0.000436
289 0.000452
290 0.000479
291 0.000503
292 0.000518
293 0.000546
294 0.000559
295 0.000570
296 0.000577
297 0.000590
298 0.000580
299 0.000580
300 0.000588
301 0.000592
302 0.000585
303 0.000590
304 0.000595
305 0.000598
306 0.000595
307 0.000586
308 0.000597
309 0.000609
310 0.000611
311 0.000623
312 0.000645
313 0.000664
314 0.000668
315 0.000657
316 0.000650
317 0.000651
318 0.000649
319 0.000640
320 0.000625
321 0.000597
322 0.000593
323 0.000591
324 0.000592
325 0.000612
326 0.000624
327 0.000624
328 0.000623
329 0.000618
330 0.000626
331 0.000633
332 0.000638
333 0.000654
334 0.000644
335 0.000629
336 0.000623
337 0.000621
338 0.000627
339 0.000634
340 0.000656
341 0.000666
342 0.000652
343 0.000643
344 0.000646
345 0.000643
346 0.000638
347 0.000627
348 0.000618
349 0.000598
350 0.000568
351 0.000541
352 0.000526
353 0.000508
354 0.000500
355 0.000474
356 0.000459
357 0.000443
358 0.000433
359 0.000435
360 0.000451
361 0.000452
362 0.000445
363 0.000443
364 0.000439
365 0.000426
366 0.000415
367 0.000400
368 0.000381
369 0.000357
370 0.000337
371 0.000329
372 0.000331
373 0.000334
374 0.000338
375 0.000356
376 0.000358
377 0.000366
378 0.000372
379 0.000379
380 0.000379
381 0.000390
382 0.000394
383 0.000390
384 0.000396
385 0.000403
386 0.000425
387 0.000442
388 0.000456
389 0.000473
390 0.000481
391 0.000478
392 0.000481
393 0.000478
394 0.000488
395 0.000493
396 0.000487
397 0.000486
398 0.000485
399 0.000490
400 0.000496
401 0.000505
402 0.000510
403 0.000527
404 0.000537
405 0.000536
406 0.000537
407 0.000526
408 0.000512
409 0.000482
410 0.000460
411 0.000458
412 0.000440
413 0.000440
414 0.000450
415 0.000455
416 0.000463
417 0.000476
418 0.000477
419 0.000483
420 0.000498
421 0.000517
422 0.000535
423 0.000554
424 0.000567
425 0.000561
426 0.000556
427 0.000559
428 0.000566
429 0.000571
430 0.000582
431 0.000581
432 0.000565
433 0.000561
434 0.000573
435 0.000586
436 0.000616
437 0.000642
438 0.000641
439 0.000635
440 0.000624
441 0.000605
442 0.000588
443 0.000579
444 0.000565
445 0.000554
446 0.000537
447 0.000521
448 0.000508
449 0.000501
450 0.000503
451 0.000492
452 0.000475
453 0.000448
454 0.000426
455 0.000414
456 0.000398
457 0.000404
458 0.000407
459 0.000414
460 0.000402
461 0.000399
462 0.000396
463 0.000391
464 0.000385
465 0.000378
466 0.000370
467 0.000357
468 0.000345
469 0.000333
470 0.000330
471 0.000328
472 0.000336
473 0.000345
474 0.000358
475 0.000371
476 0.000368
477 0.000368
478 0.000364
479 0.000347
480 0.000337
481 0.000345
482 0.000348
483 0.000331
484 0.000325
485 0.000327
486 0.000319
487 0.000323
488 0.000316
489 0.000314
490 0.000300
491 0.000279
492 0.000259
493 0.000235
494 0.000227
495 0.000217
496 0.000217
497 0.000202
498 0.000187
499 0.000177
500 0.000169
501 0.000160
502 0.000153
503 0.000142
504 0.000136
505 0.000127
506 0.000130
507 0.000145
508 0.000157
509 0.000155
510 0.000168
511 0.000180
512 0.000202
513 0.000223
514 0.000235
515 0.000228
516 0.000244
517 0.000271
518 0.000302
519 0.000315
520 0.000340
521 0.000348
522 0.000340
523 0.000343
524 0.000351
525 0.000353
526 0.000365
527 0.000384
528 0.000409
529 0.000427
530 0.000452
531 0.000485
532 0.000511
533 0.000509
534 0.000525
535 0.000535
536 0.000540
537 0.000531
538 0.000516
539 0.000500
540 0.000488
541 0.000471
542 0.000465
543 0.000450
544 0.000438
545 0.000416
546 0.000400
547 0.000388
548 0.000393
549 0.000391
550 0.000390
551 0.000374
552 0.000371
553 0.000358
554 0.000348
555 0.000359
556 0.000369
557 0.000379
558 0.000398
559 0.000408
560 0.000412
561 0.000405
562 0.000392
563 0.000397
564 0.000408
565 0.000411
566 0.000410
567 0.000399
568 0.000393
569 0.000378
570 0.000374
571 0.000373
572 0.000377
573 0.000367
574 0.000368
575 0.000366
576 0.000378
577 0.000394
578 0.000394
579 0.000397
580 0.000397
581 0.000384
582 0.000373
583 0.000355
584 0.000347
585 0.000335
586 0.000322
587 0.000305
588 0.000295
589 0.000271
590 0.000259
591 0.000252
592 0.000229
593 0.000210
594 0.000205
595 0.000192
596 0.000169
597 0.000141
598 0.000146
599 0.000152
600 0.000144
601 0.000144
602 0.000130
603 0.000112
604 0.000095
605 0.000091
606 0.000102
607 0.000125
608 0.000136
609 0.000155
610 0.000176
611 0.000180
612 0.000175
613 0.000176
614 0.000192
615 0.000213
616 0.000233
617 0.000250
618 0.000270
619 0.000291
620 0.000301
621 0.000302
622 0.000305
623 0.000307
624 0.000307
625 0.000319
626 0.000333
627 0.000330
628 0.000326
629 0.000321
630 0.000330
631 0.000328
632 0.000320
633 0.000318
634 0.000316
635 0.000304
636 0.000296
637 0.000289
638 0.000281
639 0.000280
640 0.000286
641 0.000298
642 0.000298
643 0.000291
644 0.000283
645 0.000282
646 0.000279
647 0.000276
648 0.000275
649 0.000276
650 0.000280
651 0.000281
652 0.000277
653 0.000271
654 0.000262
655 0.000251
656 0.000243
657 0.000238
658 0.000240
659 0.000248
660 0.000254
661 0.000267
662 0.000268
663 0.000269
664 0.000273
665 0.000285
666 0.000290
667 0.000285
668 0.000284
669 0.000284
670 0.000284
671 0.000301
672 0.000318
673 0.000318
674 0.000319
675 0.000323
676 0.000335
677 0.000332
678 0.000330
679 0.000315
680 0.000293
681 0.000272
682 0.000249
683 0.000229
684 0.000227
685 0.000211
686 0.000190
687 0.000178
688 0.000167
689 0.000166
690 0.000157
691 0.000153
692 0.000157
693 0.000161
694 0.000166
695 0.000176
696 0.000165
697 0.000158
698 0.000146
699 0.000126
700 0.000120
701 0.000127
702 0.000113
703 0.000107
704 0.000102
705 0.000108
706 0.000112
707 0.000119
708 0.000130
709 0.000125
710 0.000119
711 0.000119
712 0.000127
713 0.000130
714 0.000133
715 0.000144
716 0.000149
717 0.000157
718 0.000167
719 0.000187
720 0.000198
721 0.000197
722 0.000202
723 0.000204
724 0.000205
725 0.000216
726 0.000222
727 0.000240
728 0.000250
729 0.000259
730 0.000262
731 0.000265
732 0.000265
733 0.000270
734 0.000281
735 0.000285
736 0.000287
737 0.000286
738 0.000289
739 0.000297
740 0.000302
741 0.000304
742 0.000308
743 0.000318
744 0.000309
745 0.000295
746 0.000278
747 0.000275
748 0.000279
749 0.000275
750 0.000262
751 0.000256
752 0.000245
753 0.000244
754 0.000257
755 0.000266
756 0.000273
757 0.000277
758 0.000278
759 0.000283
760 0.000282
761 0.000276
762 0.000283
763 0.000281
764 0.000288
765 0.000286
766 0.000275
767 0.000282
768 0.000299
769 0.000317
770 0.000327
771 0.000328
772 0.000331
773 0.000329
774 0.000318
775 0.000317
776 0.000313
777 0.000314
778 0.000328
779 0.000340
780 0.000340
781 0.000343
782 0.000333
783 0.000338
784 0.000348
785 0.000354
786 0.000361
787 0.000361
788 0.000358
789 0.000356
790 0.000349
791 0.000335
792 0.000319
793 0.000299
794 0.000275
795 0.000251
796 0.000226
797 0.000214
798 0.000198
799 0.000181
800 0.000170
801 0.000163
802 0.000161
803 0.000161
804 0.000162
805 0.000167
806 0.000154
807 0.000152
808 0.000156
809 0.000165
