# i correlation
1 0.002253
2 0.002087
3 0.001944
4 0.001831
5 0.001736
6 0.001657
7 0.001596
8 0.001560
9 0.001522
10 0.001496
11 0.001467
12 0.001439
13 0.001406
14 0.001390
15 0.001376
16 0.001359
17 0.001332
18 0.001309
19 0.001294
20 0.001285
21 0.001275
22 0.001273
23 0.001285
24 0.001290
25 0.001291
26 0.001269
27 0.001262
28 0.001238
29 0.001206
30 0.001171
31 0.001151
32 0.001126
33 0.001098
34 0.001048
35 0.001007
36 0.000974
37 0.000967
38 0.000979
39 0.000997
40 0.001004
41 0.001013
42 0.001034
43 0.001043
44 0.001050
45 0.001040
46 0.001030
47 0.001021
48 0.001005
49 0.000977
50 0.000970
51 0.000964
52 0.000966
53 0.000970
54 0.000960
55 0.000954
56 0.000945
57 0.000922
58 0.000915
59 0.000888
60 0.000856
61 0.000819
62 0.000801
63 0.000793
64 0.000787
65 0.000778
66 0.000773
67 0.000781
68 0.000784
69 0.000789
70 0.000803
71 0.000809
72 0.000819
73 0.000829
74 0.000836
75 0.000836
76 0.000836
77 0.000831
78 0.000833
79 0.000817
80 0.000798
81 0.000803
82 0.000812
83 0.000825
84 0.000836
85 0.000855
86 0.000870
87 0.000883
88 0.000901
89 0.000904
90 0.000898
91 0.000895
92 0.000885
93 0.000864
94 0.000844
95 0.000826
96 0.000818
97 0.000822
98 0.000834
99 0.000831
100 0.000828
101 0.000814
102 0.000785
103 0.000763
104 0.000740
105 0.000736
106 0.000753
107 0.000762
108 0.000755
109 0.000759
110 0.000741
111 0.000731
112 0.000735
113 0.000737
114 0.000745
115 0.000753
116 0.000753
117 0.000757
118 0.000761
119 0.000760
120 0.000765
121 0.000766
122 0.000755
123 0.000738
124 0.000706
125 0.000684
126 0.000677
127 0.000687
128 0.000714
129 0.000748
130 0.000768
131 0.000777
132 0.000789
133 0.000784
134 0.000784
135 0.000789
136 0.000798
137 0.000794
138 0.000781
139 0.000776
140 0.000786
141 0.000785
142 0.000774
143 0.000757
144 0.000745
145 0.000754
146 0.000765
147 0.000755
148 0.000743
149 0.000708
150 0.000663
151 0.000624
152 0.000589
153 0.000566
154 0.000556
155 0.000548
156 0.000560
157 0.000571
158 0.000583
159 0.000592
160 0.000605
161 0.000624
162 0.000638
163 0.000645
164 0.000639
165 0.000642
166 0.000634
167 0.000621
168 0.000603
169 0.000591
170 0.000581
171 0.000573
172 0.000567
173 0.000583
174 0.000584
175 0.000580
176 0.000569
177 0.000562
178 0.000544
179 0.000546
180 0.000552
181 0.000563
182 0.000568
183 0.000580
184 0.000583
185 0.000588
186 0.000578
187 0.000597
188 0.000616
189 0.000635
190 0.000648
191 0.000649
192 0.000648
193 0.000665
194 0.000671
195 0.000674
196 0.000665
197 0.000671
198 0.000694
199 0.000711
200 0.000712
201 0.000710
202 0.000712
203 0.000708
204 0.000705
205 0.000693
206 0.000686
207 0.000676
208 0.000654
209 0.000643
210 0.000638
211 0.000641
212 0.000653
213 0.000672
214 0.000697
215 0.000716
216 0.000731
217 0.000755
218 0.000776
219 0.000794
220 0.000789
221 0.000787
222 0.000774
223 0.000763
224 0.000757
225 0.000743
226 0.000734
227 0.000725
228 0.000715
229 0.000696
230 0.000679
231 0.000662
232 0.000645
233 0.000625
234 0.000601
235 0.000605
236 0.000611
237 0.000610
238 0.000608
239 0.000601
240 0.000595
241 0.000583
242 0.000562
243 0.000546
244 0.000540
245 0.000531
246 0.000523
247 0.000530
248 0.000531
249 0.000523
250 0.000507
251 0.000499
252 0.000492
253 0.000469
254 0.000449
255 0.000434
256 0.000413
257 0.000405
258 0.000407
259 0.000406
260 0.000404
261 0.000413
262 0.000433
263 0.000461
264 0.000496
265 0.000523
266 0.000544
267 0.000538
268 0.000534
269 0.000540
270 0.000539
271 0.000534
272 0.000536
273 0.000536
274 0.000551
275 0.000560
276 0.000570
277 0.000591
278 0.000608
279 0.000607
280 0.000615
281 0.000609
282 0.000606
283 0.000593
284 0.000573
285 0.000544
286 0.000526
287 0.000511
288 0.000518
289 0.000520
290 0.000517
291 0.000504
292 0.000471
293 0.000449
294 0.000436
295 0.000430
296 0.000430
297 0.000434
298 0.000435
299 0.000425
300 0.000404
301 0.000390
302 0.000403
303 0.000407
304 0.000414
305 0.000425
306 0.000431
307 0.000441
308 0.000443
309 0.000448
310 0.000452
311 0.000461
312 0.000471
313 0.000482
314 0.000476
315 0.000462
316 0.000453
317 0.000444
318 0.000429
319 0.000433
320 0.000427
321 0.000428
322 0.000437
323 0.000430
324 0.000422
325 0.000422
326 0.000416
327 0.000414
328 0.000411
329 0.000410
330 0.000424
331 0.000432
332 0.000421
333 0.000416
334 0.000426
335 0.000433
336 0.000446
337 0.000454
338 0.000457
339 0.000448
340 0.000432
341 0.000413
342 0.000387
343 0.000356
344 0.000343
345 0.000345
346 0.000357
347 0.000370
348 0.000359
349 0.000346
350 0.000340
351 0.000329
352 0.000335
353 0.000337
354 0.000347
355 0.000358
356 0.000370
357 0.000384
358 0.000407
359 0.000414
360 0.000420
361 0.000428
362 0.000431
363 0.000431
364 0.000437
365 0.000439
366 0.000430
367 0.000415
368 0.000402
369 0.000390
370 0.000377
371 0.000374
372 0.000373
373 0.000368
374 0.000348
375 0.000339
376 0.000326
377 0.000324
378 0.000325
379 0.000310
380 0.000302
381 0.000299
382 0.000296
383 0.000303
384 0.000318
385 0.000322
386 0.000326
387 0.000339
388 0.000335
389 0.000332
390 0.000314
391 0.000288
392 0.000262
393 0.000250
394 0.000247
395 0.000239
396 0.000240
397 0.000256
398 0.000280
399 0.000292
400 0.000316
401 0.000334
402 0.000349
403 0.000355
404 0.000366
405 0.000381
406 0.000371
407 0.000346
408 0.000335
409 0.000343
410 0.000355
411 0.000364
412 0.000388
413 0.000406
414 0.000421
415 0.000411
416 0.000415
417 0.000405
418 0.000390
419 0.000373
420 0.000364
421 0.000351
422 0.000349
423 0.000344
424 0.000348
425 0.000373
426 0.000390
427 0.000382
428 0.000379
429 0.000367
430 0.000348
431 0.000340
432 0.000335
433 0.000330
434 0.000319
435 0.000300
436 0.000302
437 0.000296
438 0.000276
439 0.000264
440 0.000245
441 0.000242
442 0.000253
443 0.000273
444 0.000284
445 0.000299
446 0.000309
447 0.000323
448 0.000330
449 0.000335
450 0.000328
451 0.000331
452 0.000336
453 0.000339
454 0.000324
455 0.000309
456 0.000308
457 0.000307
458 0.000300
459 0.000296
460 0.000281
461 0.000270
462 0.000238
463 0.000217
464 0.000205
465 0.000195
466 0.000189
467 0.000187
468 0.000186
469 0.000180
470 0.000166
471 0.000167
472 0.000167
473 0.000167
474 0.000159
475 0.000159
476 0.000173
477 0.000186
478 0.000207
479 0.000223
480 0.000236
481 0.000247
482 0.000257
483 0.000267
484 0.000285
485 0.000280
486 0.000276
487 0.000272
488 0.000267
489 0.000259
490 0.000257
491 0.000252
492 0.000262
493 0.000264
494 0.000274
495 0.000279
496 0.000291
497 0.000298
498 0.000304
499 0.000314
500 0.000326
501 0.000347
502 0.000359
503 0.000364
504 0.000366
505 0.000365
506 0.000362
507 0.000357
508 0.000349
509 0.000337
510 0.000337
511 0.000338
512 0.000328
513 0.000311
514 0.000296
515 0.000277
516 0.000255
517 0.000246
518 0.000241
519 0.000241
520 0.000238
521 0.000241
522 0.000243
523 0.000246
524 0.000248
525 0.000249
526 0.000254
527 0.000252
528 0.000251
529 0.000257
530 0.000261
531 0.000270
532 0.000277
533 0.000281
534 0.000302
535 0.000314
536 0.000323
537 0.000324
538 0.000316
539 0.000304
540 0.000300
541 0.000297
542 0.000301
543 0.000302
544 0.000303
545 0.000312
546 0.000321
547 0.000323
548 0.000330
549 0.000346
550 0.000354
551 0.000363
552 0.000373
553 0.000373
554 0.000385
555 0.000386
556 0.000386
557 0.000388
558 0.000386
559 0.000384
560 0.000379
561 0.000385
562 0.000387
563 0.000386
564 0.000384
565 0.000373
566 0.000371
567 0.000358
568 0.000340
569 0.000315
570 0.000298
571 0.000292
572 0.000286
573 0.000290
574 0.000293
575 0.000299
576 0.000297
577 0.000298
578 0.000300
579 0.000303
580 0.000300
581 0.000291
582 0.000295
583 0.000284
584 0.000264
585 0.000252
586 0.000248
587 0.000247
588 0.000250
589 0.000248
590 0.000250
591 0.000248
592 0.000245
593 0.000245
594 0.000248
595 0.000244
596 0.000245
597 0.000242
598 0.000230
599 0.000228
600 0.000228
601 0.000234
602 0.000236
603 0.000237
604 0.000236
605 0.000241
606 0.000242
607 0.000236
608 0.000224
609 0.000222
610 0.000213
611 0.000207
612 0.000206
613 0.000202
614 0.000210
615 0.000217
616 0.000223
617 0.000225
618 0.000225
619 0.000244
620 0.000253
621 0.000260
622 0.000264
623 0.000270
624 0.000280
625 0.000290
626 0.000300
627 0.000305
628 0.000304
629 0.000302
630 0.000303
631 0.000296
632 0.000284
633 0.000268
634 0.000259
635 0.000258
636 0.000255
637 0.000245
638 0.000238
639 0.000238
640 0.000248
641 0.000257
642 0.000267
643 0.000280
644 0.000291
645 0.000302
646 0.000317
647 0.000334
648 0.000341
649 0.000358
650 0.000374
651 0.000378
652 0.000382
653 0.000381
654 0.000373
655 0.000358
656 0.000344
657 0.000321
658 0.000302
659 0.000287
660 0.000274
661 0.000270
662 0.000262
663 0.000262
664 0.000270
665 0.000271
666 0.000275
667 0.000289
668 0.000294
669 0.000295
670 0.000291
671 0.000290
672 0.000287
673 0.000284
674 0.000285
675 0.000283
676 0.000269
677 0.000269
678 0.000269
679 0.000275
680 0.000276
681 0.000275
682 0.000278
683 0.000284
684 0.000291
685 0.000294
686 0.000286
687 0.000279
688 0.000271
689 0.000268
690 0.000266
691 0.000273
692 0.000287
693 0.000295
694 0.000307
695 0.000323
696 0.000328
697 0.000332
698 0.000330
699 0.000325
700 0.000327
701 0.000321
702 0.000322
703 0.000335
704 0.000334
705 0.000327
706 0.000314
707 0.000307
708 0.000301
709 0.000294
710 0.000288
711 0.000288
712 0.000290
713 0.000292
714 0.000290
715 0.000287
716 0.000289
717 0.000289
718 0.000288
719 0.000288
720 0.000289
721 0.000290
722 0.000296
723 0.000302
724 0.000307
725 0.000306
726 0.000293
727 0.000286
728 0.000273
729 0.000251
730 0.000235
731 0.000230
732 0.000217
733 0.000206
734 0.000196
735 0.000194
736 0.000195
737 0.000195
738 0.000192
739 0.000185
740 0.000174
741 0.000172
742 0.000165
743 0.000159
744 0.000147
745 0.000134
746 0.000125
747 0.000119
748 0.000118
749 0.000121
750 0.000125
751 0.000133
752 0.000132
753 0.000130
754 0.000130
755 0.000139
756 0.000148
757 0.000148
758 0.000153
759 0.000162
760 0.000171
761 0.000177
762 0.000186
763 0.000189
764 0.000184
765 0.000176
766 0.000172
767 0.000164
768 0.000156
769 0.000148
770 0.000150
771 0.000158
772 0.000165
773 0.000174
774 0.000175
775 0.000183
776 0.000192
777 0.000199
778 0.000203
779 0.000196
780 0.000193
781 0.000200
782 0.000204
783 0.000212
784 0.000215
785 0.000216
786 0.000218
787 0.000220
788 0.000221
789 0.000222
790 0.000221
791 0.000220
792 0.000213
793 0.000206
794 0.000204
795 0.000198
796 0.000190
797 0.000181
798 0.000171
799 0.000171
800 0.000172
801 0.000176
802 0.000172
803 0.000177
804 0.000181
805 0.000177
806 0.000172
807 0.000164
808 0.000157
809 0.000165
