# i correlation
1 0.002347
2 0.002170
3 0.002042
4 0.001941
5 0.001885
6 0.001825
7 0.001751
8 0.001694
9 0.001640
10 0.001606
11 0.001574
12 0.001556
13 0.001542
14 0.001502
15 0.001447
16 0.001403
17 0.001375
18 0.001352
19 0.001339
20 0.001332
21 0.001323
22 0.001330
23 0.001325
24 0.001314
25 0.001317
26 0.001313
27 0.001299
28 0.001286
29 0.001286
30 0.001281
31 0.001265
32 0.001247
33 0.001235
34 0.001211
35 0.001198
36 0.001182
37 0.001165
38 0.001144
39 0.001121
40 0.001097
41 0.001075
42 0.001029
43 0.001008
44 0.000983
45 0.000976
46 0.000990
47 0.000994
48 0.000996
49 0.001008
50 0.000992
51 0.000977
52 0.000974
53 0.000973
54 0.000958
55 0.000936
56 0.000923
57 0.000941
58 0.000943
59 0.000944
60 0.000930
61 0.000919
62 0.000904
63 0.000877
64 0.000864
65 0.000841
66 0.000818
67 0.000794
68 0.000764
69 0.000748
70 0.000736
71 0.000734
72 0.000742
73 0.000762
74 0.000770
75 0.000783
76 0.000801
77 0.000806
78 0.000802
79 0.000819
80 0.000828
81 0.000820
82 0.000821
83 0.000814
84 0.000822
85 0.000831
86 0.000856
87 0.000888
88 0.000896
89 0.000895
90 0.000893
91 0.000872
92 0.000867
93 0.000854
94 0.000848
95 0.000854
96 0.000890
97 0.000911
98 0.000918
99 0.000937
100 0.000939
101 0.000939
102 0.000939
103 0.000924
104 0.000919
105 0.000933
106 0.000952
107 0.000958
108 0.000952
109 0.000960
110 0.000970
111 0.000988
112 0.001016
113 0.001020
114 0.001009
115 0.000977
116 0.000948
117 0.000930
118 0.000928
119 0.000903
120 0.000874
121 0.000865
122 0.000873
123 0.000888
124 0.000883
125 0.000892
126 0.000899
127 0.000912
128 0.000928
129 0.000935
130 0.000964
131 0.000978
132 0.000975
133 0.000975
134 0.000976
135 0.001002
136 0.001028
137 0.001045
138 0.001054
139 0.001045
140 0.001050
141 0.001037
142 0.001017
143 0.001004
144 0.000988
145 0.000976
146 0.000958
147 0.000956
148 0.000949
149 0.000950
150 0.000934
151 0.000898
152 0.000882
153 0.000887
154 0.000876
155 0.000852
156 0.000816
157 0.000793
158 0.000787
159 0.000809
160 0.000827
161 0.000831
162 0.000826
163 0.000819
164 0.000813
165 0.000816
166 0.000827
167 0.000838
168 0.000842
169 0.000844
170 0.000827
171 0.000843
172 0.000866
173 0.000862
174 0.000858
175 0.000845
176 0.000836
177 0.000823
178 0.000806
179 0.000809
180 0.000795
181 0.000772
182 0.000771
183 0.000760
184 0.000754
185 0.000757
186 0.000790
187 0.000813
188 0.000815
189 0.000833
190 0.000843
191 0.000837
192 0.000853
193 0.000847
194 0.000842
195 0.000845
196 0.000853
197 0.000862
198 0.000860
199 0.000846
200 0.000826
201 0.000811
202 0.000801
203 0.000776
204 0.000769
205 0.000748
206 0.000718
207 0.000715
208 0.000716
209 0.000727
210 0.000718
211 0.000727
212 0.000736
213 0.000719
214 0.000711
215 0.000691
216 0.000662
217 0.000657
218 0.000646
219 0.000635
220 0.000636
221 0.000655
222 0.000671
223 0.000688
224 0.000714
225 0.000738
226 0.000741
227 0.000724
228 0.000709
229 0.000707
230 0.000703
231 0.000680
232 0.000668
233 0.000654
234 0.000645
235 0.000663
236 0.000670
237 0.000667
238 0.000653
239 0.000636
240 0.000613
241 0.000614
242 0.000607
243 0.000601
244 0.000597
245 0.000588
246 0.000571
247 0.000562
248 0.000554
249 0.000556
250 0.000556
251 0.000557
252 0.000538
253 0.000514
254 0.000501
255 0.000484
256 0.000469
257 0.000456
258 0.000459
259 0.000460
260 0.000464
261 0.000472
262 0.000465
263 0.000441
264 0.000405
265 0.000404
266 0.000438
267 0.000440
268 0.000448
269 0.000439
270 0.000441
271 0.000464
272 0.000472
273 0.000474
274 0.000482
275 0.000489
276 0.000499
277 0.000483
278 0.000473
279 0.000481
280 0.000481
281 0.000487
282 0.000481
283 0.000479
284 0.000478
285 0.000472
286 0.000460
287 0.000457
288 0.000462
289 0.000452
290 0.000441
291 0.000447
292 0.000456
293 0.000474
294 0.000499
295 0.000511
296 0.000518
297 0.000534
298 0.000567
299 0.000585
300 0.000598
301 0.000638
302 0.000656
303 0.000675
304 0.000680
305 0.000678
306 0.000679
307 0.000687
308 0.000710
309 0.000739
310 0.000751
311 0.000753
312 0.000738
313 0.000718
314 0.000701
315 0.000675
316 0.000661
317 0.000661
318 0.000655
319 0.000641
320 0.000646
321 0.000644
322 0.000649
323 0.000654
324 0.000664
325 0.000669
326 0.000678
327 0.000680
328 0.000667
329 0.000665
330 0.000667
331 0.000679
332 0.000697
333 0.000697
334 0.000704
335 0.000698
336 0.000681
337 0.000670
338 0.000666
339 0.000676
340 0.000678
341 0.000671
342 0.000660
343 0.000631
344 0.000610
345 0.000584
346 0.000567
347 0.000567
348 0.000568
349 0.000560
350 0.000559
351 0.000559
352 0.000542
353 0.000513
354 0.000495
355 0.000494
356 0.000486
357 0.000481
358 0.000501
359 0.000508
360 0.000504
361 0.000504
362 0.000505
363 0.000519
364 0.000530
365 0.000521
366 0.000507
367 0.000489
368 0.000483
369 0.000476
370 0.000466
371 0.000464
372 0.000472
373 0.000477
374 0.000486
375 0.000483
376 0.000462
377 0.000449
378 0.000444
379 0.000440
380 0.000439
381 0.000423
382 0.000398
383 0.000400
384 0.000420
385 0.000443
386 0.000458
387 0.000463
388 0.000487
389 0.000509
390 0.000521
391 0.000523
392 0.000510
393 0.000509
394 0.000505
395 0.000488
396 0.000469
397 0.000462
398 0.000467
399 0.000464
400 0.000461
401 0.000452
402 0.000419
403 0.000396
404 0.000399
405 0.000383
406 0.000384
407 0.000389
408 0.000379
409 0.000375
410 0.000382
411 0.000392
412 0.000406
413 0.000414
414 0.000406
415 0.000406
416 0.000416
417 0.000419
418 0.000440
419 0.000467
420 0.000482
421 0.000507
422 0.000518
423 0.000536
424 0.000546
425 0.000542
426 0.000534
427 0.000512
428 0.000498
429 0.000491
430 0.000480
431 0.000476
432 0.000471
433 0.000476
434 0.000487
435 0.000491
436 0.000497
437 0.000501
438 0.000520
439 0.000537
440 0.000534
441 0.000526
442 0.000502
443 0.000474
444 0.000446
445 0.000438
446 0.000434
447 0.000450
448 0.000475
449 0.000476
450 0.000482
451 0.000484
452 0.000493
453 0.000501
454 0.000499
455 0.000495
456 0.000492
457 0.000467
458 0.000458
459 0.000456
460 0.000456
461 0.000450
462 0.000463
463 0.000457
464 0.000444
465 0.000446
466 0.000443
467 0.000451
468 0.000451
469 0.000439
470 0.000444
471 0.000440
472 0.000443
473 0.000447
474 0.000443
475 0.000436
476 0.000438
477 0.000437
478 0.000432
479 0.000424
480 0.000434
481 0.000435
482 0.000433
483 0.000425
484 0.000421
485 0.000422
486 0.000418
487 0.000411
488 0.000406
489 0.000400
490 0.000398
491 0.000411
492 0.000413
493 0.000407
494 0.000395
495 0.000399
496 0.000415
497 0.000432
498 0.000438
499 0.000440
500 0.000450
501 0.000454
502 0.000446
503 0.000443
504 0.000434
505 0.000426
506 0.000418
507 0.000403
508 0.000376
509 0.000362
510 0.000350
511 0.000346
512 0.000342
513 0.000328
514 0.000310
515 0.000300
516 0.000305
517 0.000320
518 0.000335
519 0.000339
520 0.000347
521 0.000349
522 0.000348
523 0.000351
524 0.000363
525 0.000383
526 0.000393
527 0.000406
528 0.000417
529 0.000431
530 0.000448
531 0.000463
532 0.000470
533 0.000475
534 0.000483
535 0.000491
536 0.000494
537 0.000506
538 0.000511
539 0.000502
540 0.000481
541 0.000466
542 0.000453
543 0.000437
544 0.000426
545 0.000406
546 0.000399
547 0.000397
548 0.000398
549 0.000404
550 0.000408
551 0.000410
552 0.000411
553 0.000408
554 0.000409
555 0.000413
556 0.000414
557 0.000409
558 0.000402
559 0.000403
560 0.000405
561 0.000415
562 0.000423
563 0.000431
564 0.000452
565 0.000459
566 0.000466
567 0.000466
568 0.000463
569 0.000474
570 0.000483
571 0.000485
572 0.000489
573 0.000483
574 0.000471
575 0.000458
576 0.000457
577 0.000464
578 0.000467
579 0.000456
580 0.000435
581 0.000408
582 0.000385
583 0.000377
584 0.000364
585 0.000357
586 0.000351
587 0.000351
588 0.000334
589 0.000320
590 0.000317
591 0.000306
592 0.000311
593 0.000308
594 0.000283
595 0.000262
596 0.000246
597 0.000242
598 0.000247
599 0.000239
600 0.000230
601 0.000213
602 0.000209
603 0.000212
604 0.000206
605 0.000209
606 0.000197
607 0.000188
608 0.000198
609 0.000207
610 0.000226
611 0.000231
612 0.000234
613 0.000237
614 0.000229
615 0.000234
616 0.000238
617 0.000226
618 0.000221
619 0.000216
620 0.000203
621 0.000210
622 0.000208
623 0.000215
624 0.000222
625 0.000229
626 0.000229
627 0.000229
628 0.000227
629 0.000229
630 0.000244
631 0.000254
632 0.000262
633 0.000264
634 0.000267
635 0.000278
636 0.000273
637 0.000254
638 0.000241
639 0.000231
640 0.000222
641 0.000209
642 0.000199
643 0.000199
644 0.000200
645 0.000204
646 0.000199
647 0.000178
648 0.000159
649 0.000153
650 0.000147
651 0.000150
652 0.000142
653 0.000128
654 0.000114
655 0.000103
656 0.000104
657 0.000104
658 0.000097
659 0.000096
660 0.000101
661 0.000105
662 0.000108
663 0.000104
664 0.000118
665 0.000136
666 0.000156
667 0.000178
668 0.000192
669 0.000209
670 0.000222
671 0.000224
672 0.000236
673 0.000241
674 0.000238
675 0.000219
676 0.000192
677 0.000175
678 0.000160
679 0.000144
680 0.000130
681 0.000115
682 0.000102
683 0.000096
684 0.000089
685 0.000080
686 0.000071
687 0.000056
688 0.000048
689 0.000049
690 0.000053
691 0.000064
692 0.000084
693 0.000080
694 0.000078
695 0.000075
696 0.000071
697 0.000081
698 0.000084
699 0.000085
700 0.000083
701 0.000080
702 0.000079
703 0.000072
704 0.000069
705 0.000066
706 0.000049
707 0.000032
708 0.000022
709 0.000020
710 0.000028
711 0.000028
712 0.000008
713 0.000000
714 -0.000002
715 -0.000007
716 -0.000015
717 -0.000017
718 -0.000008
719 0.000005
720 0.000016
721 0.000029
722 0.000044
723 0.000059
724 0.000071
725 0.000070
726 0.000067
727 0.000065
728 0.000058
729 0.000046
730 0.000043
731 0.000041
732 0.000040
733 0.000047
734 0.000034
735 0.000028
736 0.000022
737 0.000008
738 -0.000002
739 -0.000004
740 -0.000011
741 -0.000013
742 -0.000011
743 -0.000011
744 -0.000008
745 -0.000008
746 -0.000004
747 -0.000006
748 -0.000006
749 -0.000007
750 -0.000009
751 -0.000008
752 0.000000
753 0.000003
754 0.000006
755 0.000003
756 0.000002
757 0.000011
758 0.000024
759 0.000042
760 0.000046
761 0.000043
762 0.000042
763 0.000055
764 0.000063
765 0.000070
766 0.000071
767 0.000068
768 0.000070
769 0.000076
770 0.000082
771 0.000092
772 0.000100
773 0.000106
774 0.000117
775 0.000116
776 0.000122
777 0.000127
778 0.000130
779 0.000147
780 0.000159
781 0.000157
782 0.000162
783 0.000164
784 0.000161
785 0.000166
786 0.000157
787 0.000149
788 0.000138
789 0.000122
790 0.000114
791 0.000107
792 0.000102
793 0.000096
794 0.000087
795 0.000072
796 0.000062
797 0.000059
798 0.000065
799 0.000078
800 0.000085
801 0.000089
802 0.000096
803 0.000100
804 0.000107
805 0.000114
806 0.000117
807 0.000113
808 0.000106
809 0.000096
