# i correlation
1 0.002126
2 0.001947
3 0.001843
4 0.001751
5 0.001677
6 0.001602
7 0.001537
8 0.001484
9 0.001425
10 0.001361
11 0.001319
12 0.001306
13 0.001278
14 0.001234
15 0.001190
16 0.001167
17 0.001145
18 0.001124
19 0.001101
20 0.001091
21 0.001095
22 0.001095
23 0.001091
24 0.001081
25 0.001088
26 0.001112
27 0.001114
28 0.001120
29 0.001144
30 0.001191
31 0.001217
32 0.001205
33 0.001185
34 0.001187
35 0.001180
36 0.001175
37 0.001138
38 0.001097
39 0.001041
40 0.000997
41 0.000971
42 0.000963
43 0.000979
44 0.000982
45 0.000952
46 0.000942
47 0.000954
48 0.000964
49 0.000951
50 0.000927
51 0.000919
52 0.000922
53 0.000914
54 0.000900
55 0.000884
56 0.000882
57 0.000867
58 0.000872
59 0.000881
60 0.000875
61 0.000905
62 0.000915
63 0.000904
64 0.000917
65 0.000931
66 0.000941
67 0.000939
68 0.000934
69 0.000919
70 0.000910
71 0.000890
72 0.000857
73 0.000836
74 0.000834
75 0.000830
76 0.000807
77 0.000786
78 0.000779
79 0.000768
80 0.000754
81 0.000728
82 0.000734
83 0.000744
84 0.000748
85 0.000743
86 0.000722
87 0.000710
88 0.000705
89 0.000714
90 0.000722
91 0.000735
92 0.000731
93 0.000700
94 0.000666
95 0.000651
96 0.000663
97 0.000681
98 0.000679
99 0.000697
100 0.000705
101 0.000726
102 0.000734
103 0.000716
104 0.000722
105 0.000724
106 0.000746
107 0.000756
108 0.000763
109 0.000754
110 0.000742
111 0.000745
112 0.000745
113 0.000736
114 0.000747
115 0.000773
116 0.000763
117 0.000749
118 0.000751
119 0.000750
120 0.000766
121 0.000761
122 0.000749
123 0.000727
124 0.000695
125 0.000674
126 0.000654
127 0.000649
128 0.000652
129 0.000651
130 0.000645
131 0.000638
132 0.000639
133 0.000646
134 0.000651
135 0.000668
136 0.000688
137 0.000712
138 0.000730
139 0.000733
140 0.000728
141 0.000723
142 0.000738
143 0.000733
144 0.000728
145 0.000722
146 0.000715
147 0.000694
148 0.000712
149 0.000726
150 0.000743
151 0.000743
152 0.000737
153 0.000724
154 0.000714
155 0.000702
156 0.000685
157 0.000668
158 0.000660
159 0.000618
160 0.000588
161 0.000566
162 0.000543
163 0.000526
164 0.000504
165 0.000482
166 0.000498
167 0.000538
168 0.000559
169 0.000574
170 0.000587
171 0.000590
172 0.000597
173 0.000597
174 0.000613
175 0.000612
176 0.000619
177 0.000617
178 0.000600
179 0.000595
180 0.000593
181 0.000585
182 0.000577
183 0.000574
184 0.000583
185 0.000589
186 0.000611
187 0.000604
188 0.000599
189 0.000585
190 0.000582
191 0.000566
192 0.000536
193 0.000510
194 0.000486
195 0.000445
196 0.000417
197 0.000420
198 0.000441
199 0.000452
200 0.000467
201 0.000464
202 0.000473
203 0.000477
204 0.000479
205 0.000480
206 0.000461
207 0.000441
208 0.000407
209 0.000388
210 0.000360
211 0.000341
212 0.000334
213 0.000310
214 0.000312
215 0.000305
216 0.000316
217 0.000333
218 0.000324
219 0.000321
220 0.000335
221 0.000354
222 0.000372
223 0.000381
224 0.000383
225 0.000379
226 0.000375
227 0.000367
228 0.000370
229 0.000351
230 0.000323
231 0.000289
232 0.000272
233 0.000289
234 0.000299
235 0.000308
236 0.000325
237 0.000323
238 0.000303
239 0.000280
240 0.000256
241 0.000245
242 0.000217
243 0.000202
244 0.000196
245 0.000186
246 0.000181
247 0.000167
248 0.000147
249 0.000144
250 0.000156
251 0.000170
252 0.000196
253 0.000208
254 0.000215
255 0.000220
256 0.000227
257 0.000234
258 0.000254
259 0.000282
260 0.000295
261 0.000296
262 0.000272
263 0.000268
264 0.000296
265 0.000312
266 0.000320
267 0.000308
268 0.000306
269 0.000305
270 0.000315
271 0.000329
272 0.000324
273 0.000319
274 0.000291
275 0.000260
276 0.000241
277 0.000222
278 0.000210
279 0.000191
280 0.000159
281 0.000134
282 0.000124
283 0.000097
284 0.000078
285 0.000081
286 0.000091
287 0.000117
288 0.000139
289 0.000157
290 0.000191
291 0.000230
292 0.000257
293 0.000256
294 0.000279
295 0.000315
296 0.000341
297 0.000365
298 0.000370
299 0.000379
300 0.000396
301 0.000402
302 0.000412
303 0.000404
304 0.000404
305 0.000405
306 0.000412
307 0.000408
308 0.000405
309 0.000404
310 0.000376
311 0.000348
312 0.000323
313 0.000324
314 0.000306
315 0.000283
316 0.000280
317 0.000268
318 0.000264
319 0.000254
320 0.000256
321 0.000264
322 0.000290
323 0.000309
324 0.000313
325 0.000330
326 0.000353
327 0.000361
328 0.000366
329 0.000391
330 0.000389
331 0.000363
332 0.000361
333 0.000345
334 0.000338
335 0.000347
336 0.000355
337 0.000360
338 0.000361
339 0.000350
340 0.000340
341 0.000319
342 0.000304
343 0.000321
344 0.000322
345 0.000288
346 0.000264
347 0.000235
348 0.000212
349 0.000199
350 0.000187
351 0.000172
352 0.000178
353 0.000186
354 0.000170
355 0.000175
356 0.000180
357 0.000179
358 0.000190
359 0.000198
360 0.000204
361 0.000212
362 0.000210
363 0.000203
364 0.000205
365 0.000226
366 0.000237
367 0.000231
368 0.000220
369 0.000207
370 0.000210
371 0.000212
372 0.000210
373 0.000190
374 0.000180
375 0.000180
376 0.000167
377 0.000160
378 0.000170
379 0.000178
380 0.000167
381 0.000158
382 0.000130
383 0.000118
384 0.000115
385 0.000086
386 0.000074
387 0.000073
388 0.000077
389 0.000054
390 0.000033
391 0.000054
392 0.000053
393 0.000052
394 0.000050
395 0.000045
396 0.000055
397 0.000053
398 0.000036
399 0.000027
400 0.000017
401 0.000016
402 0.000027
403 0.000041
404 0.000069
405 0.000082
406 0.000085
407 0.000093
408 0.000097
409 0.000099
410 0.000086
411 0.000073
412 0.000067
413 0.000075
414 0.000098
415 0.000094
416 0.000075
417 0.000052
418 0.000029
419 0.000005
420 -0.000020
421 -0.000032
422 -0.000029
423 -0.000043
424 -0.000049
425 -0.000048
426 -0.000038
427 -0.000022
428 -0.000011
429 -0.000008
430 0.000001
431 -0.000002
432 -0.000019
433 -0.000032
434 -0.000031
435 -0.000022
436 -0.000020
437 -0.000010
438 0.000001
439 0.000023
440 0.000055
441 0.000071
442 0.000085
443 0.000094
444 0.000110
445 0.000131
446 0.000129
447 0.000123
448 0.000129
449 0.000133
450 0.000141
451 0.000136
452 0.000131
453 0.000119
454 0.000100
455 0.000098
456 0.000077
457 0.000062
458 0.000064
459 0.000051
460 0.000028
461 0.000014
462 0.000005
463 0.000000
464 -0.000016
465 -0.000043
466 -0.000054
467 -0.000060
468 -0.000058
469 -0.000060
470 -0.000047
471 -0.000020
472 0.000003
473 0.000023
474 0.000045
475 0.000075
476 0.000101
477 0.000115
478 0.000132
479 0.000140
480 0.000161
481 0.000170
482 0.000172
483 0.000179
484 0.000173
485 0.000174
486 0.000173
487 0.000176
488 0.000173
489 0.000164
490 0.000156
491 0.000132
492 0.000140
493 0.000154
494 0.000154
495 0.000145
496 0.000139
497 0.000129
498 0.000125
499 0.000128
500 0.000129
501 0.000135
502 0.000128
503 0.000118
504 0.000124
505 0.000138
506 0.000159
507 0.000177
508 0.000169
509 0.000156
510 0.000148
511 0.000156
512 0.000149
513 0.000150
514 0.000150
515 0.000151
516 0.000162
517 0.000150
518 0.000131
519 0.000123
520 0.000105
521 0.000079
522 0.000064
523 0.000059
524 0.000059
525 0.000058
526 0.000047
527 0.000029
528 0.000027
529 0.000026
530 0.000025
531 0.000015
532 0.000004
533 -0.000014
534 -0.000028
535 -0.000048
536 -0.000053
537 -0.000040
538 -0.000036
539 -0.000044
540 -0.000067
541 -0.000065
542 -0.000056
543 -0.000051
544 -0.000048
545 -0.000039
546 -0.000026
547 -0.000029
548 -0.000040
549 -0.000032
550 -0.000017
551 -0.000001
552 0.000014
553 0.000012
554 0.000019
555 0.000042
556 0.000036
557 0.000026
558 0.000027
559 0.000026
560 0.000035
561 0.000041
562 0.000046
563 0.000056
564 0.000061
565 0.000064
566 0.000070
567 0.000074
568 0.000087
569 0.000092
570 0.000096
571 0.000083
572 0.000072
573 0.000060
574 0.000051
575 0.000045
576 0.000037
577 0.000034
578 0.000024
579 0.000008
580 0.000007
581 0.000019
582 0.000040
583 0.000043
584 0.000037
585 0.000025
586 0.000028
587 0.000025
588 0.000012
589 0.000007
590 0.000009
591 0.000008
592 -0.000004
593 -0.000004
594 -0.000008
595 -0.000005
596 0.000009
597 0.000019
598 0.000030
599 0.000035
600 0.000035
601 0.000034
602 0.000042
603 0.000047
604 0.000048
605 0.000050
606 0.000042
607 0.000041
608 0.000057
609 0.000048
610 0.000032
611 0.000026
612 0.000027
613 0.000035
614 0.000051
615 0.000058
616 0.000072
617 0.000083
618 0.000085
619 0.000085
620 0.000087
621 0.000086
622 0.000079
623 0.000069
624 0.000070
625 0.000079
626 0.000082
627 0.000089
628 0.000093
629 0.000102
630 0.000121
631 0.000138
632 0.000143
633 0.000142
634 0.000147
635 0.000158
636 0.000167
637 0.000161
638 0.000155
639 0.000156
640 0.000153
641 0.000140
642 0.000142
643 0.000140
644 0.000134
645 0.000126
646 0.000121
647 0.000116
648 0.000107
649 0.000105
650 0.000113
651 0.000122
652 0.000124
653 0.000117
654 0.000106
655 0.000102
656 0.000101
657 0.000111
658 0.000117
659 0.000123
660 0.000119
661 0.000128
662 0.000142
663 0.000136
664 0.000124
665 0.000126
666 0.000133
667 0.000146
668 0.000150
669 0.000153
670 0.000158
671 0.000149
672 0.000147
673 0.000157
674 0.000166
675 0.000181
676 0.000189
677 0.000185
678 0.000187
679 0.000193
680 0.000195
681 0.000199
682 0.000196
683 0.000191
684 0.000179
685 0.000164
686 0.000155
687 0.000149
688 0.000141
689 0.000128
690 0.000120
691 0.000113
692 0.000113
693 0.000114
694 0.000116
695 0.000115
696 0.000105
697 0.000101
698 0.000102
699 0.000113
700 0.000113
701 0.000124
702 0.000127
703 0.000125
704 0.000135
705 0.000146
706 0.000152
707 0.000153
708 0.000150
709 0.000156
710 0.000163
711 0.000168
712 0.000165
713 0.000170
714 0.000163
715 0.000154
716 0.000149
717 0.000145
718 0.000143
719 0.000134
720 0.000126
721 0.000111
722 0.000098
723 0.000087
724 0.000076
725 0.000065
726 0.000050
727 0.000039
728 0.000034
729 0.000024
730 0.000009
731 0.000006
732 0.000002
733 -0.000005
734 -0.000015
735 -0.000027
736 -0.000036
737 -0.000033
738 -0.000039
739 -0.000048
740 -0.000054
741 -0.000047
742 -0.000035
743 -0.000024
744 -0.000016
745 -0.000015
746 -0.000015
747 -0.000019
748 -0.000019
749 -0.000019
750 -0.000014
751 -0.000011
752 -0.000008
753 -0.000003
754 0.000005
755 0.000001
756 -0.000004
757 -0.000000
758 0.000002
759 -0.000004
760 -0.000009
761 -0.000021
762 -0.000032
763 -0.000043
764 -0.000050
765 -0.000052
766 -0.000047
767 -0.000040
768 -0.000030
769 -0.000025
770 -0.000023
771 -0.000022
772 -0.000011
773 -0.000004
774 0.000002
775 0.000008
776 0.000004
777 0.000002
778 0.000001
779 0.000001
780 0.000005
781 0.000005
782 0.000008
783 0.000003
784 0.000006
785 0.000010
786 0.000009
787 0.000008
788 0.000010
789 0.000009
790 0.000012
791 0.000019
792 0.000022
793 0.000023
794 0.000021
795 0.000020
796 0.000023
797 0.000017
798 0.000016
799 0.000016
800 0.000005
801 0.000002
802 0.000011
803 0.000021
804 0.000030
805 0.000038
806 0.000045
807 0.000055
808 0.000067
809 0.000077
