# i correlation
1 0.003049
2 0.002874
3 0.002724
4 0.002607
5 0.002498
6 0.002394
7 0.002320
8 0.002252
9 0.002199
10 0.002130
11 0.002059
12 0.002001
13 0.001953
14 0.001924
15 0.001911
16 0.001894
17 0.001872
18 0.001844
19 0.001826
20 0.001795
21 0.001769
22 0.001755
23 0.001736
24 0.001720
25 0.001727
26 0.001725
27 0.001719
28 0.001715
29 0.001716
30 0.001730
31 0.001750
32 0.001753
33 0.001755
34 0.001754
35 0.001755
36 0.001738
37 0.001728
38 0.001721
39 0.001706
40 0.001711
41 0.001687
42 0.001675
43 0.001631
44 0.001622
45 0.001607
46 0.001573
47 0.001556
48 0.001541
49 0.001528
50 0.001516
51 0.001513
52 0.001504
53 0.001500
54 0.001504
55 0.001504
56 0.001514
57 0.001539
58 0.001558
59 0.001559
60 0.001546
61 0.001540
62 0.001523
63 0.001511
64 0.001494
65 0.001494
66 0.001505
67 0.001543
68 0.001572
69 0.001604
70 0.001610
71 0.001629
72 0.001654
73 0.001690
74 0.001710
75 0.001712
76 0.001710
77 0.001696
78 0.001693
79 0.001673
80 0.001675
81 0.001665
82 0.001664
83 0.001656
84 0.001648
85 0.001624
86 0.001627
87 0.001621
88 0.001601
89 0.001587
90 0.001573
91 0.001571
92 0.001556
93 0.001537
94 0.001515
95 0.001506
96 0.001497
97 0.001466
98 0.001428
99 0.001427
100 0.001424
101 0.001420
102 0.001406
103 0.001393
104 0.001358
105 0.001334
106 0.001289
107 0.001260
108 0.001249
109 0.001238
110 0.001228
111 0.001225
112 0.001220
113 0.001213
114 0.001201
115 0.001192
116 0.001197
117 0.001203
118 0.001224
119 0.001235
120 0.001254
121 0.001265
122 0.001276
123 0.001266
124 0.001271
125 0.001275
126 0.001288
127 0.001265
128 0.001271
129 0.001256
130 0.001237
131 0.001240
132 0.001223
133 0.001202
134 0.001187
135 0.001205
136 0.001196
137 0.001163
138 0.001137
139 0.001135
140 0.001132
141 0.001143
142 0.001130
143 0.001115
144 0.001090
145 0.001074
146 0.001072
147 0.001055
148 0.001012
149 0.000983
150 0.000989
151 0.000986
152 0.000962
153 0.000952
154 0.000948
155 0.000941
156 0.000937
157 0.000930
158 0.000909
159 0.000900
160 0.000904
161 0.000909
162 0.000914
163 0.000914
164 0.000918
165 0.000942
166 0.000984
167 0.001003
168 0.001007
169 0.001007
170 0.001011
171 0.001007
172 0.000990
173 0.000984
174 0.000966
175 0.000965
176 0.000969
177 0.000982
178 0.000963
179 0.000955
180 0.000948
181 0.000937
182 0.000926
183 0.000907
184 0.000889
185 0.000875
186 0.000887
187 0.000898
188 0.000886
189 0.000882
190 0.000867
191 0.000876
192 0.000889
193 0.000892
194 0.000892
195 0.000893
196 0.000869
197 0.000851
198 0.000852
199 0.000852
200 0.000859
201 0.000857
202 0.000863
203 0.000862
204 0.000885
205 0.000887
206 0.000909
207 0.000930
208 0.000966
209 0.001001
210 0.001032
211 0.001057
212 0.001072
213 0.001095
214 0.001125
215 0.001143
216 0.001141
217 0.001155
218 0.001156
219 0.001156
220 0.001138
221 0.001118
222 0.001107
223 0.001101
224 0.001091
225 0.001077
226 0.001066
227 0.001056
228 0.001045
229 0.001029
230 0.000992
231 0.000967
232 0.000929
233 0.000902
234 0.000874
235 0.000826
236 0.000787
237 0.000761
238 0.000742
239 0.000725
240 0.000707
241 0.000673
242 0.000688
243 0.000693
244 0.000700
245 0.000702
246 0.000725
247 0.000741
248 0.000772
249 0.000800
250 0.000811
251 0.000834
252 0.000847
253 0.000849
254 0.000851
255 0.000844
256 0.000840
257 0.000835
258 0.000826
259 0.000829
260 0.000843
261 0.000855
262 0.000868
263 0.000860
264 0.000871
265 0.000883
266 0.000882
267 0.000889
268 0.000902
269 0.000887
270 0.000861
271 0.000840
272 0.000798
273 0.000761
274 0.000732
275 0.000720
276 0.000719
277 0.000707
278 0.000712
279 0.000708
280 0.000706
281 0.000715
282 0.000749
283 0.000755
284 0.000770
285 0.000794
286 0.000845
287 0.000887
288 0.000918
289 0.000940
290 0.000964
291 0.000989
292 0.001006
293 0.001007
294 0.001014
295 0.001024
296 0.001039
297 0.001051
298 0.001034
299 0.001015
300 0.001004
301 0.001000
302 0.000995
303 0.000988
304 0.000977
305 0.000973
306 0.000975
307 0.000975
308 0.000942
309 0.000910
310 0.000872
311 0.000837
312 0.000817
313 0.000794
314 0.000755
315 0.000710
316 0.000679
317 0.000667
318 0.000664
319 0.000665
320 0.000675
321 0.000673
322 0.000690
323 0.000692
324 0.000687
325 0.000667
326 0.000671
327 0.000674
328 0.000675
329 0.000667
330 0.000654
331 0.000626
332 0.000619
333 0.000618
334 0.000637
335 0.000645
336 0.000657
337 0.000670
338 0.000678
339 0.000695
340 0.000680
341 0.000666
342 0.000661
343 0.000657
344 0.000668
345 0.000673
346 0.000664
347 0.000657
348 0.000658
349 0.000660
350 0.000653
351 0.000654
352 0.000657
353 0.000670
354 0.000695
355 0.000715
356 0.000720
357 0.000720
358 0.000721
359 0.000721
360 0.000713
361 0.000715
362 0.000714
363 0.000710
364 0.000730
365 0.000739
366 0.000741
367 0.000749
368 0.000766
369 0.000764
370 0.000764
371 0.000758
372 0.000738
373 0.000727
374 0.000718
375 0.000715
376 0.000704
377 0.000698
378 0.000697
379 0.000702
380 0.000713
381 0.000742
382 0.000740
383 0.000746
384 0.000748
385 0.000742
386 0.000743
387 0.000739
388 0.000726
389 0.000709
390 0.000693
391 0.000671
392 0.000656
393 0.000670
394 0.000682
395 0.000692
396 0.000702
397 0.000694
398 0.000672
399 0.000664
400 0.000643
401 0.000626
402 0.000612
403 0.000596
404 0.000593
405 0.000584
406 0.000590
407 0.000588
408 0.000612
409 0.000614
410 0.000612
411 0.000616
412 0.000621
413 0.000625
414 0.000628
415 0.000641
416 0.000644
417 0.000651
418 0.000656
419 0.000648
420 0.000641
421 0.000646
422 0.000660
423 0.000667
424 0.000671
425 0.000672
426 0.000668
427 0.000667
428 0.000661
429 0.000648
430 0.000634
431 0.000643
432 0.000653
433 0.000667
434 0.000658
435 0.000653
436 0.000654
437 0.000659
438 0.000668
439 0.000674
440 0.000686
441 0.000698
442 0.000711
443 0.000719
444 0.000716
445 0.000695
446 0.000671
447 0.000651
448 0.000649
449 0.000622
450 0.000596
451 0.000566
452 0.000546
453 0.000538
454 0.000533
455 0.000533
456 0.000517
457 0.000514
458 0.000513
459 0.000516
460 0.000525
461 0.000527
462 0.000532
463 0.000540
464 0.000537
465 0.000535
466 0.000536
467 0.000552
468 0.000565
469 0.000572
470 0.000584
471 0.000581
472 0.000587
473 0.000612
474 0.000622
475 0.000628
476 0.000641
477 0.000676
478 0.000689
479 0.000696
480 0.000711
481 0.000706
482 0.000695
483 0.000678
484 0.000670
485 0.000661
486 0.000644
487 0.000614
488 0.000591
489 0.000581
490 0.000582
491 0.000586
492 0.000573
493 0.000568
494 0.000571
495 0.000580
496 0.000597
497 0.000595
498 0.000580
499 0.000578
500 0.000575
501 0.000562
502 0.000548
503 0.000531
504 0.000533
505 0.000545
506 0.000550
507 0.000554
508 0.000545
509 0.000536
510 0.000545
511 0.000548
512 0.000548
513 0.000547
514 0.000560
515 0.000572
516 0.000579
517 0.000571
518 0.000554
519 0.000537
520 0.000514
521 0.000504
522 0.000496
523 0.000482
524 0.000478
525 0.000457
526 0.000428
527 0.000404
528 0.000389
529 0.000384
530 0.000380
531 0.000374
532 0.000369
533 0.000354
534 0.000358
535 0.000358
536 0.000373
537 0.000378
538 0.000386
539 0.000386
540 0.000390
541 0.000387
542 0.000362
543 0.000346
544 0.000340
545 0.000335
546 0.000333
547 0.000334
548 0.000339
549 0.000340
550 0.000347
551 0.000342
552 0.000341
553 0.000356
554 0.000363
555 0.000377
556 0.000380
557 0.000376
558 0.000371
559 0.000367
560 0.000357
561 0.000349
562 0.000344
563 0.000349
564 0.000357
565 0.000356
566 0.000342
567 0.000329
568 0.000323
569 0.000317
570 0.000306
571 0.000292
572 0.000304
573 0.000312
574 0.000319
575 0.000315
576 0.000308
577 0.000293
578 0.000280
579 0.000272
580 0.000259
581 0.000258
582 0.000243
583 0.000233
584 0.000211
585 0.000204
586 0.000194
587 0.000186
588 0.000207
589 0.000214
590 0.000229
591 0.000236
592 0.000234
593 0.000226
594 0.000219
595 0.000216
596 0.000213
597 0.000207
598 0.000211
599 0.000202
600 0.000170
601 0.000151
602 0.000127
603 0.000112
604 0.000106
605 0.000100
606 0.000084
607 0.000079
608 0.000076
609 0.000076
610 0.000075
611 0.000058
612 0.000048
613 0.000045
614 0.000041
615 0.000036
616 0.000025
617 0.000016
618 0.000005
619 -0.000004
620 -0.000009
621 -0.000031
622 -0.000048
623 -0.000057
624 -0.000065
625 -0.000074
626 -0.000072
627 -0.000071
628 -0.000081
629 -0.000098
630 -0.000102
631 -0.000108
632 -0.000100
633 -0.000095
634 -0.000096
635 -0.000089
636 -0.000074
637 -0.000064
638 -0.000066
639 -0.000068
640 -0.000070
641 -0.000067
642 -0.000061
643 -0.000060
644 -0.000071
645 -0.000075
646 -0.000059
647 -0.000050
648 -0.000048
649 -0.000048
650 -0.000036
651 -0.000044
652 -0.000060
653 -0.000081
654 -0.000087
655 -0.000083
656 -0.000078
657 -0.000066
658 -0.000056
659 -0.000050
660 -0.000051
661 -0.000046
662 -0.000037
663 -0.000040
664 -0.000038
665 -0.000030
666 -0.000025
667 -0.000024
668 -0.000033
669 -0.000048
670 -0.000061
671 -0.000067
672 -0.000065
673 -0.000060
674 -0.000059
675 -0.000055
676 -0.000047
677 -0.000032
678 -0.000029
679 -0.000040
680 -0.000048
681 -0.000051
682 -0.000045
683 -0.000036
684 -0.000034
685 -0.000037
686 -0.000043
687 -0.000039
688 -0.000041
689 -0.000052
690 -0.000039
691 -0.000017
692 0.000002
693 0.000006
694 0.000014
695 0.000022
696 0.000018
697 0.000012
698 0.000005
699 0.000006
700 0.000010
701 0.000009
702 0.000005
703 0.000010
704 0.000017
705 0.000021
706 0.000015
707 0.000017
708 0.000018
709 0.000018
710 0.000013
711 0.000017
712 0.000007
713 0.000007
714 -0.000001
715 0.000005
716 0.000014
717 0.000017
718 0.000016
719 0.000017
720 0.000022
721 0.000016
722 0.000020
723 0.000021
724 0.000018
725 0.000016
726 0.000004
727 -0.000001
728 -0.000006
729 0.000002
730 0.000008
731 0.000010
732 0.000011
733 0.000006
734 0.000002
735 -0.000003
736 -0.000007
737 -0.000010
738 -0.000006
739 -0.000006
740 -0.000013
741 -0.000022
742 -0.000022
743 -0.000034
744 -0.000033
745 -0.000031
746 -0.000032
747 -0.000041
748 -0.000036
749 -0.000029
750 -0.000022
751 -0.000016
752 -0.000018
753 -0.000013
754 -0.000015
755 -0.000017
756 -0.000023
757 -0.000033
758 -0.000026
759 -0.000022
760 -0.000019
761 -0.000015
762 -0.000008
763 -0.000003
764 0.000005
765 0.000011
766 0.000024
767 0.000042
768 0.000052
769 0.000054
770 0.000054
771 0.000047
772 0.000055
773 0.000057
774 0.000066
775 0.000073
776 0.000084
777 0.000090
778 0.000103
779 0.000106
780 0.000103
781 0.000105
782 0.000107
783 0.000120
784 0.000128
785 0.000137
786 0.000142
787 0.000149
788 0.000155
789 0.000159
790 0.000161
791 0.000165
792 0.000169
793 0.000169
794 0.000163
795 0.000151
796 0.000137
797 0.000131
798 0.000127
799 0.000127
800 0.000133
801 0.000126
802 0.000127
803 0.000128
804 0.000133
805 0.000135
806 0.000135
807 0.000147
808 0.000148
809 0.000151
