# i correlation
1 0.002469
2 0.002294
3 0.002160
4 0.002063
5 0.001981
6 0.001903
7 0.001835
8 0.001790
9 0.001745
10 0.001702
11 0.001637
12 0.001596
13 0.001553
14 0.001517
15 0.001482
16 0.001445
17 0.001429
18 0.001442
19 0.001444
20 0.001426
21 0.001402
22 0.001389
23 0.001405
24 0.001394
25 0.001386
26 0.001368
27 0.001346
28 0.001348
29 0.001363
30 0.001376
31 0.001384
32 0.001395
33 0.001407
34 0.001427
35 0.001428
36 0.001429
37 0.001409
38 0.001406
39 0.001420
40 0.001416
41 0.001403
42 0.001390
43 0.001403
44 0.001396
45 0.001383
46 0.001381
47 0.001377
48 0.001377
49 0.001393
50 0.001405
51 0.001433
52 0.001442
53 0.001456
54 0.001446
55 0.001427
56 0.001401
57 0.001403
58 0.001397
59 0.001396
60 0.001382
61 0.001363
62 0.001340
63 0.001321
64 0.001315
65 0.001325
66 0.001329
67 0.001312
68 0.001301
69 0.001305
70 0.001314
71 0.001302
72 0.001297
73 0.001267
74 0.001266
75 0.001268
76 0.001266
77 0.001278
78 0.001261
79 0.001265
80 0.001251
81 0.001238
82 0.001236
83 0.001239
84 0.001237
85 0.001227
86 0.001204
87 0.001187
88 0.001173
89 0.001165
90 0.001167
91 0.001162
92 0.001153
93 0.001140
94 0.001118
95 0.001105
96 0.001096
97 0.001095
98 0.001107
99 0.001112
100 0.001140
101 0.001141
102 0.001152
103 0.001135
104 0.001131
105 0.001139
106 0.001146
107 0.001163
108 0.001178
109 0.001160
110 0.001141
111 0.001111
112 0.001082
113 0.001066
114 0.001052
115 0.001051
116 0.001033
117 0.001017
118 0.000993
119 0.000988
120 0.000998
121 0.000981
122 0.000983
123 0.000986
124 0.000977
125 0.000994
126 0.000993
127 0.001020
128 0.001032
129 0.001029
130 0.001024
131 0.001016
132 0.000995
133 0.000981
134 0.000977
135 0.000976
136 0.000976
137 0.000973
138 0.000973
139 0.000992
140 0.001014
141 0.001033
142 0.001048
143 0.001073
144 0.001091
145 0.001119
146 0.001128
147 0.001117
148 0.001111
149 0.001113
150 0.001107
151 0.001110
152 0.001101
153 0.001092
154 0.001072
155 0.001055
156 0.001027
157 0.001006
158 0.000985
159 0.000978
160 0.000971
161 0.000969
162 0.000958
163 0.000947
164 0.000924
165 0.000917
166 0.000917
167 0.000917
168 0.000915
169 0.000911
170 0.000894
171 0.000852
172 0.000832
173 0.000825
174 0.000831
175 0.000839
176 0.000813
177 0.000799
178 0.000813
179 0.000850
180 0.000886
181 0.000919
182 0.000930
183 0.000928
184 0.000926
185 0.000919
186 0.000901
187 0.000898
188 0.000909
189 0.000922
190 0.000928
191 0.000941
192 0.000952
193 0.000962
194 0.000971
195 0.000964
196 0.000946
197 0.000959
198 0.000971
199 0.000994
200 0.000999
201 0.000989
202 0.000980
203 0.000952
204 0.000941
205 0.000950
206 0.000944
207 0.000928
208 0.000914
209 0.000894
210 0.000886
211 0.000882
212 0.000876
213 0.000872
214 0.000876
215 0.000871
216 0.000878
217 0.000870
218 0.000864
219 0.000848
220 0.000845
221 0.000840
222 0.000845
223 0.000856
224 0.000868
225 0.000870
226 0.000854
227 0.000853
228 0.000858
229 0.000855
230 0.000849
231 0.000844
232 0.000866
233 0.000889
234 0.000898
235 0.000909
236 0.000911
237 0.000915
238 0.000920
239 0.000938
240 0.000943
241 0.000944
242 0.000939
243 0.000928
244 0.000933
245 0.000947
246 0.000952
247 0.000960
248 0.000960
249 0.000950
250 0.000958
251 0.000969
252 0.000976
253 0.000963
254 0.000936
255 0.000900
256 0.000870
257 0.000841
258 0.000817
259 0.000806
260 0.000795
261 0.000769
262 0.000737
263 0.000714
264 0.000693
265 0.000697
266 0.000701
267 0.000696
268 0.000698
269 0.000685
270 0.000685
271 0.000692
272 0.000697
273 0.000702
274 0.000701
275 0.000721
276 0.000745
277 0.000749
278 0.000736
279 0.000721
280 0.000724
281 0.000725
282 0.000739
283 0.000742
284 0.000731
285 0.000725
286 0.000718
287 0.000709
288 0.000711
289 0.000726
290 0.000751
291 0.000759
292 0.000749
293 0.000754
294 0.000753
295 0.000766
296 0.000775
297 0.000788
298 0.000788
299 0.000803
300 0.000817
301 0.000819
302 0.000808
303 0.000796
304 0.000781
305 0.000779
306 0.000763
307 0.000752
308 0.000731
309 0.000716
310 0.000708
311 0.000699
312 0.000693
313 0.000681
314 0.000675
315 0.000658
316 0.000654
317 0.000644
318 0.000660
319 0.000670
320 0.000654
321 0.000637
322 0.000653
323 0.000648
324 0.000650
325 0.000659
326 0.000669
327 0.000690
328 0.000691
329 0.000696
330 0.000712
331 0.000720
332 0.000722
333 0.000729
334 0.000722
335 0.000719
336 0.000734
337 0.000740
338 0.000727
339 0.000710
340 0.000702
341 0.000697
342 0.000708
343 0.000699
344 0.000686
345 0.000689
346 0.000689
347 0.000700
348 0.000717
349 0.000708
350 0.000721
351 0.000738
352 0.000753
353 0.000746
354 0.000736
355 0.000720
356 0.000732
357 0.000731
358 0.000735
359 0.000741
360 0.000734
361 0.000724
362 0.000705
363 0.000682
364 0.000666
365 0.000655
366 0.000656
367 0.000661
368 0.000646
369 0.000630
370 0.000610
371 0.000601
372 0.000594
373 0.000586
374 0.000577
375 0.000570
376 0.000586
377 0.000598
378 0.000587
379 0.000591
380 0.000610
381 0.000616
382 0.000635
383 0.000641
384 0.000650
385 0.000656
386 0.000653
387 0.000631
388 0.000623
389 0.000620
390 0.000637
391 0.000651
392 0.000656
393 0.000659
394 0.000656
395 0.000675
396 0.000679
397 0.000686
398 0.000685
399 0.000684
400 0.000689
401 0.000693
402 0.000706
403 0.000715
404 0.000717
405 0.000718
406 0.000715
407 0.000724
408 0.000730
409 0.000720
410 0.000709
411 0.000697
412 0.000680
413 0.000657
414 0.000630
415 0.000596
416 0.000588
417 0.000579
418 0.000580
419 0.000581
420 0.000584
421 0.000576
422 0.000577
423 0.000564
424 0.000557
425 0.000562
426 0.000589
427 0.000607
428 0.000594
429 0.000592
430 0.000584
431 0.000560
432 0.000531
433 0.000519
434 0.000511
435 0.000512
436 0.000509
437 0.000498
438 0.000499
439 0.000505
440 0.000510
441 0.000529
442 0.000542
443 0.000564
444 0.000581
445 0.000600
446 0.000624
447 0.000648
448 0.000644
449 0.000652
450 0.000666
451 0.000663
452 0.000651
453 0.000626
454 0.000601
455 0.000589
456 0.000586
457 0.000590
458 0.000593
459 0.000596
460 0.000588
461 0.000581
462 0.000565
463 0.000556
464 0.000542
465 0.000547
466 0.000531
467 0.000527
468 0.000516
469 0.000514
470 0.000515
471 0.000507
472 0.000500
473 0.000501
474 0.000505
475 0.000514
476 0.000527
477 0.000542
478 0.000549
479 0.000562
480 0.000574
481 0.000581
482 0.000581
483 0.000568
484 0.000574
485 0.000571
486 0.000576
487 0.000576
488 0.000585
489 0.000584
490 0.000587
491 0.000585
492 0.000582
493 0.000580
494 0.000576
495 0.000564
496 0.000553
497 0.000547
498 0.000548
499 0.000555
500 0.000561
501 0.000567
502 0.000562
503 0.000552
504 0.000543
505 0.000542
506 0.000533
507 0.000528
508 0.000517
509 0.000509
510 0.000506
511 0.000498
512 0.000492
513 0.000481
514 0.000457
515 0.000434
516 0.000420
517 0.000424
518 0.000424
519 0.000423
520 0.000422
521 0.000415
522 0.000401
523 0.000380
524 0.000368
525 0.000357
526 0.000374
527 0.000400
528 0.000420
529 0.000441
530 0.000454
531 0.000473
532 0.000480
533 0.000479
534 0.000475
535 0.000478
536 0.000487
537 0.000491
538 0.000483
539 0.000474
540 0.000474
541 0.000478
542 0.000487
543 0.000485
544 0.000475
545 0.000472
546 0.000480
547 0.000492
548 0.000490
549 0.000492
550 0.000490
551 0.000500
552 0.000509
553 0.000507
554 0.000490
555 0.000491
556 0.000493
557 0.000494
558 0.000498
559 0.000492
560 0.000482
561 0.000478
562 0.000463
563 0.000469
564 0.000472
565 0.000486
566 0.000495
567 0.000486
568 0.000468
569 0.000449
570 0.000454
571 0.000470
572 0.000486
573 0.000477
574 0.000459
575 0.000461
576 0.000452
577 0.000446
578 0.000440
579 0.000429
580 0.000419
581 0.000413
582 0.000423
583 0.000425
584 0.000424
585 0.000426
586 0.000427
587 0.000418
588 0.000411
589 0.000403
590 0.000409
591 0.000416
592 0.000425
593 0.000421
594 0.000416
595 0.000411
596 0.000412
597 0.000401
598 0.000395
599 0.000379
600 0.000373
601 0.000364
602 0.000369
603 0.000361
604 0.000358
605 0.000353
606 0.000354
607 0.000354
608 0.000366
609 0.000368
610 0.000365
611 0.000358
612 0.000349
613 0.000332
614 0.000318
615 0.000317
616 0.000320
617 0.000317
618 0.000326
619 0.000337
620 0.000329
621 0.000323
622 0.000308
623 0.000292
624 0.000296
625 0.000301
626 0.000299
627 0.000316
628 0.000333
629 0.000337
630 0.000332
631 0.000323
632 0.000331
633 0.000326
634 0.000326
635 0.000325
636 0.000321
637 0.000320
638 0.000313
639 0.000305
640 0.000304
641 0.000305
642 0.000307
643 0.000304
644 0.000304
645 0.000301
646 0.000296
647 0.000306
648 0.000312
649 0.000328
650 0.000336
651 0.000344
652 0.000332
653 0.000311
654 0.000295
655 0.000285
656 0.000274
657 0.000268
658 0.000264
659 0.000273
660 0.000270
661 0.000257
662 0.000249
663 0.000246
664 0.000229
665 0.000202
666 0.000183
667 0.000176
668 0.000175
669 0.000168
670 0.000170
671 0.000167
672 0.000178
673 0.000187
674 0.000187
675 0.000180
676 0.000165
677 0.000150
678 0.000149
679 0.000155
680 0.000172
681 0.000187
682 0.000204
683 0.000222
684 0.000230
685 0.000237
686 0.000244
687 0.000241
688 0.000235
689 0.000226
690 0.000230
691 0.000238
692 0.000253
693 0.000274
694 0.000286
695 0.000299
696 0.000307
697 0.000308
698 0.000327
699 0.000337
700 0.000332
701 0.000325
702 0.000337
703 0.000338
704 0.000334
705 0.000315
706 0.000301
707 0.000290
708 0.000280
709 0.000280
710 0.000278
711 0.000282
712 0.000284
713 0.000278
714 0.000259
715 0.000241
716 0.000231
717 0.000235
718 0.000243
719 0.000245
720 0.000243
721 0.000245
722 0.000243
723 0.000244
724 0.000239
725 0.000248
726 0.000253
727 0.000271
728 0.000277
729 0.000276
730 0.000276
731 0.000275
732 0.000280
733 0.000282
734 0.000283
735 0.000281
736 0.000281
737 0.000287
738 0.000283
739 0.000273
740 0.000260
741 0.000254
742 0.000252
743 0.000249
744 0.000243
745 0.000239
746 0.000242
747 0.000247
748 0.000247
749 0.000249
750 0.000245
751 0.000247
752 0.000259
753 0.000268
754 0.000269
755 0.000274
756 0.000281
757 0.000288
758 0.000284
759 0.000284
760 0.000289
761 0.000290
762 0.000290
763 0.000287
764 0.000285
765 0.000275
766 0.000263
767 0.000249
768 0.000237
769 0.000227
770 0.000222
771 0.000224
772 0.000224
773 0.000218
774 0.000220
775 0.000215
776 0.000217
777 0.000228
778 0.000245
779 0.000258
780 0.000266
781 0.000276
782 0.000283
783 0.000293
784 0.000286
785 0.000284
786 0.000284
787 0.000287
788 0.000290
789 0.000288
790 0.000288
791 0.000284
792 0.000276
793 0.000273
794 0.000271
795 0.000274
796 0.000275
797 0.000279
798 0.000280
799 0.000283
800 0.000286
801 0.000283
802 0.000292
803 0.000309
804 0.000314
805 0.000314
806 0.000316
807 0.000319
808 0.000318
809 0.000317
