# i correlation
1 0.002031
2 0.001877
3 0.001760
4 0.001655
5 0.001571
6 0.001489
7 0.001432
8 0.001394
9 0.001348
10 0.001307
11 0.001276
12 0.001252
13 0.001229
14 0.001214
15 0.001183
16 0.001158
17 0.001136
18 0.001104
19 0.001075
20 0.001053
21 0.001046
22 0.001027
23 0.001017
24 0.000998
25 0.000991
26 0.000997
27 0.000998
28 0.000982
29 0.000973
30 0.000977
31 0.000988
32 0.000992
33 0.000975
34 0.000968
35 0.000988
36 0.000971
37 0.000953
38 0.000930
39 0.000910
40 0.000891
41 0.000862
42 0.000829
43 0.000806
44 0.000793
45 0.000789
46 0.000800
47 0.000823
48 0.000826
49 0.000812
50 0.000788
51 0.000785
52 0.000781
53 0.000770
54 0.000744
55 0.000728
56 0.000725
57 0.000702
58 0.000688
59 0.000653
60 0.000632
61 0.000621
62 0.000614
63 0.000624
64 0.000614
65 0.000615
66 0.000628
67 0.000630
68 0.000633
69 0.000638
70 0.000643
71 0.000652
72 0.000658
73 0.000672
74 0.000675
75 0.000646
76 0.000619
77 0.000599
78 0.000598
79 0.000600
80 0.000601
81 0.000607
82 0.000623
83 0.000638
84 0.000650
85 0.000664
86 0.000675
87 0.000682
88 0.000682
89 0.000680
90 0.000659
91 0.000647
92 0.000632
93 0.000633
94 0.000631
95 0.000648
96 0.000667
97 0.000671
98 0.000690
99 0.000719
100 0.000751
101 0.000778
102 0.000777
103 0.000780
104 0.000770
105 0.000747
106 0.000733
107 0.000729
108 0.000739
109 0.000739
110 0.000722
111 0.000721
112 0.000722
113 0.000721
114 0.000732
115 0.000740
116 0.000746
117 0.000736
118 0.000733
119 0.000735
120 0.000750
121 0.000763
122 0.000767
123 0.000759
124 0.000750
125 0.000731
126 0.000714
127 0.000681
128 0.000660
129 0.000643
130 0.000625
131 0.000628
132 0.000646
133 0.000667
134 0.000681
135 0.000704
136 0.000720
137 0.000719
138 0.000728
139 0.000740
140 0.000741
141 0.000744
142 0.000732
143 0.000736
144 0.000728
145 0.000728
146 0.000733
147 0.000763
148 0.000778
149 0.000790
150 0.000789
151 0.000795
152 0.000816
153 0.000826
154 0.000828
155 0.000836
156 0.000835
157 0.000814
158 0.000783
159 0.000742
160 0.000708
161 0.000691
162 0.000657
163 0.000648
164 0.000651
165 0.000650
166 0.000649
167 0.000672
168 0.000699
169 0.000716
170 0.000727
171 0.000720
172 0.000704
173 0.000694
174 0.000679
175 0.000653
176 0.000624
177 0.000616
178 0.000611
179 0.000630
180 0.000642
181 0.000640
182 0.000652
183 0.000659
184 0.000666
185 0.000671
186 0.000681
187 0.000691
188 0.000710
189 0.000709
190 0.000703
191 0.000695
192 0.000689
193 0.000672
194 0.000671
195 0.000663
196 0.000660
197 0.000635
198 0.000620
199 0.000616
200 0.000616
201 0.000603
202 0.000598
203 0.000597
204 0.000589
205 0.000581
206 0.000547
207 0.000514
208 0.000492
209 0.000491
210 0.000485
211 0.000475
212 0.000464
213 0.000443
214 0.000428
215 0.000428
216 0.000433
217 0.000456
218 0.000484
219 0.000514
220 0.000544
221 0.000573
222 0.000580
223 0.000570
224 0.000549
225 0.000543
226 0.000534
227 0.000518
228 0.000514
229 0.000511
230 0.000513
231 0.000493
232 0.000455
233 0.000426
234 0.000411
235 0.000409
236 0.000409
237 0.000413
238 0.000421
239 0.000410
240 0.000407
241 0.000397
242 0.000393
243 0.000402
244 0.000398
245 0.000378
246 0.000373
247 0.000370
248 0.000384
249 0.000385
250 0.000381
251 0.000393
252 0.000421
253 0.000434
254 0.000450
255 0.000463
256 0.000494
257 0.000519
258 0.000525
259 0.000524
260 0.000522
261 0.000522
262 0.000496
263 0.000475
264 0.000446
265 0.000439
266 0.000431
267 0.000433
268 0.000438
269 0.000435
270 0.000436
271 0.000435
272 0.000434
273 0.000435
274 0.000431
275 0.000427
276 0.000414
277 0.000413
278 0.000417
279 0.000420
280 0.000409
281 0.000395
282 0.000385
283 0.000382
284 0.000393
285 0.000402
286 0.000415
287 0.000433
288 0.000451
289 0.000474
290 0.000484
291 0.000510
292 0.000541
293 0.000548
294 0.000562
295 0.000563
296 0.000571
297 0.000557
298 0.000530
299 0.000514
300 0.000507
301 0.000502
302 0.000491
303 0.000482
304 0.000482
305 0.000486
306 0.000489
307 0.000486
308 0.000494
309 0.000474
310 0.000457
311 0.000440
312 0.000427
313 0.000403
314 0.000383
315 0.000360
316 0.000356
317 0.000354
318 0.000362
319 0.000361
320 0.000370
321 0.000385
322 0.000388
323 0.000383
324 0.000388
325 0.000378
326 0.000368
327 0.000363
328 0.000359
329 0.000346
330 0.000319
331 0.000314
332 0.000301
333 0.000297
334 0.000313
335 0.000325
336 0.000323
337 0.000326
338 0.000338
339 0.000337
340 0.000334
341 0.000341
342 0.000336
343 0.000349
344 0.000356
345 0.000359
346 0.000340
347 0.000334
348 0.000328
349 0.000300
350 0.000280
351 0.000277
352 0.000297
353 0.000302
354 0.000296
355 0.000301
356 0.000307
357 0.000319
358 0.000318
359 0.000327
360 0.000328
361 0.000331
362 0.000322
363 0.000307
364 0.000300
365 0.000285
366 0.000283
367 0.000292
368 0.000302
369 0.000321
370 0.000348
371 0.000360
372 0.000364
373 0.000368
374 0.000385
375 0.000397
376 0.000403
377 0.000399
378 0.000404
379 0.000412
380 0.000422
381 0.000429
382 0.000443
383 0.000455
384 0.000459
385 0.000454
386 0.000442
387 0.000431
388 0.000418
389 0.000419
390 0.000419
391 0.000431
392 0.000435
393 0.000430
394 0.000442
395 0.000446
396 0.000444
397 0.000438
398 0.000416
399 0.000404
400 0.000389
401 0.000380
402 0.000363
403 0.000364
404 0.000366
405 0.000361
406 0.000365
407 0.000372
408 0.000393
409 0.000409
410 0.000415
411 0.000414
412 0.000411
413 0.000416
414 0.000418
415 0.000397
416 0.000381
417 0.000372
418 0.000355
419 0.000337
420 0.000318
421 0.000306
422 0.000310
423 0.000297
424 0.000296
425 0.000291
426 0.000275
427 0.000283
428 0.000268
429 0.000261
430 0.000267
431 0.000267
432 0.000274
433 0.000272
434 0.000264
435 0.000259
436 0.000253
437 0.000245
438 0.000237
439 0.000238
440 0.000245
441 0.000262
442 0.000279
443 0.000298
444 0.000323
445 0.000322
446 0.000317
447 0.000313
448 0.000315
449 0.000315
450 0.000298
451 0.000287
452 0.000284
453 0.000282
454 0.000269
455 0.000264
456 0.000261
457 0.000268
458 0.000266
459 0.000266
460 0.000275
461 0.000279
462 0.000270
463 0.000270
464 0.000258
465 0.000256
466 0.000244
467 0.000237
468 0.000230
469 0.000227
470 0.000224
471 0.000227
472 0.000236
473 0.000235
474 0.000238
475 0.000250
476 0.000261
477 0.000272
478 0.000292
479 0.000319
480 0.000337
481 0.000353
482 0.000363
483 0.000364
484 0.000364
485 0.000363
486 0.000354
487 0.000344
488 0.000342
489 0.000333
490 0.000330
491 0.000326
492 0.000329
493 0.000320
494 0.000292
495 0.000291
496 0.000292
497 0.000280
498 0.000260
499 0.000242
500 0.000234
501 0.000219
502 0.000205
503 0.000195
504 0.000204
505 0.000207
506 0.000217
507 0.000224
508 0.000225
509 0.000244
510 0.000254
511 0.000260
512 0.000263
513 0.000272
514 0.000284
515 0.000297
516 0.000311
517 0.000333
518 0.000346
519 0.000340
520 0.000336
521 0.000326
522 0.000330
523 0.000330
524 0.000329
525 0.000324
526 0.000322
527 0.000314
528 0.000301
529 0.000283
530 0.000280
531 0.000269
532 0.000261
533 0.000248
534 0.000223
535 0.000204
536 0.000193
537 0.000194
538 0.000205
539 0.000209
540 0.000213
541 0.000212
542 0.000195
543 0.000185
544 0.000175
545 0.000170
546 0.000171
547 0.000160
548 0.000159
549 0.000159
550 0.000151
551 0.000143
552 0.000146
553 0.000146
554 0.000129
555 0.000110
556 0.000107
557 0.000107
558 0.000102
559 0.000097
560 0.000089
561 0.000081
562 0.000090
563 0.000096
564 0.000115
565 0.000122
566 0.000125
567 0.000115
568 0.000101
569 0.000093
570 0.000093
571 0.000093
572 0.000089
573 0.000088
574 0.000089
575 0.000089
576 0.000091
577 0.000090
578 0.000100
579 0.000107
580 0.000119
581 0.000129
582 0.000128
583 0.000140
584 0.000143
585 0.000143
586 0.000138
587 0.000144
588 0.000156
589 0.000163
590 0.000161
591 0.000172
592 0.000182
593 0.000192
594 0.000188
595 0.000192
596 0.000200
597 0.000213
598 0.000214
599 0.000221
600 0.000228
601 0.000239
602 0.000241
603 0.000236
604 0.000248
605 0.000262
606 0.000267
607 0.000256
608 0.000248
609 0.000242
610 0.000238
611 0.000238
612 0.000245
613 0.000257
614 0.000261
615 0.000263
616 0.000261
617 0.000249
618 0.000239
619 0.000235
620 0.000234
621 0.000233
622 0.000234
623 0.000242
624 0.000250
625 0.000260
626 0.000270
627 0.000290
628 0.000300
629 0.000310
630 0.000330
631 0.000351
632 0.000382
633 0.000403
634 0.000422
635 0.000425
636 0.000425
637 0.000434
638 0.000437
639 0.000436
640 0.000436
641 0.000431
642 0.000428
643 0.000423
644 0.000418
645 0.000413
646 0.000405
647 0.000391
648 0.000374
649 0.000368
650 0.000360
651 0.000354
652 0.000356
653 0.000351
654 0.000339
655 0.000328
656 0.000315
657 0.000302
658 0.000289
659 0.000283
660 0.000286
661 0.000293
662 0.000308
663 0.000315
664 0.000322
665 0.000328
666 0.000318
667 0.000305
668 0.000292
669 0.000291
670 0.000290
671 0.000294
672 0.000305
673 0.000319
674 0.000325
675 0.000330
676 0.000331
677 0.000329
678 0.000333
679 0.000342
680 0.000344
681 0.000349
682 0.000345
683 0.000341
684 0.000342
685 0.000346
686 0.000356
687 0.000355
688 0.000353
689 0.000340
690 0.000335
691 0.000332
692 0.000333
693 0.000324
694 0.000305
695 0.000299
696 0.000288
697 0.000275
698 0.000263
699 0.000258
700 0.000261
701 0.000269
702 0.000258
703 0.000243
704 0.000234
705 0.000224
706 0.000219
707 0.000211
708 0.000200
709 0.000206
710 0.000202
711 0.000182
712 0.000178
713 0.000177
714 0.000177
715 0.000180
716 0.000185
717 0.000182
718 0.000182
719 0.000177
720 0.000179
721 0.000183
722 0.000178
723 0.000165
724 0.000151
725 0.000141
726 0.000136
727 0.000131
728 0.000123
729 0.000112
730 0.000112
731 0.000118
732 0.000122
733 0.000125
734 0.000124
735 0.000133
736 0.000145
737 0.000148
738 0.000156
739 0.000158
740 0.000154
741 0.000157
742 0.000152
743 0.000148
744 0.000154
745 0.000154
746 0.000148
747 0.000152
748 0.000149
749 0.000146
750 0.000141
751 0.000135
752 0.000136
753 0.000136
754 0.000127
755 0.000113
756 0.000102
757 0.000096
758 0.000089
759 0.000075
760 0.000066
761 0.000064
762 0.000060
763 0.000051
764 0.000044
765 0.000049
766 0.000064
767 0.000074
768 0.000085
769 0.000093
770 0.000101
771 0.000106
772 0.000121
773 0.000140
774 0.000151
775 0.000160
776 0.000167
777 0.000176
778 0.000185
779 0.000197
780 0.000206
781 0.000217
782 0.000219
783 0.000222
784 0.000230
785 0.000234
786 0.000232
787 0.000234
788 0.000240
789 0.000248
790 0.000248
791 0.000244
792 0.000243
793 0.000249
794 0.000253
795 0.000252
796 0.000250
797 0.000239
798 0.000226
799 0.000216
800 0.000209
801 0.000208
802 0.000208
803 0.000203
804 0.000206
805 0.000212
806 0.000209
807 0.000202
808 0.000201
809 0.000204
