# i correlation
1 0.002571
2 0.002410
3 0.002266
4 0.002156
5 0.002065
6 0.001989
7 0.001918
8 0.001866
9 0.001832
10 0.001819
11 0.001806
12 0.001776
13 0.001770
14 0.001758
15 0.001749
16 0.001738
17 0.001722
18 0.001697
19 0.001693
20 0.001674
21 0.001656
22 0.001630
23 0.001619
24 0.001615
25 0.001596
26 0.001580
27 0.001562
28 0.001532
29 0.001508
30 0.001468
31 0.001445
32 0.001416
33 0.001392
34 0.001375
35 0.001362
36 0.001359
37 0.001353
38 0.001350
39 0.001333
40 0.001325
41 0.001321
42 0.001308
43 0.001287
44 0.001263
45 0.001241
46 0.001223
47 0.001215
48 0.001215
49 0.001214
50 0.001211
51 0.001192
52 0.001174
53 0.001162
54 0.001147
55 0.001124
56 0.001106
57 0.001104
58 0.001111
59 0.001109
60 0.001118
61 0.001126
62 0.001124
63 0.001114
64 0.001087
65 0.001062
66 0.001042
67 0.001038
68 0.001031
69 0.001023
70 0.001018
71 0.001001
72 0.000985
73 0.000971
74 0.000979
75 0.000976
76 0.000983
77 0.000988
78 0.000984
79 0.000968
80 0.000957
81 0.000960
82 0.000969
83 0.000973
84 0.000959
85 0.000933
86 0.000906
87 0.000892
88 0.000875
89 0.000866
90 0.000857
91 0.000852
92 0.000842
93 0.000860
94 0.000890
95 0.000917
96 0.000934
97 0.000938
98 0.000928
99 0.000928
100 0.000928
101 0.000930
102 0.000916
103 0.000899
104 0.000876
105 0.000860
106 0.000843
107 0.000836
108 0.000832
109 0.000817
110 0.000809
111 0.000808
112 0.000818
113 0.000819
114 0.000819
115 0.000825
116 0.000814
117 0.000797
118 0.000793
119 0.000778
120 0.000755
121 0.000738
122 0.000735
123 0.000760
124 0.000802
125 0.000841
126 0.000858
127 0.000855
128 0.000859
129 0.000859
130 0.000855
131 0.000846
132 0.000851
133 0.000850
134 0.000857
135 0.000856
136 0.000856
137 0.000852
138 0.000856
139 0.000887
140 0.000903
141 0.000905
142 0.000911
143 0.000929
144 0.000965
145 0.000992
146 0.000997
147 0.000988
148 0.000971
149 0.000971
150 0.000962
151 0.000962
152 0.000958
153 0.000966
154 0.000986
155 0.001004
156 0.001002
157 0.001002
158 0.000994
159 0.000986
160 0.000990
161 0.000985
162 0.000967
163 0.000947
164 0.000940
165 0.000935
166 0.000935
167 0.000925
168 0.000927
169 0.000913
170 0.000918
171 0.000931
172 0.000943
173 0.000957
174 0.000964
175 0.000970
176 0.000970
177 0.000969
178 0.000968
179 0.000947
180 0.000919
181 0.000906
182 0.000892
183 0.000889
184 0.000891
185 0.000892
186 0.000890
187 0.000882
188 0.000856
189 0.000843
190 0.000848
191 0.000849
192 0.000866
193 0.000877
194 0.000889
195 0.000905
196 0.000908
197 0.000908
198 0.000895
199 0.000896
200 0.000905
201 0.000919
202 0.000944
203 0.000950
204 0.000950
205 0.000950
206 0.000954
207 0.000953
208 0.000951
209 0.000932
210 0.000901
211 0.000882
212 0.000866
213 0.000858
214 0.000841
215 0.000840
216 0.000835
217 0.000836
218 0.000839
219 0.000855
220 0.000875
221 0.000899
222 0.000911
223 0.000932
224 0.000936
225 0.000938
226 0.000930
227 0.000909
228 0.000905
229 0.000887
230 0.000863
231 0.000844
232 0.000818
233 0.000786
234 0.000767
235 0.000752
236 0.000728
237 0.000707
238 0.000693
239 0.000695
240 0.000690
241 0.000692
242 0.000699
243 0.000700
244 0.000695
245 0.000690
246 0.000679
247 0.000668
248 0.000654
249 0.000654
250 0.000652
251 0.000646
252 0.000657
253 0.000663
254 0.000680
255 0.000689
256 0.000700
257 0.000713
258 0.000707
259 0.000711
260 0.000714
261 0.000715
262 0.000707
263 0.000703
264 0.000689
265 0.000679
266 0.000665
267 0.000647
268 0.000632
269 0.000633
270 0.000648
271 0.000641
272 0.000635
273 0.000640
274 0.000641
275 0.000651
276 0.000670
277 0.000680
278 0.000702
279 0.000725
280 0.000762
281 0.000773
282 0.000772
283 0.000779
284 0.000780
285 0.000783
286 0.000780
287 0.000760
288 0.000741
289 0.000742
290 0.000751
291 0.000758
292 0.000753
293 0.000743
294 0.000729
295 0.000724
296 0.000739
297 0.000759
298 0.000776
299 0.000800
300 0.000814
301 0.000829
302 0.000847
303 0.000863
304 0.000884
305 0.000888
306 0.000886
307 0.000881
308 0.000871
309 0.000847
310 0.000817
311 0.000797
312 0.000782
313 0.000769
314 0.000774
315 0.000784
316 0.000790
317 0.000805
318 0.000818
319 0.000822
320 0.000831
321 0.000831
322 0.000827
323 0.000815
324 0.000796
325 0.000774
326 0.000759
327 0.000759
328 0.000769
329 0.000770
330 0.000780
331 0.000788
332 0.000791
333 0.000783
334 0.000768
335 0.000753
336 0.000739
337 0.000728
338 0.000730
339 0.000720
340 0.000711
341 0.000707
342 0.000695
343 0.000686
344 0.000685
345 0.000675
346 0.000679
347 0.000682
348 0.000675
349 0.000674
350 0.000688
351 0.000684
352 0.000680
353 0.000674
354 0.000683
355 0.000682
356 0.000675
357 0.000675
358 0.000676
359 0.000672
360 0.000664
361 0.000651
362 0.000637
363 0.000618
364 0.000611
365 0.000609
366 0.000600
367 0.000601
368 0.000598
369 0.000596
370 0.000592
371 0.000584
372 0.000568
373 0.000559
374 0.000553
375 0.000560
376 0.000557
377 0.000562
378 0.000576
379 0.000582
380 0.000571
381 0.000567
382 0.000552
383 0.000534
384 0.000511
385 0.000494
386 0.000492
387 0.000480
388 0.000473
389 0.000463
390 0.000450
391 0.000446
392 0.000437
393 0.000435
394 0.000442
395 0.000438
396 0.000432
397 0.000417
398 0.000423
399 0.000432
400 0.000424
401 0.000415
402 0.000396
403 0.000381
404 0.000374
405 0.000377
406 0.000373
407 0.000357
408 0.000340
409 0.000329
410 0.000323
411 0.000308
412 0.000296
413 0.000290
414 0.000287
415 0.000291
416 0.000295
417 0.000294
418 0.000297
419 0.000297
420 0.000301
421 0.000302
422 0.000308
423 0.000299
424 0.000310
425 0.000311
426 0.000314
427 0.000320
428 0.000326
429 0.000335
430 0.000343
431 0.000347
432 0.000354
433 0.000353
434 0.000335
435 0.000327
436 0.000330
437 0.000329
438 0.000331
439 0.000337
440 0.000338
441 0.000349
442 0.000346
443 0.000347
444 0.000345
445 0.000333
446 0.000330
447 0.000335
448 0.000330
449 0.000321
450 0.000308
451 0.000311
452 0.000316
453 0.000318
454 0.000323
455 0.000325
456 0.000330
457 0.000338
458 0.000344
459 0.000333
460 0.000334
461 0.000324
462 0.000334
463 0.000333
464 0.000318
465 0.000306
466 0.000295
467 0.000277
468 0.000257
469 0.000235
470 0.000224
471 0.000202
472 0.000187
473 0.000177
474 0.000161
475 0.000169
476 0.000179
477 0.000191
478 0.000204
479 0.000213
480 0.000227
481 0.000227
482 0.000240
483 0.000247
484 0.000255
485 0.000250
486 0.000247
487 0.000231
488 0.000215
489 0.000214
490 0.000210
491 0.000214
492 0.000215
493 0.000225
494 0.000232
495 0.000230
496 0.000213
497 0.000191
498 0.000188
499 0.000190
500 0.000195
501 0.000203
502 0.000207
503 0.000215
504 0.000242
505 0.000274
506 0.000308
507 0.000328
508 0.000341
509 0.000349
510 0.000348
511 0.000346
512 0.000339
513 0.000327
514 0.000317
515 0.000317
516 0.000305
517 0.000305
518 0.000302
519 0.000302
520 0.000313
521 0.000317
522 0.000335
523 0.000360
524 0.000380
525 0.000395
526 0.000396
527 0.000391
528 0.000397
529 0.000393
530 0.000397
531 0.000390
532 0.000390
533 0.000395
534 0.000396
535 0.000397
536 0.000400
537 0.000404
538 0.000411
539 0.000427
540 0.000438
541 0.000437
542 0.000431
543 0.000436
544 0.000437
545 0.000440
546 0.000439
547 0.000440
548 0.000430
549 0.000427
550 0.000413
551 0.000399
552 0.000386
553 0.000391
554 0.000400
555 0.000397
556 0.000392
557 0.000380
558 0.000371
559 0.000368
560 0.000367
561 0.000373
562 0.000375
563 0.000382
564 0.000383
565 0.000386
566 0.000386
567 0.000382
568 0.000363
569 0.000348
570 0.000330
571 0.000321
572 0.000315
573 0.000318
574 0.000317
575 0.000320
576 0.000323
577 0.000328
578 0.000345
579 0.000345
580 0.000345
581 0.000349
582 0.000352
583 0.000344
584 0.000341
585 0.000334
586 0.000330
587 0.000332
588 0.000337
589 0.000334
590 0.000337
591 0.000330
592 0.000324
593 0.000323
594 0.000324
595 0.000316
596 0.000303
597 0.000308
598 0.000311
599 0.000314
600 0.000319
601 0.000334
602 0.000350
603 0.000369
604 0.000373
605 0.000382
606 0.000393
607 0.000410
608 0.000412
609 0.000398
610 0.000380
611 0.000377
612 0.000377
613 0.000367
614 0.000360
615 0.000344
616 0.000338
617 0.000344
618 0.000351
619 0.000363
620 0.000360
621 0.000350
622 0.000344
623 0.000336
624 0.000337
625 0.000329
626 0.000332
627 0.000330
628 0.000324
629 0.000305
630 0.000299
631 0.000286
632 0.000270
633 0.000255
634 0.000244
635 0.000241
636 0.000241
637 0.000246
638 0.000241
639 0.000236
640 0.000229
641 0.000223
642 0.000203
643 0.000202
644 0.000201
645 0.000203
646 0.000199
647 0.000208
648 0.000223
649 0.000240
650 0.000253
651 0.000255
652 0.000255
653 0.000260
654 0.000263
655 0.000277
656 0.000295
657 0.000302
658 0.000304
659 0.000298
660 0.000292
661 0.000289
662 0.000295
663 0.000288
664 0.000288
665 0.000274
666 0.000261
667 0.000249
668 0.000244
669 0.000238
670 0.000229
671 0.000217
672 0.000215
673 0.000205
674 0.000188
675 0.000174
676 0.000159
677 0.000153
678 0.000151
679 0.000162
680 0.000162
681 0.000169
682 0.000167
683 0.000163
684 0.000157
685 0.000153
686 0.000148
687 0.000139
688 0.000139
689 0.000140
690 0.000140
691 0.000137
692 0.000131
693 0.000135
694 0.000136
695 0.000133
696 0.000133
697 0.000135
698 0.000138
699 0.000141
700 0.000141
701 0.000139
702 0.000140
703 0.000132
704 0.000129
705 0.000130
706 0.000130
707 0.000128
708 0.000130
709 0.000137
710 0.000137
711 0.000130
712 0.000125
713 0.000125
714 0.000122
715 0.000123
716 0.000111
717 0.000101
718 0.000103
719 0.000113
720 0.000123
721 0.000131
722 0.000143
723 0.000152
724 0.000153
725 0.000153
726 0.000148
727 0.000140
728 0.000129
729 0.000127
730 0.000126
731 0.000131
732 0.000146
733 0.000162
734 0.000170
735 0.000171
736 0.000176
737 0.000181
738 0.000178
739 0.000174
740 0.000173
741 0.000160
742 0.000156
743 0.000155
744 0.000153
745 0.000156
746 0.000163
747 0.000164
748 0.000169
749 0.000171
750 0.000177
751 0.000188
752 0.000199
753 0.000202
754 0.000200
755 0.000197
756 0.000207
757 0.000209
758 0.000216
759 0.000225
760 0.000230
761 0.000238
762 0.000250
763 0.000263
764 0.000267
765 0.000268
766 0.000261
767 0.000245
768 0.000233
769 0.000222
770 0.000205
771 0.000194
772 0.000188
773 0.000181
774 0.000180
775 0.000176
776 0.000167
777 0.000154
778 0.000133
779 0.000115
780 0.000100
781 0.000087
782 0.000079
783 0.000076
784 0.000075
785 0.000080
786 0.000083
787 0.000078
788 0.000070
789 0.000069
790 0.000064
791 0.000050
792 0.000047
793 0.000044
794 0.000045
795 0.000047
796 0.000054
797 0.000059
798 0.000064
799 0.000070
800 0.000072
801 0.000070
802 0.000066
803 0.000062
804 0.000057
805 0.000057
806 0.000056
807 0.000052
808 0.000051
809 0.000055
