# i correlation
1 0.002261
2 0.002096
3 0.001983
4 0.001883
5 0.001804
6 0.001750
7 0.001687
8 0.001624
9 0.001568
10 0.001534
11 0.001518
12 0.001521
13 0.001501
14 0.001483
15 0.001456
16 0.001435
17 0.001422
18 0.001391
19 0.001364
20 0.001342
21 0.001316
22 0.001287
23 0.001245
24 0.001208
25 0.001188
26 0.001177
27 0.001170
28 0.001172
29 0.001183
30 0.001190
31 0.001192
32 0.001177
33 0.001157
34 0.001147
35 0.001139
36 0.001126
37 0.001114
38 0.001087
39 0.001058
40 0.001057
41 0.001064
42 0.001071
43 0.001058
44 0.001061
45 0.001041
46 0.001023
47 0.001026
48 0.001014
49 0.001008
50 0.001006
51 0.000985
52 0.000975
53 0.000995
54 0.001005
55 0.001014
56 0.001005
57 0.000998
58 0.000992
59 0.001015
60 0.001022
61 0.001023
62 0.001009
63 0.000991
64 0.000976
65 0.000960
66 0.000957
67 0.000952
68 0.000940
69 0.000934
70 0.000940
71 0.000940
72 0.000960
73 0.000982
74 0.000999
75 0.001012
76 0.001024
77 0.001042
78 0.001048
79 0.001038
80 0.001032
81 0.001034
82 0.001028
83 0.001001
84 0.000998
85 0.000991
86 0.000989
87 0.000985
88 0.000996
89 0.000996
90 0.000994
91 0.000986
92 0.000976
93 0.000964
94 0.000956
95 0.000944
96 0.000937
97 0.000947
98 0.000949
99 0.000947
100 0.000942
101 0.000950
102 0.000947
103 0.000960
104 0.000973
105 0.000987
106 0.000997
107 0.001000
108 0.000998
109 0.001000
110 0.001009
111 0.001003
112 0.001003
113 0.001005
114 0.001027
115 0.001035
116 0.001026
117 0.001015
118 0.001003
119 0.000986
120 0.000973
121 0.000967
122 0.000965
123 0.000972
124 0.000947
125 0.000920
126 0.000908
127 0.000895
128 0.000876
129 0.000846
130 0.000841
131 0.000847
132 0.000833
133 0.000822
134 0.000828
135 0.000822
136 0.000809
137 0.000793
138 0.000760
139 0.000729
140 0.000706
141 0.000694
142 0.000685
143 0.000673
144 0.000657
145 0.000646
146 0.000635
147 0.000625
148 0.000639
149 0.000643
150 0.000649
151 0.000653
152 0.000673
153 0.000705
154 0.000730
155 0.000738
156 0.000750
157 0.000770
158 0.000790
159 0.000805
160 0.000826
161 0.000825
162 0.000827
163 0.000827
164 0.000830
165 0.000828
166 0.000820
167 0.000818
168 0.000814
169 0.000795
170 0.000795
171 0.000788
172 0.000779
173 0.000785
174 0.000783
175 0.000769
176 0.000755
177 0.000722
178 0.000688
179 0.000653
180 0.000633
181 0.000613
182 0.000602
183 0.000590
184 0.000597
185 0.000611
186 0.000615
187 0.000610
188 0.000612
189 0.000616
190 0.000620
191 0.000622
192 0.000627
193 0.000624
194 0.000626
195 0.000645
196 0.000659
197 0.000654
198 0.000636
199 0.000605
200 0.000583
201 0.000579
202 0.000596
203 0.000620
204 0.000621
205 0.000594
206 0.000557
207 0.000546
208 0.000548
209 0.000555
210 0.000563
211 0.000556
212 0.000536
213 0.000514
214 0.000482
215 0.000484
216 0.000499
217 0.000517
218 0.000508
219 0.000477
220 0.000466
221 0.000455
222 0.000472
223 0.000493
224 0.000510
225 0.000526
226 0.000530
227 0.000548
228 0.000559
229 0.000578
230 0.000613
231 0.000619
232 0.000622
233 0.000627
234 0.000623
235 0.000624
236 0.000631
237 0.000638
238 0.000640
239 0.000661
240 0.000678
241 0.000686
242 0.000675
243 0.000675
244 0.000674
245 0.000681
246 0.000696
247 0.000697
248 0.000689
249 0.000666
250 0.000657
251 0.000657
252 0.000658
253 0.000665
254 0.000661
255 0.000656
256 0.000636
257 0.000632
258 0.000633
259 0.000618
260 0.000615
261 0.000620
262 0.000625
263 0.000619
264 0.000617
265 0.000622
266 0.000616
267 0.000616
268 0.000614
269 0.000602
270 0.000609
271 0.000622
272 0.000642
273 0.000658
274 0.000652
275 0.000631
276 0.000642
277 0.000657
278 0.000659
279 0.000646
280 0.000632
281 0.000610
282 0.000589
283 0.000584
284 0.000587
285 0.000593
286 0.000584
287 0.000569
288 0.000563
289 0.000556
290 0.000563
291 0.000565
292 0.000563
293 0.000556
294 0.000542
295 0.000527
296 0.000503
297 0.000482
298 0.000466
299 0.000451
300 0.000441
301 0.000435
302 0.000421
303 0.000398
304 0.000382
305 0.000355
306 0.000328
307 0.000340
308 0.000350
309 0.000349
310 0.000357
311 0.000336
312 0.000333
313 0.000331
314 0.000326
315 0.000318
316 0.000313
317 0.000324
318 0.000331
319 0.000329
320 0.000342
321 0.000351
322 0.000354
323 0.000347
324 0.000337
325 0.000340
326 0.000353
327 0.000367
328 0.000374
329 0.000381
330 0.000394
331 0.000417
332 0.000441
333 0.000458
334 0.000471
335 0.000474
336 0.000467
337 0.000461
338 0.000478
339 0.000489
340 0.000498
341 0.000499
342 0.000502
343 0.000506
344 0.000511
345 0.000515
346 0.000518
347 0.000521
348 0.000530
349 0.000548
350 0.000570
351 0.000585
352 0.000605
353 0.000621
354 0.000627
355 0.000618
356 0.000608
357 0.000603
358 0.000601
359 0.000588
360 0.000577
361 0.000587
362 0.000601
363 0.000612
364 0.000619
365 0.000614
366 0.000609
367 0.000613
368 0.000600
369 0.000588
370 0.000585
371 0.000576
372 0.000549
373 0.000530
374 0.000498
375 0.000483
376 0.000475
377 0.000466
378 0.000450
379 0.000434
380 0.000424
381 0.000421
382 0.000417
383 0.000409
384 0.000400
385 0.000394
386 0.000374
387 0.000381
388 0.000402
389 0.000415
390 0.000416
391 0.000415
392 0.000421
393 0.000437
394 0.000453
395 0.000474
396 0.000481
397 0.000477
398 0.000480
399 0.000514
400 0.000534
401 0.000531
402 0.000521
403 0.000508
404 0.000495
405 0.000483
406 0.000481
407 0.000479
408 0.000468
409 0.000451
410 0.000433
411 0.000418
412 0.000419
413 0.000430
414 0.000444
415 0.000456
416 0.000452
417 0.000445
418 0.000432
419 0.000440
420 0.000448
421 0.000442
422 0.000430
423 0.000413
424 0.000414
425 0.000424
426 0.000430
427 0.000431
428 0.000427
429 0.000412
430 0.000417
431 0.000429
432 0.000438
433 0.000436
434 0.000439
435 0.000436
436 0.000426
437 0.000415
438 0.000396
439 0.000381
440 0.000372
441 0.000372
442 0.000368
443 0.000379
444 0.000388
445 0.000384
446 0.000399
447 0.000411
448 0.000422
449 0.000438
450 0.000459
451 0.000452
452 0.000440
453 0.000434
454 0.000439
455 0.000444
456 0.000442
457 0.000438
458 0.000429
459 0.000417
460 0.000413
461 0.000425
462 0.000434
463 0.000442
464 0.000440
465 0.000443
466 0.000448
467 0.000449
468 0.000454
469 0.000446
470 0.000439
471 0.000433
472 0.000421
473 0.000414
474 0.000413
475 0.000426
476 0.000428
477 0.000428
478 0.000428
479 0.000424
480 0.000424
481 0.000432
482 0.000432
483 0.000433
484 0.000437
485 0.000424
486 0.000411
487 0.000407
488 0.000390
489 0.000367
490 0.000357
491 0.000342
492 0.000322
493 0.000318
494 0.000333
495 0.000342
496 0.000361
497 0.000379
498 0.000394
499 0.000383
500 0.000370
501 0.000378
502 0.000384
503 0.000400
504 0.000409
505 0.000411
506 0.000406
507 0.000416
508 0.000422
509 0.000425
510 0.000433
511 0.000434
512 0.000426
513 0.000428
514 0.000427
515 0.000431
516 0.000438
517 0.000432
518 0.000437
519 0.000435
520 0.000440
521 0.000437
522 0.000426
523 0.000428
524 0.000442
525 0.000459
526 0.000472
527 0.000481
528 0.000478
529 0.000475
530 0.000484
531 0.000492
532 0.000490
533 0.000477
534 0.000468
535 0.000464
536 0.000456
537 0.000463
538 0.000477
539 0.000485
540 0.000493
541 0.000498
542 0.000498
543 0.000500
544 0.000484
545 0.000482
546 0.000460
547 0.000454
548 0.000455
549 0.000452
550 0.000440
551 0.000448
552 0.000447
553 0.000459
554 0.000457
555 0.000468
556 0.000485
557 0.000496
558 0.000498
559 0.000488
560 0.000489
561 0.000483
562 0.000479
563 0.000476
564 0.000474
565 0.000489
566 0.000488
567 0.000490
568 0.000504
569 0.000506
570 0.000505
571 0.000500
572 0.000501
573 0.000502
574 0.000512
575 0.000507
576 0.000490
577 0.000476
578 0.000462
579 0.000446
580 0.000446
581 0.000445
582 0.000447
583 0.000449
584 0.000461
585 0.000481
586 0.000497
587 0.000511
588 0.000517
589 0.000524
590 0.000521
591 0.000515
592 0.000500
593 0.000486
594 0.000480
595 0.000470
596 0.000458
597 0.000452
598 0.000463
599 0.000466
600 0.000467
601 0.000463
602 0.000462
603 0.000459
604 0.000461
605 0.000463
606 0.000460
607 0.000452
608 0.000447
609 0.000439
610 0.000434
611 0.000435
612 0.000436
613 0.000416
614 0.000395
615 0.000387
616 0.000385
617 0.000401
618 0.000411
619 0.000417
620 0.000421
621 0.000425
622 0.000422
623 0.000415
624 0.000417
625 0.000416
626 0.000410
627 0.000413
628 0.000420
629 0.000435
630 0.000449
631 0.000458
632 0.000463
633 0.000459
634 0.000447
635 0.000446
636 0.000436
637 0.000427
638 0.000425
639 0.000424
640 0.000424
641 0.000429
642 0.000443
643 0.000449
644 0.000459
645 0.000459
646 0.000469
647 0.000468
648 0.000458
649 0.000458
650 0.000457
651 0.000448
652 0.000446
653 0.000436
654 0.000428
655 0.000419
656 0.000408
657 0.000401
658 0.000405
659 0.000409
660 0.000407
661 0.000419
662 0.000434
663 0.000440
664 0.000443
665 0.000454
666 0.000466
667 0.000466
668 0.000464
669 0.000452
670 0.000435
671 0.000444
672 0.000463
673 0.000470
674 0.000473
675 0.000479
676 0.000480
677 0.000488
678 0.000494
679 0.000501
680 0.000513
681 0.000509
682 0.000501
683 0.000505
684 0.000508
685 0.000506
686 0.000509
687 0.000508
688 0.000502
689 0.000495
690 0.000489
691 0.000489
692 0.000496
693 0.000503
694 0.000504
695 0.000507
696 0.000501
697 0.000502
698 0.000502
699 0.000505
700 0.000510
701 0.000511
702 0.000509
703 0.000507
704 0.000510
705 0.000510
706 0.000515
707 0.000514
708 0.000512
709 0.000512
710 0.000511
711 0.000506
712 0.000506
713 0.000500
714 0.000487
715 0.000478
716 0.000483
717 0.000480
718 0.000478
719 0.000485
720 0.000483
721 0.000487
722 0.000487
723 0.000485
724 0.000485
725 0.000478
726 0.000477
727 0.000491
728 0.000501
729 0.000495
730 0.000489
731 0.000485
732 0.000472
733 0.000470
734 0.000467
735 0.000464
736 0.000455
737 0.000447
738 0.000450
739 0.000451
740 0.000450
741 0.000450
742 0.000451
743 0.000449
744 0.000449
745 0.000448
746 0.000445
747 0.000441
748 0.000447
749 0.000447
750 0.000448
751 0.000450
752 0.000442
753 0.000435
754 0.000431
755 0.000424
756 0.000425
757 0.000431
758 0.000434
759 0.000432
760 0.000431
761 0.000425
762 0.000416
763 0.000412
764 0.000407
765 0.000412
766 0.000407
767 0.000391
768 0.000382
769 0.000380
770 0.000380
771 0.000377
772 0.000380
773 0.000376
774 0.000367
775 0.000364
776 0.000359
777 0.000359
778 0.000362
779 0.000354
780 0.000348
781 0.000352
782 0.000360
783 0.000371
784 0.000371
785 0.000372
786 0.000372
787 0.000366
788 0.000366
789 0.000363
790 0.000357
791 0.000353
792 0.000355
793 0.000354
794 0.000358
795 0.000362
796 0.000364
797 0.000367
798 0.000373
799 0.000376
800 0.000378
801 0.000378
802 0.000378
803 0.000381
804 0.000382
805 0.000376
806 0.000366
807 0.000354
808 0.000341
809 0.000333
