# i correlation
1 0.002666
2 0.002481
3 0.002337
4 0.002222
5 0.002134
6 0.002047
7 0.001967
8 0.001910
9 0.001854
10 0.001814
11 0.001769
12 0.001750
13 0.001730
14 0.001692
15 0.001670
16 0.001665
17 0.001646
18 0.001618
19 0.001597
20 0.001595
21 0.001599
22 0.001578
23 0.001548
24 0.001533
25 0.001547
26 0.001558
27 0.001575
28 0.001578
29 0.001586
30 0.001578
31 0.001570
32 0.001587
33 0.001632
34 0.001656
35 0.001668
36 0.001673
37 0.001650
38 0.001633
39 0.001614
40 0.001587
41 0.001572
42 0.001583
43 0.001567
44 0.001539
45 0.001519
46 0.001507
47 0.001488
48 0.001469
49 0.001450
50 0.001433
51 0.001418
52 0.001410
53 0.001408
54 0.001415
55 0.001415
56 0.001414
57 0.001403
58 0.001393
59 0.001356
60 0.001318
61 0.001299
62 0.001288
63 0.001282
64 0.001279
65 0.001268
66 0.001259
67 0.001268
68 0.001287
69 0.001315
70 0.001322
71 0.001322
72 0.001320
73 0.001297
74 0.001284
75 0.001277
76 0.001267
77 0.001260
78 0.001271
79 0.001278
80 0.001270
81 0.001266
82 0.001262
83 0.001250
84 0.001234
85 0.001224
86 0.001201
87 0.001180
88 0.001149
89 0.001120
90 0.001091
91 0.001068
92 0.001039
93 0.000987
94 0.000948
95 0.000915
96 0.000889
97 0.000880
98 0.000849
99 0.000829
100 0.000833
101 0.000847
102 0.000839
103 0.000828
104 0.000832
105 0.000839
106 0.000865
107 0.000907
108 0.000946
109 0.000988
110 0.001019
111 0.001028
112 0.001044
113 0.001049
114 0.001063
115 0.001062
116 0.001046
117 0.001031
118 0.001018
119 0.001001
120 0.000975
121 0.000956
122 0.000944
123 0.000920
124 0.000919
125 0.000917
126 0.000912
127 0.000905
128 0.000889
129 0.000869
130 0.000861
131 0.000840
132 0.000821
133 0.000823
134 0.000820
135 0.000826
136 0.000854
137 0.000871
138 0.000847
139 0.000849
140 0.000859
141 0.000867
142 0.000888
143 0.000906
144 0.000920
145 0.000913
146 0.000907
147 0.000919
148 0.000944
149 0.000975
150 0.001005
151 0.001012
152 0.001011
153 0.001028
154 0.001037
155 0.001037
156 0.001021
157 0.001010
158 0.000994
159 0.000986
160 0.000973
161 0.000969
162 0.000964
163 0.000966
164 0.000991
165 0.000994
166 0.000997
167 0.001005
168 0.001012
169 0.001021
170 0.001021
171 0.001017
172 0.001010
173 0.000985
174 0.000956
175 0.000939
176 0.000939
177 0.000941
178 0.000967
179 0.000988
180 0.000999
181 0.001003
182 0.001001
183 0.001019
184 0.001029
185 0.001022
186 0.001017
187 0.000998
188 0.000995
189 0.001010
190 0.000995
191 0.000991
192 0.000990
193 0.000990
194 0.000985
195 0.000979
196 0.000984
197 0.001015
198 0.001033
199 0.001041
200 0.001043
201 0.001039
202 0.001028
203 0.000991
204 0.000962
205 0.000963
206 0.000957
207 0.000947
208 0.000945
209 0.000944
210 0.000943
211 0.000934
212 0.000916
213 0.000903
214 0.000895
215 0.000880
216 0.000865
217 0.000852
218 0.000866
219 0.000872
220 0.000876
221 0.000886
222 0.000896
223 0.000888
224 0.000879
225 0.000886
226 0.000906
227 0.000923
228 0.000917
229 0.000896
230 0.000883
231 0.000876
232 0.000866
233 0.000861
234 0.000879
235 0.000890
236 0.000890
237 0.000895
238 0.000890
239 0.000903
240 0.000902
241 0.000894
242 0.000877
243 0.000864
244 0.000856
245 0.000844
246 0.000838
247 0.000831
248 0.000825
249 0.000817
250 0.000803
251 0.000800
252 0.000793
253 0.000785
254 0.000791
255 0.000801
256 0.000819
257 0.000821
258 0.000823
259 0.000815
260 0.000797
261 0.000788
262 0.000784
263 0.000793
264 0.000796
265 0.000801
266 0.000810
267 0.000805
268 0.000813
269 0.000819
270 0.000806
271 0.000784
272 0.000761
273 0.000748
274 0.000735
275 0.000725
276 0.000719
277 0.000713
278 0.000709
279 0.000715
280 0.000729
281 0.000739
282 0.000739
283 0.000723
284 0.000716
285 0.000708
286 0.000701
287 0.000693
288 0.000678
289 0.000668
290 0.000683
291 0.000692
292 0.000711
293 0.000708
294 0.000694
295 0.000687
296 0.000670
297 0.000657
298 0.000652
299 0.000645
300 0.000654
301 0.000651
302 0.000640
303 0.000619
304 0.000603
305 0.000594
306 0.000587
307 0.000570
308 0.000583
309 0.000578
310 0.000568
311 0.000550
312 0.000532
313 0.000523
314 0.000522
315 0.000513
316 0.000521
317 0.000527
318 0.000529
319 0.000535
320 0.000560
321 0.000583
322 0.000619
323 0.000644
324 0.000674
325 0.000676
326 0.000680
327 0.000673
328 0.000682
329 0.000685
330 0.000683
331 0.000670
332 0.000644
333 0.000642
334 0.000654
335 0.000663
336 0.000675
337 0.000676
338 0.000665
339 0.000642
340 0.000621
341 0.000620
342 0.000608
343 0.000597
344 0.000597
345 0.000595
346 0.000596
347 0.000591
348 0.000581
349 0.000587
350 0.000597
351 0.000592
352 0.000573
353 0.000564
354 0.000552
355 0.000541
356 0.000541
357 0.000539
358 0.000534
359 0.000525
360 0.000513
361 0.000508
362 0.000516
363 0.000528
364 0.000567
365 0.000594
366 0.000626
367 0.000652
368 0.000670
369 0.000694
370 0.000726
371 0.000742
372 0.000751
373 0.000746
374 0.000726
375 0.000717
376 0.000702
377 0.000689
378 0.000690
379 0.000679
380 0.000659
381 0.000638
382 0.000613
383 0.000599
384 0.000577
385 0.000552
386 0.000535
387 0.000513
388 0.000492
389 0.000482
390 0.000476
391 0.000483
392 0.000504
393 0.000529
394 0.000539
395 0.000540
396 0.000528
397 0.000522
398 0.000532
399 0.000564
400 0.000590
401 0.000593
402 0.000597
403 0.000606
404 0.000605
405 0.000622
406 0.000640
407 0.000658
408 0.000648
409 0.000654
410 0.000664
411 0.000669
412 0.000668
413 0.000662
414 0.000646
415 0.000644
416 0.000638
417 0.000646
418 0.000650
419 0.000643
420 0.000642
421 0.000620
422 0.000600
423 0.000585
424 0.000572
425 0.000566
426 0.000563
427 0.000571
428 0.000580
429 0.000577
430 0.000580
431 0.000558
432 0.000549
433 0.000541
434 0.000548
435 0.000565
436 0.000580
437 0.000598
438 0.000609
439 0.000604
440 0.000593
441 0.000579
442 0.000568
443 0.000554
444 0.000536
445 0.000531
446 0.000539
447 0.000544
448 0.000559
449 0.000561
450 0.000573
451 0.000590
452 0.000585
453 0.000592
454 0.000587
455 0.000584
456 0.000579
457 0.000576
458 0.000565
459 0.000569
460 0.000566
461 0.000555
462 0.000538
463 0.000535
464 0.000533
465 0.000526
466 0.000510
467 0.000483
468 0.000463
469 0.000447
470 0.000433
471 0.000431
472 0.000438
473 0.000453
474 0.000472
475 0.000496
476 0.000523
477 0.000541
478 0.000567
479 0.000579
480 0.000589
481 0.000604
482 0.000612
483 0.000614
484 0.000635
485 0.000653
486 0.000667
487 0.000658
488 0.000660
489 0.000661
490 0.000660
491 0.000656
492 0.000638
493 0.000620
494 0.000616
495 0.000603
496 0.000577
497 0.000560
498 0.000534
499 0.000505
500 0.000477
501 0.000461
502 0.000440
503 0.000427
504 0.000409
505 0.000395
506 0.000392
507 0.000402
508 0.000413
509 0.000415
510 0.000412
511 0.000406
512 0.000404
513 0.000408
514 0.000421
515 0.000430
516 0.000429
517 0.000437
518 0.000449
519 0.000470
520 0.000489
521 0.000502
522 0.000514
523 0.000513
524 0.000519
525 0.000516
526 0.000511
527 0.000516
528 0.000530
529 0.000537
530 0.000530
531 0.000512
532 0.000499
533 0.000495
534 0.000496
535 0.000497
536 0.000506
537 0.000505
538 0.000507
539 0.000521
540 0.000531
541 0.000515
542 0.000514
543 0.000516
544 0.000504
545 0.000489
546 0.000489
547 0.000494
548 0.000497
549 0.000493
550 0.000491
551 0.000490
552 0.000477
553 0.000468
554 0.000475
555 0.000491
556 0.000496
557 0.000489
558 0.000467
559 0.000449
560 0.000458
561 0.000475
562 0.000485
563 0.000502
564 0.000526
565 0.000531
566 0.000538
567 0.000549
568 0.000545
569 0.000541
570 0.000536
571 0.000532
572 0.000545
573 0.000545
574 0.000529
575 0.000521
576 0.000510
577 0.000498
578 0.000478
579 0.000454
580 0.000433
581 0.000428
582 0.000430
583 0.000420
584 0.000404
585 0.000389
586 0.000368
587 0.000351
588 0.000338
589 0.000331
590 0.000335
591 0.000342
592 0.000355
593 0.000356
594 0.000350
595 0.000336
596 0.000344
597 0.000348
598 0.000351
599 0.000363
600 0.000378
601 0.000389
602 0.000400
603 0.000413
604 0.000424
605 0.000434
606 0.000446
607 0.000438
608 0.000442
609 0.000442
610 0.000430
611 0.000406
612 0.000385
613 0.000367
614 0.000351
615 0.000349
616 0.000342
617 0.000329
618 0.000337
619 0.000343
620 0.000344
621 0.000348
622 0.000346
623 0.000329
624 0.000328
625 0.000347
626 0.000365
627 0.000375
628 0.000371
629 0.000368
630 0.000366
631 0.000356
632 0.000346
633 0.000327
634 0.000323
635 0.000330
636 0.000343
637 0.000353
638 0.000367
639 0.000379
640 0.000384
641 0.000383
642 0.000378
643 0.000365
644 0.000354
645 0.000343
646 0.000333
647 0.000320
648 0.000308
649 0.000297
650 0.000296
651 0.000296
652 0.000299
653 0.000290
654 0.000286
655 0.000285
656 0.000284
657 0.000290
658 0.000306
659 0.000308
660 0.000309
661 0.000309
662 0.000310
663 0.000308
664 0.000305
665 0.000303
666 0.000295
667 0.000284
668 0.000273
669 0.000264
670 0.000256
671 0.000249
672 0.000244
673 0.000251
674 0.000267
675 0.000281
676 0.000290
677 0.000292
678 0.000306
679 0.000308
680 0.000300
681 0.000285
682 0.000274
683 0.000274
684 0.000266
685 0.000252
686 0.000244
687 0.000250
688 0.000255
689 0.000249
690 0.000245
691 0.000248
692 0.000246
693 0.000256
694 0.000267
695 0.000268
696 0.000275
697 0.000282
698 0.000276
699 0.000280
700 0.000293
701 0.000290
702 0.000283
703 0.000283
704 0.000281
705 0.000281
706 0.000278
707 0.000282
708 0.000280
709 0.000281
710 0.000276
711 0.000261
712 0.000253
713 0.000244
714 0.000247
715 0.000255
716 0.000271
717 0.000291
718 0.000304
719 0.000315
720 0.000319
721 0.000315
722 0.000311
723 0.000303
724 0.000289
725 0.000278
726 0.000255
727 0.000234
728 0.000215
729 0.000207
730 0.000212
731 0.000211
732 0.000207
733 0.000201
734 0.000201
735 0.000209
736 0.000216
737 0.000213
738 0.000202
739 0.000196
740 0.000208
741 0.000218
742 0.000220
743 0.000216
744 0.000208
745 0.000212
746 0.000218
747 0.000216
748 0.000207
749 0.000191
750 0.000193
751 0.000205
752 0.000219
753 0.000219
754 0.000216
755 0.000207
756 0.000207
757 0.000196
758 0.000184
759 0.000165
760 0.000147
761 0.000129
762 0.000107
763 0.000091
764 0.000078
765 0.000064
766 0.000058
767 0.000045
768 0.000041
769 0.000035
770 0.000032
771 0.000028
772 0.000022
773 0.000020
774 0.000020
775 0.000018
776 0.000015
777 0.000006
778 -0.000011
779 -0.000025
780 -0.000042
781 -0.000052
782 -0.000059
783 -0.000066
784 -0.000068
785 -0.000066
786 -0.000060
787 -0.000054
788 -0.000040
789 -0.000025
790 -0.000010
791 -0.000002
792 -0.000006
793 -0.000013
794 -0.000018
795 -0.000024
796 -0.000038
797 -0.000047
798 -0.000061
799 -0.000064
800 -0.000068
801 -0.000075
802 -0.000069
803 -0.000059
804 -0.000046
805 -0.000039
806 -0.000028
807 -0.000018
808 -0.000007
809 0.000000
