# i correlation
1 0.002228
2 0.002049
3 0.001890
4 0.001780
5 0.001686
6 0.001611
7 0.001540
8 0.001478
9 0.001426
10 0.001403
11 0.001376
12 0.001344
13 0.001338
14 0.001322
15 0.001302
16 0.001278
17 0.001270
18 0.001275
19 0.001272
20 0.001261
21 0.001240
22 0.001236
23 0.001240
24 0.001218
25 0.001209
26 0.001189
27 0.001182
28 0.001186
29 0.001185
30 0.001165
31 0.001162
32 0.001147
33 0.001144
34 0.001132
35 0.001133
36 0.001138
37 0.001142
38 0.001131
39 0.001113
40 0.001101
41 0.001089
42 0.001082
43 0.001089
44 0.001094
45 0.001110
46 0.001106
47 0.001110
48 0.001101
49 0.001070
50 0.001049
51 0.001029
52 0.001008
53 0.000996
54 0.000990
55 0.000989
56 0.001003
57 0.000996
58 0.000984
59 0.000973
60 0.000965
61 0.000956
62 0.000948
63 0.000918
64 0.000868
65 0.000826
66 0.000801
67 0.000785
68 0.000794
69 0.000810
70 0.000798
71 0.000771
72 0.000743
73 0.000727
74 0.000738
75 0.000755
76 0.000779
77 0.000785
78 0.000778
79 0.000756
80 0.000752
81 0.000746
82 0.000747
83 0.000725
84 0.000738
85 0.000754
86 0.000760
87 0.000771
88 0.000775
89 0.000768
90 0.000776
91 0.000783
92 0.000803
93 0.000818
94 0.000819
95 0.000808
96 0.000788
97 0.000772
98 0.000754
99 0.000741
100 0.000744
101 0.000726
102 0.000721
103 0.000720
104 0.000742
105 0.000788
106 0.000820
107 0.000847
108 0.000842
109 0.000838
110 0.000829
111 0.000810
112 0.000788
113 0.000776
114 0.000754
115 0.000756
116 0.000771
117 0.000770
118 0.000750
119 0.000731
120 0.000702
121 0.000696
122 0.000690
123 0.000695
124 0.000682
125 0.000690
126 0.000661
127 0.000663
128 0.000664
129 0.000669
130 0.000685
131 0.000686
132 0.000678
133 0.000660
134 0.000645
135 0.000644
136 0.000653
137 0.000662
138 0.000692
139 0.000706
140 0.000730
141 0.000725
142 0.000724
143 0.000726
144 0.000722
145 0.000728
146 0.000711
147 0.000682
148 0.000653
149 0.000615
150 0.000603
151 0.000606
152 0.000607
153 0.000643
154 0.000684
155 0.000712
156 0.000725
157 0.000717
158 0.000707
159 0.000712
160 0.000706
161 0.000710
162 0.000726
163 0.000740
164 0.000750
165 0.000755
166 0.000761
167 0.000754
168 0.000746
169 0.000728
170 0.000693
171 0.000666
172 0.000642
173 0.000614
174 0.000582
175 0.000574
176 0.000564
177 0.000543
178 0.000550
179 0.000562
180 0.000578
181 0.000602
182 0.000635
183 0.000658
184 0.000671
185 0.000690
186 0.000703
187 0.000713
188 0.000706
189 0.000707
190 0.000721
191 0.000732
192 0.000715
193 0.000709
194 0.000688
195 0.000659
196 0.000637
197 0.000637
198 0.000648
199 0.000673
200 0.000685
201 0.000710
202 0.000705
203 0.000702
204 0.000704
205 0.000689
206 0.000661
207 0.000650
208 0.000609
209 0.000594
210 0.000575
211 0.000547
212 0.000537
213 0.000532
214 0.000533
215 0.000535
216 0.000534
217 0.000550
218 0.000561
219 0.000554
220 0.000544
221 0.000532
222 0.000538
223 0.000561
224 0.000588
225 0.000598
226 0.000595
227 0.000593
228 0.000592
229 0.000593
230 0.000603
231 0.000614
232 0.000636
233 0.000640
234 0.000636
235 0.000644
236 0.000647
237 0.000639
238 0.000635
239 0.000600
240 0.000576
241 0.000544
242 0.000512
243 0.000493
244 0.000491
245 0.000492
246 0.000494
247 0.000491
248 0.000488
249 0.000487
250 0.000487
251 0.000475
252 0.000461
253 0.000451
254 0.000433
255 0.000406
256 0.000381
257 0.000349
258 0.000334
259 0.000334
260 0.000346
261 0.000360
262 0.000362
263 0.000373
264 0.000370
265 0.000368
266 0.000367
267 0.000367
268 0.000353
269 0.000353
270 0.000344
271 0.000337
272 0.000325
273 0.000328
274 0.000322
275 0.000335
276 0.000354
277 0.000361
278 0.000380
279 0.000385
280 0.000383
281 0.000390
282 0.000376
283 0.000366
284 0.000367
285 0.000391
286 0.000402
287 0.000410
288 0.000402
289 0.000390
290 0.000365
291 0.000362
292 0.000368
293 0.000371
294 0.000383
295 0.000386
296 0.000394
297 0.000392
298 0.000396
299 0.000403
300 0.000394
301 0.000366
302 0.000336
303 0.000310
304 0.000305
305 0.000301
306 0.000304
307 0.000312
308 0.000312
309 0.000322
310 0.000338
311 0.000336
312 0.000328
313 0.000319
314 0.000327
315 0.000311
316 0.000311
317 0.000305
318 0.000313
319 0.000312
320 0.000330
321 0.000342
322 0.000365
323 0.000392
324 0.000402
325 0.000384
326 0.000373
327 0.000356
328 0.000348
329 0.000352
330 0.000370
331 0.000387
332 0.000402
333 0.000397
334 0.000403
335 0.000394
336 0.000381
337 0.000369
338 0.000344
339 0.000333
340 0.000340
341 0.000349
342 0.000351
343 0.000362
344 0.000376
345 0.000383
346 0.000380
347 0.000386
348 0.000364
349 0.000344
350 0.000323
351 0.000299
352 0.000280
353 0.000282
354 0.000294
355 0.000320
356 0.000325
357 0.000344
358 0.000353
359 0.000348
360 0.000347
361 0.000333
362 0.000310
363 0.000301
364 0.000276
365 0.000256
366 0.000241
367 0.000231
368 0.000235
369 0.000244
370 0.000265
371 0.000272
372 0.000294
373 0.000316
374 0.000347
375 0.000360
376 0.000372
377 0.000384
378 0.000392
379 0.000392
380 0.000390
381 0.000372
382 0.000355
383 0.000342
384 0.000318
385 0.000307
386 0.000303
387 0.000292
388 0.000293
389 0.000300
390 0.000313
391 0.000345
392 0.000385
393 0.000408
394 0.000427
395 0.000424
396 0.000421
397 0.000430
398 0.000430
399 0.000420
400 0.000420
401 0.000422
402 0.000416
403 0.000417
404 0.000422
405 0.000426
406 0.000415
407 0.000403
408 0.000390
409 0.000377
410 0.000365
411 0.000364
412 0.000347
413 0.000338
414 0.000340
415 0.000350
416 0.000365
417 0.000381
418 0.000400
419 0.000416
420 0.000423
421 0.000437
422 0.000448
423 0.000466
424 0.000479
425 0.000497
426 0.000504
427 0.000514
428 0.000524
429 0.000527
430 0.000533
431 0.000535
432 0.000542
433 0.000538
434 0.000532
435 0.000523
436 0.000522
437 0.000527
438 0.000517
439 0.000510
440 0.000489
441 0.000482
442 0.000479
443 0.000472
444 0.000446
445 0.000436
446 0.000410
447 0.000412
448 0.000411
449 0.000419
450 0.000432
451 0.000450
452 0.000449
453 0.000453
454 0.000449
455 0.000435
456 0.000417
457 0.000398
458 0.000375
459 0.000361
460 0.000365
461 0.000362
462 0.000361
463 0.000376
464 0.000395
465 0.000411
466 0.000418
467 0.000414
468 0.000410
469 0.000397
470 0.000412
471 0.000421
472 0.000421
473 0.000410
474 0.000402
475 0.000397
476 0.000407
477 0.000408
478 0.000419
479 0.000431
480 0.000442
481 0.000437
482 0.000444
483 0.000439
484 0.000426
485 0.000432
486 0.000447
487 0.000445
488 0.000442
489 0.000430
490 0.000427
491 0.000423
492 0.000396
493 0.000377
494 0.000343
495 0.000318
496 0.000283
497 0.000259
498 0.000254
499 0.000263
500 0.000259
501 0.000266
502 0.000263
503 0.000259
504 0.000246
505 0.000234
506 0.000214
507 0.000193
508 0.000184
509 0.000185
510 0.000182
511 0.000197
512 0.000214
513 0.000244
514 0.000256
515 0.000257
516 0.000252
517 0.000247
518 0.000238
519 0.000236
520 0.000231
521 0.000227
522 0.000231
523 0.000246
524 0.000235
525 0.000230
526 0.000217
527 0.000219
528 0.000223
529 0.000229
530 0.000249
531 0.000259
532 0.000256
533 0.000256
534 0.000259
535 0.000264
536 0.000276
537 0.000275
538 0.000272
539 0.000268
540 0.000284
541 0.000310
542 0.000334
543 0.000336
544 0.000318
545 0.000303
546 0.000293
547 0.000280
548 0.000273
549 0.000260
550 0.000242
551 0.000217
552 0.000191
553 0.000172
554 0.000154
555 0.000151
556 0.000163
557 0.000168
558 0.000180
559 0.000197
560 0.000224
561 0.000235
562 0.000233
563 0.000238
564 0.000250
565 0.000243
566 0.000241
567 0.000237
568 0.000236
569 0.000218
570 0.000210
571 0.000193
572 0.000183
573 0.000171
574 0.000163
575 0.000163
576 0.000165
577 0.000173
578 0.000187
579 0.000206
580 0.000215
581 0.000224
582 0.000235
583 0.000242
584 0.000235
585 0.000230
586 0.000220
587 0.000226
588 0.000226
589 0.000226
590 0.000230
591 0.000237
592 0.000248
593 0.000268
594 0.000277
595 0.000291
596 0.000300
597 0.000310
598 0.000323
599 0.000327
600 0.000317
601 0.000304
602 0.000285
603 0.000283
604 0.000287
605 0.000292
606 0.000285
607 0.000275
608 0.000274
609 0.000275
610 0.000287
611 0.000297
612 0.000300
613 0.000285
614 0.000264
615 0.000256
616 0.000254
617 0.000247
618 0.000264
619 0.000272
620 0.000276
621 0.000274
622 0.000280
623 0.000285
624 0.000291
625 0.000294
626 0.000298
627 0.000301
628 0.000312
629 0.000326
630 0.000337
631 0.000344
632 0.000356
633 0.000364
634 0.000356
635 0.000353
636 0.000361
637 0.000365
638 0.000371
639 0.000370
640 0.000366
641 0.000370
642 0.000376
643 0.000374
644 0.000368
645 0.000363
646 0.000369
647 0.000370
648 0.000374
649 0.000367
650 0.000366
651 0.000367
652 0.000374
653 0.000377
654 0.000383
655 0.000397
656 0.000406
657 0.000412
658 0.000413
659 0.000401
660 0.000393
661 0.000376
662 0.000351
663 0.000325
664 0.000307
665 0.000292
666 0.000295
667 0.000303
668 0.000312
669 0.000306
670 0.000303
671 0.000308
672 0.000305
673 0.000311
674 0.000321
675 0.000327
676 0.000322
677 0.000324
678 0.000325
679 0.000325
680 0.000324
681 0.000332
682 0.000315
683 0.000300
684 0.000299
685 0.000306
686 0.000308
687 0.000309
688 0.000312
689 0.000306
690 0.000297
691 0.000284
692 0.000270
693 0.000250
694 0.000241
695 0.000236
696 0.000239
697 0.000243
698 0.000253
699 0.000259
700 0.000266
701 0.000264
702 0.000257
703 0.000267
704 0.000280
705 0.000286
706 0.000283
707 0.000270
708 0.000262
709 0.000248
710 0.000246
711 0.000246
712 0.000249
713 0.000250
714 0.000260
715 0.000262
716 0.000268
717 0.000271
718 0.000275
719 0.000272
720 0.000264
721 0.000263
722 0.000254
723 0.000254
724 0.000244
725 0.000235
726 0.000221
727 0.000215
728 0.000210
729 0.000208
730 0.000201
731 0.000191
732 0.000186
733 0.000170
734 0.000152
735 0.000142
736 0.000134
737 0.000132
738 0.000125
739 0.000115
740 0.000106
741 0.000099
742 0.000098
743 0.000097
744 0.000095
745 0.000095
746 0.000098
747 0.000105
748 0.000111
749 0.000117
750 0.000126
751 0.000127
752 0.000129
753 0.000126
754 0.000123
755 0.000118
756 0.000115
757 0.000119
758 0.000121
759 0.000123
760 0.000131
761 0.000141
762 0.000145
763 0.000150
764 0.000150
765 0.000157
766 0.000163
767 0.000171
768 0.000170
769 0.000164
770 0.000157
771 0.000152
772 0.000147
773 0.000153
774 0.000156
775 0.000161
776 0.000162
777 0.000163
778 0.000167
779 0.000168
780 0.000171
781 0.000171
782 0.000165
783 0.000152
784 0.000144
785 0.000144
786 0.000154
787 0.000157
788 0.000155
789 0.000147
790 0.000140
791 0.000139
792 0.000141
793 0.000136
794 0.000136
795 0.000137
796 0.000145
797 0.000149
798 0.000152
799 0.000148
800 0.000148
801 0.000159
802 0.000169
803 0.000168
804 0.000167
805 0.000165
806 0.000167
807 0.000166
808 0.000170
809 0.000170
