# i correlation
1 0.001789
2 0.001628
3 0.001503
4 0.001405
5 0.001327
6 0.001258
7 0.001188
8 0.001139
9 0.001095
10 0.001060
11 0.001032
12 0.000999
13 0.000990
14 0.000962
15 0.000935
16 0.000918
17 0.000900
18 0.000881
19 0.000872
20 0.000865
21 0.000871
22 0.000871
23 0.000872
24 0.000870
25 0.000869
26 0.000850
27 0.000835
28 0.000817
29 0.000813
30 0.000802
31 0.000805
32 0.000835
33 0.000850
34 0.000851
35 0.000850
36 0.000834
37 0.000835
38 0.000844
39 0.000847
40 0.000840
41 0.000827
42 0.000833
43 0.000853
44 0.000872
45 0.000902
46 0.000899
47 0.000881
48 0.000859
49 0.000835
50 0.000815
51 0.000807
52 0.000808
53 0.000817
54 0.000810
55 0.000805
56 0.000779
57 0.000741
58 0.000704
59 0.000667
60 0.000639
61 0.000638
62 0.000627
63 0.000612
64 0.000612
65 0.000615
66 0.000633
67 0.000623
68 0.000604
69 0.000589
70 0.000575
71 0.000569
72 0.000557
73 0.000539
74 0.000537
75 0.000519
76 0.000519
77 0.000534
78 0.000563
79 0.000585
80 0.000605
81 0.000614
82 0.000628
83 0.000623
84 0.000626
85 0.000645
86 0.000675
87 0.000689
88 0.000693
89 0.000676
90 0.000662
91 0.000653
92 0.000632
93 0.000617
94 0.000611
95 0.000614
96 0.000629
97 0.000633
98 0.000644
99 0.000633
100 0.000625
101 0.000613
102 0.000587
103 0.000559
104 0.000532
105 0.000501
106 0.000498
107 0.000499
108 0.000504
109 0.000533
110 0.000525
111 0.000533
112 0.000533
113 0.000530
114 0.000541
115 0.000523
116 0.000494
117 0.000481
118 0.000473
119 0.000473
120 0.000472
121 0.000460
122 0.000470
123 0.000485
124 0.000488
125 0.000509
126 0.000525
127 0.000528
128 0.000514
129 0.000507
130 0.000512
131 0.000523
132 0.000543
133 0.000581
134 0.000602
135 0.000610
136 0.000600
137 0.000585
138 0.000565
139 0.000558
140 0.000545
141 0.000550
142 0.000552
143 0.000553
144 0.000529
145 0.000510
146 0.000516
147 0.000506
148 0.000510
149 0.000503
150 0.000508
151 0.000513
152 0.000524
153 0.000542
154 0.000560
155 0.000554
156 0.000536
157 0.000506
158 0.000477
159 0.000438
160 0.000417
161 0.000403
162 0.000400
163 0.000416
164 0.000445
165 0.000458
166 0.000471
167 0.000492
168 0.000503
169 0.000493
170 0.000499
171 0.000503
172 0.000498
173 0.000489
174 0.000473
175 0.000469
176 0.000465
177 0.000465
178 0.000485
179 0.000493
180 0.000502
181 0.000519
182 0.000509
183 0.000503
184 0.000491
185 0.000486
186 0.000475
187 0.000474
188 0.000488
189 0.000481
190 0.000441
191 0.000404
192 0.000394
193 0.000388
194 0.000379
195 0.000385
196 0.000395
197 0.000409
198 0.000413
199 0.000410
200 0.000407
201 0.000395
202 0.000385
203 0.000369
204 0.000353
205 0.000348
206 0.000329
207 0.000321
208 0.000323
209 0.000327
210 0.000333
211 0.000330
212 0.000336
213 0.000322
214 0.000318
215 0.000309
216 0.000298
217 0.000296
218 0.000299
219 0.000294
220 0.000311
221 0.000336
222 0.000338
223 0.000355
224 0.000344
225 0.000327
226 0.000316
227 0.000309
228 0.000302
229 0.000313
230 0.000319
231 0.000334
232 0.000350
233 0.000346
234 0.000354
235 0.000349
236 0.000340
237 0.000328
238 0.000318
239 0.000305
240 0.000312
241 0.000302
242 0.000303
243 0.000297
244 0.000299
245 0.000301
246 0.000298
247 0.000288
248 0.000285
249 0.000287
250 0.000292
251 0.000291
252 0.000305
253 0.000320
254 0.000321
255 0.000306
256 0.000287
257 0.000279
258 0.000263
259 0.000261
260 0.000253
261 0.000242
262 0.000247
263 0.000256
264 0.000267
265 0.000277
266 0.000299
267 0.000335
268 0.000359
269 0.000373
270 0.000361
271 0.000328
272 0.000300
273 0.000290
274 0.000295
275 0.000315
276 0.000348
277 0.000362
278 0.000383
279 0.000395
280 0.000410
281 0.000421
282 0.000424
283 0.000426
284 0.000419
285 0.000406
286 0.000382
287 0.000359
288 0.000352
289 0.000354
290 0.000355
291 0.000359
292 0.000360
293 0.000355
294 0.000341
295 0.000328
296 0.000325
297 0.000323
298 0.000331
299 0.000332
300 0.000328
301 0.000343
302 0.000344
303 0.000353
304 0.000353
305 0.000356
306 0.000370
307 0.000393
308 0.000409
309 0.000424
310 0.000433
311 0.000436
312 0.000440
313 0.000437
314 0.000451
315 0.000460
316 0.000469
317 0.000475
318 0.000479
319 0.000479
320 0.000474
321 0.000479
322 0.000479
323 0.000486
324 0.000478
325 0.000462
326 0.000428
327 0.000394
328 0.000393
329 0.000406
330 0.000414
331 0.000423
332 0.000420
333 0.000428
334 0.000439
335 0.000459
336 0.000469
337 0.000456
338 0.000455
339 0.000446
340 0.000440
341 0.000434
342 0.000425
343 0.000410
344 0.000405
345 0.000402
346 0.000409
347 0.000398
348 0.000390
349 0.000407
350 0.000414
351 0.000414
352 0.000405
353 0.000408
354 0.000423
355 0.000433
356 0.000428
357 0.000413
358 0.000408
359 0.000409
360 0.000415
361 0.000406
362 0.000418
363 0.000434
364 0.000440
365 0.000449
366 0.000465
367 0.000474
368 0.000482
369 0.000487
370 0.000466
371 0.000451
372 0.000432
373 0.000436
374 0.000429
375 0.000425
376 0.000439
377 0.000444
378 0.000452
379 0.000458
380 0.000448
381 0.000439
382 0.000437
383 0.000435
384 0.000437
385 0.000442
386 0.000449
387 0.000460
388 0.000467
389 0.000467
390 0.000461
391 0.000449
392 0.000446
393 0.000438
394 0.000449
395 0.000463
396 0.000463
397 0.000453
398 0.000437
399 0.000438
400 0.000441
401 0.000451
402 0.000468
403 0.000466
404 0.000457
405 0.000458
406 0.000457
407 0.000465
408 0.000477
409 0.000474
410 0.000473
411 0.000473
412 0.000483
413 0.000479
414 0.000478
415 0.000486
416 0.000486
417 0.000491
418 0.000483
419 0.000470
420 0.000465
421 0.000457
422 0.000447
423 0.000439
424 0.000434
425 0.000415
426 0.000401
427 0.000387
428 0.000377
429 0.000360
430 0.000344
431 0.000338
432 0.000355
433 0.000356
434 0.000359
435 0.000356
436 0.000339
437 0.000337
438 0.000344
439 0.000354
440 0.000367
441 0.000368
442 0.000373
443 0.000366
444 0.000367
445 0.000363
446 0.000359
447 0.000364
448 0.000373
449 0.000381
450 0.000381
451 0.000376
452 0.000384
453 0.000380
454 0.000359
455 0.000361
456 0.000352
457 0.000346
458 0.000343
459 0.000339
460 0.000335
461 0.000347
462 0.000353
463 0.000361
464 0.000370
465 0.000375
466 0.000361
467 0.000347
468 0.000323
469 0.000301
470 0.000267
471 0.000244
472 0.000234
473 0.000226
474 0.000228
475 0.000232
476 0.000228
477 0.000241
478 0.000253
479 0.000249
480 0.000255
481 0.000261
482 0.000260
483 0.000261
484 0.000269
485 0.000280
486 0.000291
487 0.000300
488 0.000331
489 0.000343
490 0.000347
491 0.000339
492 0.000324
493 0.000324
494 0.000319
495 0.000303
496 0.000300
497 0.000288
498 0.000278
499 0.000268
500 0.000267
501 0.000271
502 0.000270
503 0.000262
504 0.000260
505 0.000258
506 0.000258
507 0.000252
508 0.000257
509 0.000249
510 0.000251
511 0.000252
512 0.000254
513 0.000259
514 0.000257
515 0.000242
516 0.000235
517 0.000231
518 0.000229
519 0.000239
520 0.000231
521 0.000232
522 0.000241
523 0.000249
524 0.000236
525 0.000214
526 0.000211
527 0.000218
528 0.000213
529 0.000210
530 0.000220
531 0.000224
532 0.000219
533 0.000225
534 0.000234
535 0.000249
536 0.000249
537 0.000238
538 0.000239
539 0.000243
540 0.000256
541 0.000266
542 0.000264
543 0.000274
544 0.000272
545 0.000253
546 0.000253
547 0.000258
548 0.000255
549 0.000253
550 0.000238
551 0.000228
552 0.000223
553 0.000209
554 0.000194
555 0.000185
556 0.000167
557 0.000153
558 0.000140
559 0.000130
560 0.000111
561 0.000104
562 0.000104
563 0.000099
564 0.000087
565 0.000082
566 0.000091
567 0.000103
568 0.000121
569 0.000130
570 0.000127
571 0.000124
572 0.000125
573 0.000138
574 0.000148
575 0.000165
576 0.000175
577 0.000164
578 0.000163
579 0.000166
580 0.000165
581 0.000162
582 0.000155
583 0.000152
584 0.000152
585 0.000152
586 0.000151
587 0.000150
588 0.000145
589 0.000139
590 0.000140
591 0.000134
592 0.000142
593 0.000141
594 0.000136
595 0.000124
596 0.000109
597 0.000105
598 0.000114
599 0.000113
600 0.000114
601 0.000109
602 0.000106
603 0.000096
604 0.000088
605 0.000090
606 0.000083
607 0.000084
608 0.000089
609 0.000078
610 0.000074
611 0.000071
612 0.000072
613 0.000094
614 0.000108
615 0.000108
616 0.000104
617 0.000103
618 0.000097
619 0.000097
620 0.000096
621 0.000091
622 0.000090
623 0.000101
624 0.000100
625 0.000098
626 0.000102
627 0.000113
628 0.000128
629 0.000146
630 0.000164
631 0.000186
632 0.000196
633 0.000202
634 0.000206
635 0.000214
636 0.000217
637 0.000219
638 0.000213
639 0.000200
640 0.000186
641 0.000179
642 0.000177
643 0.000162
644 0.000160
645 0.000160
646 0.000160
647 0.000168
648 0.000177
649 0.000187
650 0.000179
651 0.000161
652 0.000158
653 0.000168
654 0.000173
655 0.000174
656 0.000180
657 0.000175
658 0.000173
659 0.000172
660 0.000181
661 0.000199
662 0.000211
663 0.000210
664 0.000219
665 0.000226
666 0.000242
667 0.000247
668 0.000244
669 0.000251
670 0.000262
671 0.000267
672 0.000266
673 0.000261
674 0.000263
675 0.000261
676 0.000263
677 0.000270
678 0.000269
679 0.000266
680 0.000268
681 0.000269
682 0.000267
683 0.000254
684 0.000253
685 0.000254
686 0.000258
687 0.000253
688 0.000245
689 0.000241
690 0.000243
691 0.000245
692 0.000240
693 0.000245
694 0.000250
695 0.000252
696 0.000241
697 0.000226
698 0.000217
699 0.000207
700 0.000204
701 0.000210
702 0.000201
703 0.000194
704 0.000190
705 0.000193
706 0.000187
707 0.000187
708 0.000185
709 0.000203
710 0.000211
711 0.000220
712 0.000221
713 0.000217
714 0.000218
715 0.000222
716 0.000225
717 0.000229
718 0.000228
719 0.000233
720 0.000235
721 0.000228
722 0.000227
723 0.000231
724 0.000236
725 0.000239
726 0.000235
727 0.000241
728 0.000245
729 0.000244
730 0.000245
731 0.000256
732 0.000259
733 0.000257
734 0.000245
735 0.000235
736 0.000230
737 0.000215
738 0.000210
739 0.000195
740 0.000183
741 0.000175
742 0.000171
743 0.000171
744 0.000171
745 0.000170
746 0.000168
747 0.000171
748 0.000177
749 0.000178
750 0.000180
751 0.000179
752 0.000172
753 0.000165
754 0.000159
755 0.000148
756 0.000161
757 0.000175
758 0.000186
759 0.000177
760 0.000169
761 0.000170
762 0.000178
763 0.000189
764 0.000200
765 0.000199
766 0.000196
767 0.000197
768 0.000203
769 0.000203
770 0.000197
771 0.000201
772 0.000205
773 0.000201
774 0.000194
775 0.000190
776 0.000193
777 0.000194
778 0.000195
779 0.000188
780 0.000185
781 0.000195
782 0.000197
783 0.000201
784 0.000198
785 0.000194
786 0.000192
787 0.000191
788 0.000189
789 0.000184
790 0.000182
791 0.000184
792 0.000178
793 0.000172
794 0.000175
795 0.000177
796 0.000185
797 0.000193
798 0.000199
799 0.000205
800 0.000206
801 0.000215
802 0.000226
803 0.000240
804 0.000244
805 0.000248
806 0.000245
807 0.000245
808 0.000238
809 0.000237
