# i correlation
1 0.002837
2 0.002663
3 0.002540
4 0.002410
5 0.002298
6 0.002196
7 0.002087
8 0.001991
9 0.001930
10 0.001899
11 0.001863
12 0.001825
13 0.001806
14 0.001796
15 0.001785
16 0.001752
17 0.001716
18 0.001682
19 0.001620
20 0.001577
21 0.001536
22 0.001501
23 0.001468
24 0.001431
25 0.001408
26 0.001406
27 0.001422
28 0.001430
29 0.001435
30 0.001445
31 0.001458
32 0.001480
33 0.001488
34 0.001485
35 0.001474
36 0.001465
37 0.001457
38 0.001454
39 0.001447
40 0.001448
41 0.001445
42 0.001456
43 0.001463
44 0.001430
45 0.001418
46 0.001408
47 0.001400
48 0.001397
49 0.001397
50 0.001405
51 0.001411
52 0.001411
53 0.001418
54 0.001407
55 0.001397
56 0.001390
57 0.001379
58 0.001373
59 0.001358
60 0.001356
61 0.001324
62 0.001284
63 0.001279
64 0.001268
65 0.001250
66 0.001250
67 0.001261
68 0.001275
69 0.001276
70 0.001289
71 0.001290
72 0.001266
73 0.001255
74 0.001229
75 0.001167
76 0.001122
77 0.001098
78 0.001100
79 0.001090
80 0.001083
81 0.001099
82 0.001103
83 0.001136
84 0.001164
85 0.001174
86 0.001164
87 0.001165
88 0.001162
89 0.001147
90 0.001128
91 0.001126
92 0.001110
93 0.001109
94 0.001116
95 0.001103
96 0.001097
97 0.001120
98 0.001137
99 0.001140
100 0.001163
101 0.001190
102 0.001213
103 0.001237
104 0.001256
105 0.001261
106 0.001247
107 0.001243
108 0.001231
109 0.001231
110 0.001211
111 0.001193
112 0.001191
113 0.001168
114 0.001135
115 0.001130
116 0.001108
117 0.001066
118 0.001042
119 0.001032
120 0.001008
121 0.000987
122 0.000985
123 0.000983
124 0.000989
125 0.000997
126 0.001017
127 0.001018
128 0.000983
129 0.000942
130 0.000925
131 0.000929
132 0.000902
133 0.000884
134 0.000897
135 0.000889
136 0.000903
137 0.000923
138 0.000941
139 0.000978
140 0.001019
141 0.001070
142 0.001116
143 0.001122
144 0.001116
145 0.001109
146 0.001084
147 0.001082
148 0.001056
149 0.001027
150 0.000985
151 0.000988
152 0.000983
153 0.000961
154 0.000948
155 0.000935
156 0.000945
157 0.000972
158 0.000984
159 0.000965
160 0.000926
161 0.000899
162 0.000885
163 0.000866
164 0.000833
165 0.000813
166 0.000778
167 0.000752
168 0.000752
169 0.000749
170 0.000748
171 0.000745
172 0.000737
173 0.000738
174 0.000740
175 0.000737
176 0.000728
177 0.000705
178 0.000682
179 0.000683
180 0.000668
181 0.000655
182 0.000648
183 0.000656
184 0.000669
185 0.000692
186 0.000713
187 0.000735
188 0.000757
189 0.000763
190 0.000815
191 0.000836
192 0.000844
193 0.000849
194 0.000878
195 0.000886
196 0.000902
197 0.000908
198 0.000909
199 0.000902
200 0.000911
201 0.000909
202 0.000892
203 0.000882
204 0.000861
205 0.000838
206 0.000817
207 0.000797
208 0.000782
209 0.000788
210 0.000792
211 0.000781
212 0.000769
213 0.000757
214 0.000741
215 0.000742
216 0.000744
217 0.000762
218 0.000766
219 0.000771
220 0.000776
221 0.000784
222 0.000775
223 0.000780
224 0.000796
225 0.000795
226 0.000788
227 0.000772
228 0.000760
229 0.000752
230 0.000758
231 0.000757
232 0.000742
233 0.000699
234 0.000678
235 0.000676
236 0.000669
237 0.000653
238 0.000635
239 0.000641
240 0.000637
241 0.000637
242 0.000634
243 0.000647
244 0.000654
245 0.000674
246 0.000685
247 0.000681
248 0.000671
249 0.000671
250 0.000695
251 0.000707
252 0.000725
253 0.000735
254 0.000759
255 0.000773
256 0.000784
257 0.000791
258 0.000787
259 0.000775
260 0.000765
261 0.000765
262 0.000754
263 0.000745
264 0.000735
265 0.000719
266 0.000713
267 0.000715
268 0.000726
269 0.000708
270 0.000699
271 0.000698
272 0.000696
273 0.000710
274 0.000722
275 0.000722
276 0.000721
277 0.000736
278 0.000727
279 0.000707
280 0.000687
281 0.000671
282 0.000654
283 0.000656
284 0.000664
285 0.000667
286 0.000668
287 0.000681
288 0.000716
289 0.000736
290 0.000764
291 0.000795
292 0.000803
293 0.000787
294 0.000795
295 0.000809
296 0.000794
297 0.000796
298 0.000808
299 0.000810
300 0.000822
301 0.000835
302 0.000849
303 0.000851
304 0.000866
305 0.000892
306 0.000900
307 0.000884
308 0.000859
309 0.000840
310 0.000841
311 0.000817
312 0.000786
313 0.000773
314 0.000746
315 0.000733
316 0.000712
317 0.000692
318 0.000678
319 0.000668
320 0.000662
321 0.000650
322 0.000651
323 0.000635
324 0.000624
325 0.000623
326 0.000622
327 0.000622
328 0.000624
329 0.000627
330 0.000625
331 0.000622
332 0.000613
333 0.000619
334 0.000631
335 0.000637
336 0.000646
337 0.000657
338 0.000656
339 0.000652
340 0.000649
341 0.000656
342 0.000664
343 0.000683
344 0.000703
345 0.000714
346 0.000716
347 0.000730
348 0.000738
349 0.000728
350 0.000716
351 0.000699
352 0.000661
353 0.000618
354 0.000588
355 0.000576
356 0.000569
357 0.000566
358 0.000584
359 0.000596
360 0.000593
361 0.000612
362 0.000630
363 0.000633
364 0.000606
365 0.000587
366 0.000566
367 0.000526
368 0.000501
369 0.000485
370 0.000452
371 0.000435
372 0.000428
373 0.000421
374 0.000414
375 0.000414
376 0.000407
377 0.000418
378 0.000426
379 0.000423
380 0.000425
381 0.000413
382 0.000405
383 0.000396
384 0.000393
385 0.000381
386 0.000384
387 0.000375
388 0.000373
389 0.000387
390 0.000395
391 0.000396
392 0.000417
393 0.000441
394 0.000477
395 0.000510
396 0.000532
397 0.000546
398 0.000555
399 0.000568
400 0.000575
401 0.000585
402 0.000589
403 0.000600
404 0.000600
405 0.000582
406 0.000560
407 0.000548
408 0.000528
409 0.000507
410 0.000494
411 0.000470
412 0.000444
413 0.000440
414 0.000450
415 0.000459
416 0.000464
417 0.000464
418 0.000458
419 0.000458
420 0.000466
421 0.000468
422 0.000463
423 0.000437
424 0.000418
425 0.000400
426 0.000381
427 0.000371
428 0.000357
429 0.000358
430 0.000356
431 0.000365
432 0.000376
433 0.000383
434 0.000383
435 0.000399
436 0.000403
437 0.000414
438 0.000411
439 0.000402
440 0.000396
441 0.000397
442 0.000395
443 0.000394
444 0.000397
445 0.000394
446 0.000413
447 0.000436
448 0.000444
449 0.000464
450 0.000462
451 0.000454
452 0.000455
453 0.000469
454 0.000460
455 0.000442
456 0.000437
457 0.000421
458 0.000402
459 0.000374
460 0.000350
461 0.000320
462 0.000310
463 0.000311
464 0.000314
465 0.000311
466 0.000307
467 0.000322
468 0.000317
469 0.000313
470 0.000321
471 0.000336
472 0.000323
473 0.000314
474 0.000310
475 0.000310
476 0.000315
477 0.000317
478 0.000325
479 0.000307
480 0.000298
481 0.000310
482 0.000318
483 0.000318
484 0.000324
485 0.000347
486 0.000371
487 0.000395
488 0.000411
489 0.000421
490 0.000423
491 0.000418
492 0.000423
493 0.000417
494 0.000389
495 0.000362
496 0.000346
497 0.000346
498 0.000349
499 0.000360
500 0.000388
501 0.000407
502 0.000428
503 0.000451
504 0.000471
505 0.000489
506 0.000501
507 0.000508
508 0.000498
509 0.000479
510 0.000466
511 0.000438
512 0.000406
513 0.000385
514 0.000363
515 0.000347
516 0.000355
517 0.000353
518 0.000351
519 0.000345
520 0.000352
521 0.000352
522 0.000342
523 0.000328
524 0.000305
525 0.000282
526 0.000273
527 0.000255
528 0.000239
529 0.000233
530 0.000226
531 0.000230
532 0.000227
533 0.000211
534 0.000221
535 0.000226
536 0.000239
537 0.000257
538 0.000264
539 0.000267
540 0.000276
541 0.000290
542 0.000307
543 0.000309
544 0.000315
545 0.000329
546 0.000346
547 0.000357
548 0.000369
549 0.000379
550 0.000381
551 0.000371
552 0.000366
553 0.000357
554 0.000351
555 0.000341
556 0.000339
557 0.000342
558 0.000336
559 0.000340
560 0.000344
561 0.000340
562 0.000342
563 0.000336
564 0.000323
565 0.000326
566 0.000323
567 0.000319
568 0.000321
569 0.000326
570 0.000322
571 0.000323
572 0.000329
573 0.000321
574 0.000317
575 0.000324
576 0.000322
577 0.000306
578 0.000299
579 0.000295
580 0.000307
581 0.000320
582 0.000316
583 0.000317
584 0.000314
585 0.000307
586 0.000316
587 0.000321
588 0.000322
589 0.000336
590 0.000349
591 0.000358
592 0.000365
593 0.000379
594 0.000396
595 0.000416
596 0.000410
597 0.000429
598 0.000443
599 0.000437
600 0.000436
601 0.000438
602 0.000436
603 0.000435
604 0.000443
605 0.000442
606 0.000417
607 0.000405
608 0.000397
609 0.000396
610 0.000404
611 0.000412
612 0.000431
613 0.000441
614 0.000442
615 0.000459
616 0.000463
617 0.000462
618 0.000466
619 0.000473
620 0.000476
621 0.000465
622 0.000457
623 0.000464
624 0.000456
625 0.000462
626 0.000465
627 0.000471
628 0.000475
629 0.000469
630 0.000456
631 0.000449
632 0.000433
633 0.000422
634 0.000414
635 0.000404
636 0.000379
637 0.000353
638 0.000339
639 0.000339
640 0.000343
641 0.000357
642 0.000358
643 0.000362
644 0.000368
645 0.000360
646 0.000355
647 0.000345
648 0.000331
649 0.000329
650 0.000330
651 0.000322
652 0.000314
653 0.000299
654 0.000287
655 0.000279
656 0.000261
657 0.000259
658 0.000267
659 0.000265
660 0.000272
661 0.000283
662 0.000277
663 0.000276
664 0.000262
665 0.000247
666 0.000228
667 0.000215
668 0.000200
669 0.000181
670 0.000160
671 0.000135
672 0.000126
673 0.000119
674 0.000103
675 0.000087
676 0.000085
677 0.000077
678 0.000074
679 0.000067
680 0.000053
681 0.000058
682 0.000062
683 0.000067
684 0.000081
685 0.000086
686 0.000084
687 0.000082
688 0.000086
689 0.000077
690 0.000071
691 0.000079
692 0.000083
693 0.000092
694 0.000108
695 0.000118
696 0.000126
697 0.000140
698 0.000152
699 0.000170
700 0.000184
701 0.000199
702 0.000218
703 0.000225
704 0.000236
705 0.000237
706 0.000248
707 0.000261
708 0.000263
709 0.000271
710 0.000278
711 0.000280
712 0.000293
713 0.000292
714 0.000286
715 0.000266
716 0.000247
717 0.000233
718 0.000209
719 0.000187
720 0.000177
721 0.000162
722 0.000161
723 0.000158
724 0.000162
725 0.000166
726 0.000173
727 0.000183
728 0.000198
729 0.000203
730 0.000194
731 0.000184
732 0.000183
733 0.000171
734 0.000157
735 0.000147
736 0.000130
737 0.000127
738 0.000125
739 0.000119
740 0.000123
741 0.000128
742 0.000140
743 0.000149
744 0.000164
745 0.000179
746 0.000197
747 0.000211
748 0.000205
749 0.000196
750 0.000197
751 0.000185
752 0.000180
753 0.000171
754 0.000175
755 0.000192
756 0.000197
757 0.000209
758 0.000216
759 0.000224
760 0.000236
761 0.000248
762 0.000265
763 0.000275
764 0.000284
765 0.000294
766 0.000303
767 0.000307
768 0.000298
769 0.000295
770 0.000301
771 0.000300
772 0.000300
773 0.000288
774 0.000281
775 0.000277
776 0.000272
777 0.000268
778 0.000261
779 0.000240
780 0.000224
781 0.000207
782 0.000192
783 0.000179
784 0.000165
785 0.000169
786 0.000164
787 0.000148
788 0.000144
789 0.000133
790 0.000124
791 0.000119
792 0.000116
793 0.000115
794 0.000109
795 0.000096
796 0.000090
797 0.000092
798 0.000098
799 0.000095
800 0.000099
801 0.000091
802 0.000084
803 0.000082
804 0.000082
805 0.000082
806 0.000081
807 0.000089
808 0.000090
809 0.000091
