# i correlation
1 0.002392
2 0.002220
3 0.002065
4 0.001943
5 0.001831
6 0.001715
7 0.001598
8 0.001496
9 0.001414
10 0.001341
11 0.001298
12 0.001279
13 0.001262
14 0.001245
15 0.001226
16 0.001229
17 0.001238
18 0.001239
19 0.001236
20 0.001233
21 0.001215
22 0.001195
23 0.001170
24 0.001157
25 0.001155
26 0.001152
27 0.001133
28 0.001120
29 0.001087
30 0.001056
31 0.001031
32 0.001002
33 0.000977
34 0.000951
35 0.000947
36 0.000958
37 0.000975
38 0.000982
39 0.000988
40 0.000996
41 0.001008
42 0.001008
43 0.001012
44 0.001016
45 0.001016
46 0.001002
47 0.000972
48 0.000954
49 0.000927
50 0.000888
51 0.000850
52 0.000824
53 0.000808
54 0.000797
55 0.000782
56 0.000784
57 0.000781
58 0.000786
59 0.000791
60 0.000796
61 0.000801
62 0.000797
63 0.000789
64 0.000782
65 0.000762
66 0.000751
67 0.000738
68 0.000733
69 0.000720
70 0.000702
71 0.000676
72 0.000648
73 0.000628
74 0.000612
75 0.000587
76 0.000581
77 0.000564
78 0.000563
79 0.000578
80 0.000589
81 0.000599
82 0.000620
83 0.000634
84 0.000651
85 0.000664
86 0.000683
87 0.000711
88 0.000733
89 0.000750
90 0.000762
91 0.000762
92 0.000756
93 0.000745
94 0.000730
95 0.000733
96 0.000728
97 0.000734
98 0.000730
99 0.000735
100 0.000736
101 0.000728
102 0.000728
103 0.000728
104 0.000744
105 0.000758
106 0.000771
107 0.000787
108 0.000785
109 0.000779
110 0.000765
111 0.000741
112 0.000703
113 0.000672
114 0.000636
115 0.000604
116 0.000576
117 0.000554
118 0.000527
119 0.000505
120 0.000488
121 0.000482
122 0.000484
123 0.000502
124 0.000526
125 0.000555
126 0.000569
127 0.000604
128 0.000624
129 0.000642
130 0.000651
131 0.000656
132 0.000661
133 0.000659
134 0.000662
135 0.000670
136 0.000693
137 0.000693
138 0.000684
139 0.000667
140 0.000652
141 0.000650
142 0.000655
143 0.000659
144 0.000675
145 0.000696
146 0.000703
147 0.000713
148 0.000714
149 0.000713
150 0.000710
151 0.000703
152 0.000685
153 0.000686
154 0.000675
155 0.000675
156 0.000672
157 0.000643
158 0.000632
159 0.000603
160 0.000581
161 0.000572
162 0.000571
163 0.000579
164 0.000597
165 0.000633
166 0.000661
167 0.000682
168 0.000689
169 0.000701
170 0.000711
171 0.000703
172 0.000685
173 0.000683
174 0.000679
175 0.000683
176 0.000688
177 0.000679
178 0.000674
179 0.000668
180 0.000667
181 0.000670
182 0.000672
183 0.000663
184 0.000673
185 0.000672
186 0.000680
187 0.000688
188 0.000688
189 0.000679
190 0.000684
191 0.000689
192 0.000691
193 0.000704
194 0.000713
195 0.000728
196 0.000751
197 0.000767
198 0.000777
199 0.000785
200 0.000783
201 0.000789
202 0.000783
203 0.000792
204 0.000800
205 0.000808
206 0.000825
207 0.000830
208 0.000829
209 0.000813
210 0.000816
211 0.000815
212 0.000803
213 0.000781
214 0.000745
215 0.000724
216 0.000693
217 0.000650
218 0.000606
219 0.000571
220 0.000533
221 0.000503
222 0.000492
223 0.000478
224 0.000484
225 0.000502
226 0.000517
227 0.000516
228 0.000521
229 0.000534
230 0.000543
231 0.000552
232 0.000563
233 0.000579
234 0.000592
235 0.000601
236 0.000606
237 0.000596
238 0.000588
239 0.000554
240 0.000531
241 0.000493
242 0.000462
243 0.000420
244 0.000375
245 0.000337
246 0.000318
247 0.000303
248 0.000270
249 0.000255
250 0.000254
251 0.000266
252 0.000280
253 0.000304
254 0.000328
255 0.000361
256 0.000366
257 0.000370
258 0.000373
259 0.000366
260 0.000362
261 0.000350
262 0.000334
263 0.000331
264 0.000319
265 0.000297
266 0.000274
267 0.000255
268 0.000236
269 0.000224
270 0.000223
271 0.000227
272 0.000246
273 0.000263
274 0.000287
275 0.000314
276 0.000327
277 0.000346
278 0.000350
279 0.000364
280 0.000379
281 0.000395
282 0.000397
283 0.000388
284 0.000370
285 0.000358
286 0.000354
287 0.000336
288 0.000311
289 0.000292
290 0.000297
291 0.000311
292 0.000322
293 0.000339
294 0.000363
295 0.000400
296 0.000432
297 0.000449
298 0.000478
299 0.000498
300 0.000515
301 0.000525
302 0.000517
303 0.000525
304 0.000525
305 0.000516
306 0.000505
307 0.000492
308 0.000482
309 0.000462
310 0.000455
311 0.000455
312 0.000461
313 0.000466
314 0.000470
315 0.000464
316 0.000462
317 0.000468
318 0.000459
319 0.000455
320 0.000455
321 0.000464
322 0.000469
323 0.000476
324 0.000477
325 0.000467
326 0.000461
327 0.000453
328 0.000443
329 0.000446
330 0.000438
331 0.000431
332 0.000414
333 0.000413
334 0.000408
335 0.000403
336 0.000394
337 0.000394
338 0.000398
339 0.000421
340 0.000438
341 0.000444
342 0.000454
343 0.000467
344 0.000478
345 0.000481
346 0.000473
347 0.000460
348 0.000432
349 0.000409
350 0.000375
351 0.000362
352 0.000348
353 0.000340
354 0.000338
355 0.000357
356 0.000350
357 0.000362
358 0.000361
359 0.000377
360 0.000394
361 0.000414
362 0.000445
363 0.000475
364 0.000511
365 0.000543
366 0.000560
367 0.000566
368 0.000565
369 0.000555
370 0.000544
371 0.000533
372 0.000517
373 0.000494
374 0.000475
375 0.000455
376 0.000440
377 0.000438
378 0.000424
379 0.000424
380 0.000432
381 0.000437
382 0.000453
383 0.000465
384 0.000466
385 0.000464
386 0.000459
387 0.000449
388 0.000434
389 0.000408
390 0.000380
391 0.000375
392 0.000370
393 0.000364
394 0.000351
395 0.000328
396 0.000305
397 0.000287
398 0.000264
399 0.000245
400 0.000241
401 0.000241
402 0.000241
403 0.000258
404 0.000278
405 0.000308
406 0.000331
407 0.000344
408 0.000376
409 0.000416
410 0.000448
411 0.000486
412 0.000498
413 0.000513
414 0.000503
415 0.000488
416 0.000484
417 0.000470
418 0.000457
419 0.000439
420 0.000434
421 0.000442
422 0.000454
423 0.000474
424 0.000488
425 0.000498
426 0.000498
427 0.000496
428 0.000511
429 0.000524
430 0.000536
431 0.000541
432 0.000535
433 0.000538
434 0.000533
435 0.000533
436 0.000522
437 0.000527
438 0.000521
439 0.000527
440 0.000530
441 0.000533
442 0.000526
443 0.000514
444 0.000516
445 0.000501
446 0.000492
447 0.000477
448 0.000460
449 0.000437
450 0.000425
451 0.000414
452 0.000396
453 0.000380
454 0.000372
455 0.000350
456 0.000330
457 0.000314
458 0.000302
459 0.000289
460 0.000278
461 0.000282
462 0.000303
463 0.000309
464 0.000314
465 0.000327
466 0.000357
467 0.000373
468 0.000383
469 0.000393
470 0.000397
471 0.000400
472 0.000408
473 0.000410
474 0.000407
475 0.000398
476 0.000398
477 0.000388
478 0.000373
479 0.000354
480 0.000337
481 0.000314
482 0.000311
483 0.000300
484 0.000293
485 0.000284
486 0.000279
487 0.000286
488 0.000292
489 0.000306
490 0.000317
491 0.000322
492 0.000325
493 0.000331
494 0.000327
495 0.000309
496 0.000292
497 0.000283
498 0.000279
499 0.000279
500 0.000277
501 0.000275
502 0.000270
503 0.000263
504 0.000251
505 0.000232
506 0.000232
507 0.000236
508 0.000244
509 0.000245
510 0.000264
511 0.000283
512 0.000303
513 0.000320
514 0.000319
515 0.000325
516 0.000329
517 0.000328
518 0.000334
519 0.000326
520 0.000335
521 0.000332
522 0.000330
523 0.000334
524 0.000337
525 0.000333
526 0.000334
527 0.000332
528 0.000330
529 0.000337
530 0.000353
531 0.000352
532 0.000352
533 0.000346
534 0.000342
535 0.000340
536 0.000345
537 0.000346
538 0.000339
539 0.000330
540 0.000310
541 0.000291
542 0.000271
543 0.000241
544 0.000213
545 0.000201
546 0.000193
547 0.000178
548 0.000168
549 0.000155
550 0.000164
551 0.000171
552 0.000181
553 0.000187
554 0.000178
555 0.000165
556 0.000150
557 0.000142
558 0.000146
559 0.000148
560 0.000147
561 0.000148
562 0.000145
563 0.000137
564 0.000143
565 0.000143
566 0.000145
567 0.000153
568 0.000150
569 0.000155
570 0.000162
571 0.000173
572 0.000179
573 0.000181
574 0.000180
575 0.000181
576 0.000190
577 0.000197
578 0.000217
579 0.000245
580 0.000264
581 0.000275
582 0.000275
583 0.000262
584 0.000247
585 0.000235
586 0.000215
587 0.000193
588 0.000174
589 0.000148
590 0.000145
591 0.000152
592 0.000151
593 0.000140
594 0.000127
595 0.000125
596 0.000135
597 0.000152
598 0.000168
599 0.000182
600 0.000188
601 0.000189
602 0.000190
603 0.000188
604 0.000190
605 0.000190
606 0.000194
607 0.000203
608 0.000212
609 0.000232
610 0.000256
611 0.000273
612 0.000284
613 0.000299
614 0.000309
615 0.000330
616 0.000354
617 0.000379
618 0.000405
619 0.000435
620 0.000468
621 0.000499
622 0.000520
623 0.000536
624 0.000548
625 0.000546
626 0.000539
627 0.000532
628 0.000523
629 0.000515
630 0.000489
631 0.000468
632 0.000452
633 0.000431
634 0.000424
635 0.000425
636 0.000432
637 0.000444
638 0.000460
639 0.000474
640 0.000494
641 0.000509
642 0.000517
643 0.000531
644 0.000540
645 0.000546
646 0.000547
647 0.000545
648 0.000542
649 0.000535
650 0.000526
651 0.000519
652 0.000516
653 0.000504
654 0.000498
655 0.000500
656 0.000497
657 0.000498
658 0.000499
659 0.000499
660 0.000501
661 0.000498
662 0.000493
663 0.000494
664 0.000502
665 0.000511
666 0.000521
667 0.000532
668 0.000553
669 0.000567
670 0.000570
671 0.000571
672 0.000568
673 0.000567
674 0.000557
675 0.000542
676 0.000529
677 0.000528
678 0.000525
679 0.000512
680 0.000490
681 0.000469
682 0.000452
683 0.000439
684 0.000429
685 0.000422
686 0.000415
687 0.000410
688 0.000411
689 0.000401
690 0.000395
691 0.000390
692 0.000387
693 0.000378
694 0.000369
695 0.000358
696 0.000354
697 0.000348
698 0.000344
699 0.000341
700 0.000335
701 0.000331
702 0.000334
703 0.000332
704 0.000338
705 0.000340
706 0.000347
707 0.000357
708 0.000377
709 0.000394
710 0.000403
711 0.000405
712 0.000404
713 0.000396
714 0.000393
715 0.000391
716 0.000395
717 0.000387
718 0.000376
719 0.000372
720 0.000364
721 0.000357
722 0.000352
723 0.000356
724 0.000363
725 0.000368
726 0.000380
727 0.000396
728 0.000414
729 0.000431
730 0.000434
731 0.000430
732 0.000424
733 0.000414
734 0.000405
735 0.000401
736 0.000392
737 0.000376
738 0.000355
739 0.000328
740 0.000307
741 0.000293
742 0.000278
743 0.000262
744 0.000254
745 0.000255
746 0.000262
747 0.000271
748 0.000285
749 0.000292
750 0.000286
751 0.000279
752 0.000284
753 0.000288
754 0.000287
755 0.000282
756 0.000282
757 0.000279
758 0.000276
759 0.000265
760 0.000263
761 0.000257
762 0.000253
763 0.000243
764 0.000234
765 0.000231
766 0.000226
767 0.000217
768 0.000208
769 0.000198
770 0.000191
771 0.000186
772 0.000189
773 0.000192
774 0.000195
775 0.000196
776 0.000196
777 0.000194
778 0.000197
779 0.000204
780 0.000209
781 0.000207
782 0.000197
783 0.000194
784 0.000191
785 0.000186
786 0.000181
787 0.000180
788 0.000183
789 0.000187
790 0.000199
791 0.000207
792 0.000222
793 0.000240
794 0.000248
795 0.000256
796 0.000262
797 0.000274
798 0.000281
799 0.000284
800 0.000277
801 0.000273
802 0.000267
803 0.000265
804 0.000266
805 0.000272
806 0.000282
807 0.000292
808 0.000295
809 0.000296
