# i correlation
1 0.001822
2 0.001649
3 0.001500
4 0.001381
5 0.001296
6 0.001226
7 0.001177
8 0.001108
9 0.001046
10 0.000991
11 0.000950
12 0.000936
13 0.000931
14 0.000947
15 0.000950
16 0.000967
17 0.000975
18 0.000978
19 0.000958
20 0.000928
21 0.000910
22 0.000882
23 0.000868
24 0.000856
25 0.000840
26 0.000824
27 0.000804
28 0.000798
29 0.000776
30 0.000803
31 0.000826
32 0.000828
33 0.000797
34 0.000763
35 0.000722
36 0.000679
37 0.000650
38 0.000634
39 0.000620
40 0.000608
41 0.000606
42 0.000598
43 0.000587
44 0.000598
45 0.000603
46 0.000610
47 0.000625
48 0.000624
49 0.000643
50 0.000663
51 0.000668
52 0.000666
53 0.000666
54 0.000672
55 0.000678
56 0.000670
57 0.000646
58 0.000640
59 0.000622
60 0.000603
61 0.000593
62 0.000594
63 0.000576
64 0.000535
65 0.000506
66 0.000462
67 0.000472
68 0.000513
69 0.000553
70 0.000572
71 0.000566
72 0.000561
73 0.000558
74 0.000568
75 0.000580
76 0.000595
77 0.000617
78 0.000607
79 0.000600
80 0.000599
81 0.000596
82 0.000589
83 0.000591
84 0.000570
85 0.000557
86 0.000558
87 0.000557
88 0.000544
89 0.000537
90 0.000517
91 0.000508
92 0.000495
93 0.000497
94 0.000510
95 0.000538
96 0.000550
97 0.000549
98 0.000546
99 0.000543
100 0.000557
101 0.000558
102 0.000559
103 0.000548
104 0.000512
105 0.000459
106 0.000410
107 0.000374
108 0.000351
109 0.000338
110 0.000319
111 0.000307
112 0.000326
113 0.000337
114 0.000356
115 0.000373
116 0.000389
117 0.000409
118 0.000409
119 0.000423
120 0.000449
121 0.000453
122 0.000442
123 0.000433
124 0.000418
125 0.000389
126 0.000365
127 0.000365
128 0.000381
129 0.000385
130 0.000397
131 0.000412
132 0.000421
133 0.000426
134 0.000406
135 0.000378
136 0.000360
137 0.000358
138 0.000350
139 0.000357
140 0.000347
141 0.000340
142 0.000347
143 0.000340
144 0.000349
145 0.000376
146 0.000396
147 0.000429
148 0.000465
149 0.000478
150 0.000467
151 0.000478
152 0.000473
153 0.000465
154 0.000462
155 0.000465
156 0.000473
157 0.000461
158 0.000455
159 0.000453
160 0.000437
161 0.000422
162 0.000419
163 0.000428
164 0.000432
165 0.000436
166 0.000417
167 0.000408
168 0.000409
169 0.000416
170 0.000429
171 0.000442
172 0.000464
173 0.000472
174 0.000485
175 0.000498
176 0.000508
177 0.000517
178 0.000525
179 0.000527
180 0.000514
181 0.000496
182 0.000470
183 0.000454
184 0.000420
185 0.000376
186 0.000364
187 0.000353
188 0.000334
189 0.000333
190 0.000332
191 0.000331
192 0.000339
193 0.000354
194 0.000352
195 0.000364
196 0.000377
197 0.000389
198 0.000394
199 0.000393
200 0.000392
201 0.000390
202 0.000381
203 0.000366
204 0.000338
205 0.000304
206 0.000290
207 0.000274
208 0.000253
209 0.000245
210 0.000246
211 0.000240
212 0.000212
213 0.000186
214 0.000161
215 0.000145
216 0.000122
217 0.000104
218 0.000093
219 0.000091
220 0.000085
221 0.000068
222 0.000051
223 0.000037
224 0.000048
225 0.000072
226 0.000086
227 0.000107
228 0.000120
229 0.000124
230 0.000137
231 0.000167
232 0.000202
233 0.000225
234 0.000246
235 0.000243
236 0.000241
237 0.000227
238 0.000201
239 0.000175
240 0.000163
241 0.000148
242 0.000145
243 0.000137
244 0.000141
245 0.000162
246 0.000172
247 0.000174
248 0.000193
249 0.000206
250 0.000222
251 0.000261
252 0.000286
253 0.000293
254 0.000296
255 0.000289
256 0.000294
257 0.000304
258 0.000301
259 0.000285
260 0.000254
261 0.000230
262 0.000222
263 0.000218
264 0.000195
265 0.000182
266 0.000176
267 0.000164
268 0.000145
269 0.000132
270 0.000124
271 0.000122
272 0.000121
273 0.000119
274 0.000105
275 0.000097
276 0.000118
277 0.000130
278 0.000148
279 0.000168
280 0.000175
281 0.000175
282 0.000174
283 0.000174
284 0.000171
285 0.000182
286 0.000202
287 0.000220
288 0.000230
289 0.000236
290 0.000245
291 0.000229
292 0.000219
293 0.000212
294 0.000205
295 0.000219
296 0.000218
297 0.000208
298 0.000190
299 0.000182
300 0.000187
301 0.000210
302 0.000239
303 0.000262
304 0.000284
305 0.000295
306 0.000308
307 0.000324
308 0.000341
309 0.000355
310 0.000362
311 0.000371
312 0.000380
313 0.000389
314 0.000396
315 0.000380
316 0.000368
317 0.000377
318 0.000373
319 0.000383
320 0.000392
321 0.000394
322 0.000386
323 0.000391
324 0.000384
325 0.000388
326 0.000407
327 0.000436
328 0.000458
329 0.000469
330 0.000472
331 0.000472
332 0.000462
333 0.000443
334 0.000453
335 0.000471
336 0.000471
337 0.000468
338 0.000449
339 0.000441
340 0.000429
341 0.000416
342 0.000395
343 0.000364
344 0.000349
345 0.000338
346 0.000330
347 0.000320
348 0.000333
349 0.000342
350 0.000338
351 0.000325
352 0.000310
353 0.000299
354 0.000299
355 0.000311
356 0.000299
357 0.000311
358 0.000334
359 0.000332
360 0.000326
361 0.000321
362 0.000331
363 0.000325
364 0.000312
365 0.000310
366 0.000292
367 0.000270
368 0.000248
369 0.000242
370 0.000218
371 0.000203
372 0.000188
373 0.000174
374 0.000154
375 0.000149
376 0.000156
377 0.000154
378 0.000154
379 0.000164
380 0.000169
381 0.000179
382 0.000191
383 0.000189
384 0.000172
385 0.000168
386 0.000164
387 0.000157
388 0.000157
389 0.000154
390 0.000159
391 0.000143
392 0.000118
393 0.000101
394 0.000090
395 0.000077
396 0.000078
397 0.000083
398 0.000088
399 0.000105
400 0.000111
401 0.000102
402 0.000093
403 0.000101
404 0.000121
405 0.000136
406 0.000148
407 0.000165
408 0.000178
409 0.000190
410 0.000191
411 0.000184
412 0.000182
413 0.000180
414 0.000174
415 0.000171
416 0.000176
417 0.000187
418 0.000199
419 0.000205
420 0.000214
421 0.000224
422 0.000234
423 0.000241
424 0.000245
425 0.000259
426 0.000265
427 0.000267
428 0.000265
429 0.000258
430 0.000246
431 0.000255
432 0.000264
433 0.000267
434 0.000270
435 0.000276
436 0.000266
437 0.000263
438 0.000264
439 0.000254
440 0.000241
441 0.000226
442 0.000205
443 0.000178
444 0.000173
445 0.000153
446 0.000144
447 0.000128
448 0.000114
449 0.000114
450 0.000120
451 0.000135
452 0.000154
453 0.000162
454 0.000171
455 0.000169
456 0.000183
457 0.000199
458 0.000212
459 0.000242
460 0.000252
461 0.000246
462 0.000236
463 0.000226
464 0.000205
465 0.000190
466 0.000179
467 0.000165
468 0.000156
469 0.000140
470 0.000117
471 0.000083
472 0.000065
473 0.000045
474 0.000036
475 0.000023
476 0.000017
477 0.000031
478 0.000047
479 0.000061
480 0.000076
481 0.000099
482 0.000138
483 0.000171
484 0.000184
485 0.000193
486 0.000212
487 0.000228
488 0.000244
489 0.000249
490 0.000251
491 0.000253
492 0.000233
493 0.000227
494 0.000209
495 0.000187
496 0.000174
497 0.000163
498 0.000164
499 0.000168
500 0.000175
501 0.000184
502 0.000193
503 0.000214
504 0.000230
505 0.000245
506 0.000264
507 0.000276
508 0.000286
509 0.000298
510 0.000296
511 0.000290
512 0.000283
513 0.000277
514 0.000275
515 0.000261
516 0.000253
517 0.000253
518 0.000251
519 0.000245
520 0.000240
521 0.000247
522 0.000243
523 0.000221
524 0.000215
525 0.000199
526 0.000171
527 0.000163
528 0.000147
529 0.000139
530 0.000128
531 0.000103
532 0.000084
533 0.000064
534 0.000053
535 0.000043
536 0.000042
537 0.000055
538 0.000066
539 0.000083
540 0.000086
541 0.000098
542 0.000103
543 0.000092
544 0.000086
545 0.000078
546 0.000063
547 0.000041
548 0.000030
549 0.000013
550 -0.000008
551 -0.000026
552 -0.000045
553 -0.000055
554 -0.000051
555 -0.000038
556 -0.000036
557 -0.000043
558 -0.000042
559 -0.000030
560 -0.000011
561 0.000007
562 0.000020
563 0.000018
564 0.000016
565 0.000008
566 0.000001
567 -0.000015
568 -0.000014
569 -0.000024
570 -0.000035
571 -0.000040
572 -0.000046
573 -0.000044
574 -0.000044
575 -0.000043
576 -0.000026
577 -0.000013
578 -0.000005
579 -0.000003
580 0.000009
581 0.000007
582 0.000014
583 0.000022
584 0.000026
585 0.000027
586 0.000032
587 0.000016
588 -0.000001
589 -0.000020
590 -0.000028
591 -0.000031
592 -0.000020
593 -0.000014
594 -0.000004
595 -0.000001
596 -0.000000
597 0.000000
598 0.000007
599 0.000010
600 0.000025
601 0.000037
602 0.000051
603 0.000057
604 0.000062
605 0.000065
606 0.000054
607 0.000053
608 0.000057
609 0.000057
610 0.000051
611 0.000046
612 0.000037
613 0.000028
614 0.000026
615 0.000036
616 0.000048
617 0.000051
618 0.000065
619 0.000058
620 0.000059
621 0.000050
622 0.000051
623 0.000055
624 0.000062
625 0.000075
626 0.000074
627 0.000067
628 0.000062
629 0.000050
630 0.000046
631 0.000054
632 0.000056
633 0.000059
634 0.000065
635 0.000069
636 0.000068
637 0.000065
638 0.000061
639 0.000061
640 0.000068
641 0.000073
642 0.000073
643 0.000066
644 0.000051
645 0.000040
646 0.000030
647 0.000030
648 0.000036
649 0.000041
650 0.000050
651 0.000053
652 0.000058
653 0.000060
654 0.000057
655 0.000071
656 0.000092
657 0.000113
658 0.000132
659 0.000147
660 0.000149
661 0.000148
662 0.000151
663 0.000159
664 0.000167
665 0.000180
666 0.000195
667 0.000197
668 0.000188
669 0.000188
670 0.000183
671 0.000181
672 0.000174
673 0.000169
674 0.000165
675 0.000153
676 0.000148
677 0.000148
678 0.000156
679 0.000156
680 0.000156
681 0.000155
682 0.000154
683 0.000155
684 0.000151
685 0.000154
686 0.000151
687 0.000147
688 0.000151
689 0.000161
690 0.000171
691 0.000163
692 0.000164
693 0.000157
694 0.000151
695 0.000148
696 0.000157
697 0.000165
698 0.000170
699 0.000179
700 0.000180
701 0.000173
702 0.000167
703 0.000162
704 0.000158
705 0.000156
706 0.000146
707 0.000133
708 0.000127
709 0.000122
710 0.000117
711 0.000120
712 0.000119
713 0.000128
714 0.000135
715 0.000144
716 0.000153
717 0.000166
718 0.000174
719 0.000175
720 0.000191
721 0.000196
722 0.000192
723 0.000186
724 0.000185
725 0.000190
726 0.000184
727 0.000189
728 0.000185
729 0.000166
730 0.000153
731 0.000151
732 0.000146
733 0.000145
734 0.000151
735 0.000151
736 0.000157
737 0.000168
738 0.000177
739 0.000195
740 0.000210
741 0.000225
742 0.000226
743 0.000228
744 0.000227
745 0.000233
746 0.000241
747 0.000244
748 0.000244
749 0.000243
750 0.000240
751 0.000238
752 0.000238
753 0.000246
754 0.000252
755 0.000258
756 0.000259
757 0.000263
758 0.000260
759 0.000260
760 0.000257
761 0.000258
762 0.000252
763 0.000246
764 0.000234
765 0.000229
766 0.000217
767 0.000214
768 0.000207
769 0.000208
770 0.000205
771 0.000204
772 0.000204
773 0.000207
774 0.000213
775 0.000223
776 0.000234
777 0.000237
778 0.000240
779 0.000245
780 0.000241
781 0.000240
782 0.000234
783 0.000237
784 0.000227
785 0.000213
786 0.000203
787 0.000194
788 0.000187
789 0.000180
790 0.000181
791 0.000179
792 0.000175
793 0.000174
794 0.000175
795 0.000184
796 0.000195
797 0.000200
798 0.000202
799 0.000199
800 0.000195
801 0.000191
802 0.000187
803 0.000181
804 0.000175
805 0.000166
806 0.000157
807 0.000155
808 0.000161
809 0.000162
