# i correlation
1 0.002478
2 0.002287
3 0.002122
4 0.001989
5 0.001885
6 0.001792
7 0.001740
8 0.001696
9 0.001642
10 0.001609
11 0.001574
12 0.001528
13 0.001479
14 0.001465
15 0.001462
16 0.001468
17 0.001483
18 0.001509
19 0.001530
20 0.001520
21 0.001505
22 0.001488
23 0.001460
24 0.001441
25 0.001423
26 0.001401
27 0.001362
28 0.001328
29 0.001306
30 0.001305
31 0.001305
32 0.001290
33 0.001292
34 0.001298
35 0.001294
36 0.001288
37 0.001289
38 0.001302
39 0.001314
40 0.001324
41 0.001304
42 0.001296
43 0.001277
44 0.001277
45 0.001281
46 0.001285
47 0.001281
48 0.001274
49 0.001273
50 0.001252
51 0.001226
52 0.001217
53 0.001208
54 0.001210
55 0.001204
56 0.001170
57 0.001159
58 0.001156
59 0.001155
60 0.001146
61 0.001121
62 0.001110
63 0.001086
64 0.001077
65 0.001069
66 0.001050
67 0.001033
68 0.001024
69 0.001027
70 0.001032
71 0.001037
72 0.001033
73 0.001048
74 0.001054
75 0.001037
76 0.001032
77 0.001019
78 0.001003
79 0.001001
80 0.000992
81 0.000983
82 0.000989
83 0.000999
84 0.001039
85 0.001078
86 0.001084
87 0.001081
88 0.001090
89 0.001117
90 0.001139
91 0.001158
92 0.001166
93 0.001169
94 0.001164
95 0.001173
96 0.001154
97 0.001132
98 0.001097
99 0.001081
100 0.001059
101 0.001038
102 0.001019
103 0.001024
104 0.001037
105 0.001040
106 0.001039
107 0.001051
108 0.001054
109 0.001056
110 0.001058
111 0.001040
112 0.000997
113 0.000973
114 0.000954
115 0.000937
116 0.000923
117 0.000913
118 0.000882
119 0.000861
120 0.000849
121 0.000848
122 0.000858
123 0.000855
124 0.000865
125 0.000855
126 0.000841
127 0.000837
128 0.000859
129 0.000877
130 0.000899
131 0.000908
132 0.000918
133 0.000923
134 0.000922
135 0.000916
136 0.000896
137 0.000878
138 0.000869
139 0.000870
140 0.000850
141 0.000830
142 0.000818
143 0.000824
144 0.000829
145 0.000818
146 0.000799
147 0.000797
148 0.000792
149 0.000803
150 0.000808
151 0.000803
152 0.000785
153 0.000785
154 0.000788
155 0.000800
156 0.000809
157 0.000799
158 0.000789
159 0.000773
160 0.000746
161 0.000739
162 0.000724
163 0.000715
164 0.000712
165 0.000698
166 0.000706
167 0.000704
168 0.000729
169 0.000758
170 0.000765
171 0.000759
172 0.000745
173 0.000724
174 0.000720
175 0.000715
176 0.000736
177 0.000752
178 0.000750
179 0.000770
180 0.000795
181 0.000820
182 0.000829
183 0.000822
184 0.000809
185 0.000789
186 0.000772
187 0.000783
188 0.000808
189 0.000833
190 0.000847
191 0.000848
192 0.000846
193 0.000842
194 0.000816
195 0.000793
196 0.000772
197 0.000755
198 0.000779
199 0.000820
200 0.000852
201 0.000883
202 0.000912
203 0.000933
204 0.000939
205 0.000938
206 0.000939
207 0.000934
208 0.000937
209 0.000936
210 0.000940
211 0.000903
212 0.000859
213 0.000846
214 0.000842
215 0.000840
216 0.000848
217 0.000856
218 0.000863
219 0.000861
220 0.000856
221 0.000858
222 0.000841
223 0.000853
224 0.000871
225 0.000895
226 0.000905
227 0.000905
228 0.000908
229 0.000899
230 0.000875
231 0.000843
232 0.000825
233 0.000809
234 0.000812
235 0.000820
236 0.000821
237 0.000808
238 0.000809
239 0.000814
240 0.000830
241 0.000824
242 0.000827
243 0.000832
244 0.000842
245 0.000856
246 0.000871
247 0.000898
248 0.000935
249 0.000957
250 0.000952
251 0.000918
252 0.000886
253 0.000868
254 0.000847
255 0.000843
256 0.000825
257 0.000802
258 0.000785
259 0.000769
260 0.000757
261 0.000754
262 0.000745
263 0.000749
264 0.000742
265 0.000732
266 0.000729
267 0.000740
268 0.000739
269 0.000727
270 0.000704
271 0.000683
272 0.000652
273 0.000627
274 0.000614
275 0.000619
276 0.000603
277 0.000592
278 0.000599
279 0.000595
280 0.000595
281 0.000591
282 0.000573
283 0.000558
284 0.000558
285 0.000573
286 0.000594
287 0.000607
288 0.000631
289 0.000654
290 0.000673
291 0.000677
292 0.000683
293 0.000702
294 0.000708
295 0.000715
296 0.000722
297 0.000736
298 0.000750
299 0.000756
300 0.000759
301 0.000761
302 0.000768
303 0.000772
304 0.000774
305 0.000790
306 0.000800
307 0.000815
308 0.000841
309 0.000868
310 0.000884
311 0.000904
312 0.000917
313 0.000915
314 0.000907
315 0.000897
316 0.000873
317 0.000845
318 0.000802
319 0.000771
320 0.000736
321 0.000699
322 0.000657
323 0.000630
324 0.000620
325 0.000619
326 0.000609
327 0.000613
328 0.000592
329 0.000573
330 0.000563
331 0.000568
332 0.000589
333 0.000630
334 0.000664
335 0.000693
336 0.000690
337 0.000693
338 0.000699
339 0.000703
340 0.000713
341 0.000699
342 0.000687
343 0.000697
344 0.000690
345 0.000699
346 0.000694
347 0.000684
348 0.000673
349 0.000663
350 0.000653
351 0.000645
352 0.000640
353 0.000636
354 0.000626
355 0.000623
356 0.000628
357 0.000642
358 0.000658
359 0.000695
360 0.000724
361 0.000732
362 0.000715
363 0.000695
364 0.000688
365 0.000671
366 0.000661
367 0.000655
368 0.000645
369 0.000635
370 0.000641
371 0.000640
372 0.000619
373 0.000582
374 0.000552
375 0.000527
376 0.000503
377 0.000493
378 0.000510
379 0.000545
380 0.000570
381 0.000591
382 0.000621
383 0.000637
384 0.000634
385 0.000649
386 0.000642
387 0.000641
388 0.000641
389 0.000637
390 0.000639
391 0.000635
392 0.000642
393 0.000652
394 0.000653
395 0.000663
396 0.000671
397 0.000699
398 0.000735
399 0.000747
400 0.000753
401 0.000751
402 0.000745
403 0.000729
404 0.000726
405 0.000735
406 0.000742
407 0.000740
408 0.000740
409 0.000733
410 0.000716
411 0.000683
412 0.000647
413 0.000620
414 0.000608
415 0.000600
416 0.000621
417 0.000645
418 0.000674
419 0.000701
420 0.000684
421 0.000663
422 0.000636
423 0.000615
424 0.000598
425 0.000587
426 0.000576
427 0.000569
428 0.000565
429 0.000573
430 0.000578
431 0.000571
432 0.000576
433 0.000584
434 0.000595
435 0.000610
436 0.000631
437 0.000658
438 0.000689
439 0.000706
440 0.000716
441 0.000713
442 0.000706
443 0.000696
444 0.000701
445 0.000688
446 0.000662
447 0.000642
448 0.000622
449 0.000608
450 0.000600
451 0.000585
452 0.000570
453 0.000548
454 0.000542
455 0.000545
456 0.000560
457 0.000572
458 0.000576
459 0.000574
460 0.000553
461 0.000535
462 0.000513
463 0.000510
464 0.000501
465 0.000490
466 0.000476
467 0.000463
468 0.000458
469 0.000450
470 0.000449
471 0.000450
472 0.000455
473 0.000460
474 0.000476
475 0.000476
476 0.000472
477 0.000472
478 0.000480
479 0.000476
480 0.000462
481 0.000452
482 0.000442
483 0.000432
484 0.000435
485 0.000430
486 0.000405
487 0.000383
488 0.000382
489 0.000398
490 0.000414
491 0.000420
492 0.000433
493 0.000455
494 0.000475
495 0.000505
496 0.000533
497 0.000548
498 0.000556
499 0.000559
500 0.000547
501 0.000544
502 0.000537
503 0.000542
504 0.000544
505 0.000531
506 0.000518
507 0.000498
508 0.000467
509 0.000452
510 0.000440
511 0.000431
512 0.000423
513 0.000421
514 0.000432
515 0.000446
516 0.000457
517 0.000477
518 0.000506
519 0.000509
520 0.000523
521 0.000523
522 0.000527
523 0.000528
524 0.000529
525 0.000534
526 0.000542
527 0.000560
528 0.000571
529 0.000578
530 0.000571
531 0.000549
532 0.000537
533 0.000532
534 0.000527
535 0.000534
536 0.000549
537 0.000573
538 0.000582
539 0.000584
540 0.000585
541 0.000584
542 0.000574
543 0.000571
544 0.000568
545 0.000565
546 0.000559
547 0.000549
548 0.000553
549 0.000561
550 0.000564
551 0.000582
552 0.000600
553 0.000612
554 0.000610
555 0.000611
556 0.000593
557 0.000577
558 0.000565
559 0.000574
560 0.000586
561 0.000594
562 0.000598
563 0.000595
564 0.000595
565 0.000573
566 0.000565
567 0.000556
568 0.000541
569 0.000542
570 0.000534
571 0.000525
572 0.000512
573 0.000492
574 0.000484
575 0.000463
576 0.000427
577 0.000394
578 0.000370
579 0.000353
580 0.000345
581 0.000331
582 0.000321
583 0.000306
584 0.000288
585 0.000279
586 0.000285
587 0.000301
588 0.000321
589 0.000338
590 0.000350
591 0.000356
592 0.000353
593 0.000345
594 0.000340
595 0.000340
596 0.000326
597 0.000310
598 0.000301
599 0.000292
600 0.000285
601 0.000275
602 0.000276
603 0.000265
604 0.000254
605 0.000253
606 0.000274
607 0.000295
608 0.000316
609 0.000326
610 0.000339
611 0.000344
612 0.000342
613 0.000340
614 0.000338
615 0.000325
616 0.000308
617 0.000300
618 0.000295
619 0.000294
620 0.000299
621 0.000305
622 0.000304
623 0.000305
624 0.000302
625 0.000301
626 0.000302
627 0.000306
628 0.000325
629 0.000320
630 0.000307
631 0.000294
632 0.000287
633 0.000298
634 0.000301
635 0.000296
636 0.000283
637 0.000278
638 0.000268
639 0.000245
640 0.000235
641 0.000219
642 0.000221
643 0.000215
644 0.000215
645 0.000227
646 0.000248
647 0.000254
648 0.000268
649 0.000270
650 0.000275
651 0.000271
652 0.000263
653 0.000254
654 0.000260
655 0.000246
656 0.000230
657 0.000222
658 0.000207
659 0.000199
660 0.000192
661 0.000195
662 0.000191
663 0.000175
664 0.000161
665 0.000152
666 0.000159
667 0.000167
668 0.000171
669 0.000162
670 0.000144
671 0.000133
672 0.000128
673 0.000123
674 0.000115
675 0.000111
676 0.000108
677 0.000104
678 0.000102
679 0.000089
680 0.000075
681 0.000061
682 0.000052
683 0.000053
684 0.000048
685 0.000045
686 0.000047
687 0.000042
688 0.000035
689 0.000006
690 -0.000014
691 -0.000027
692 -0.000034
693 -0.000040
694 -0.000024
695 -0.000004
696 0.000008
697 0.000028
698 0.000034
699 0.000050
700 0.000056
701 0.000050
702 0.000055
703 0.000058
704 0.000063
705 0.000066
706 0.000073
707 0.000083
708 0.000080
709 0.000072
710 0.000057
711 0.000043
712 0.000029
713 0.000020
714 0.000011
715 0.000006
716 0.000007
717 0.000011
718 0.000016
719 0.000020
720 0.000017
721 0.000014
722 0.000011
723 0.000012
724 0.000011
725 0.000017
726 0.000024
727 0.000027
728 0.000044
729 0.000047
730 0.000059
731 0.000072
732 0.000078
733 0.000078
734 0.000072
735 0.000075
736 0.000074
737 0.000070
738 0.000073
739 0.000071
740 0.000071
741 0.000079
742 0.000088
743 0.000110
744 0.000120
745 0.000137
746 0.000154
747 0.000165
748 0.000162
749 0.000152
750 0.000145
751 0.000143
752 0.000148
753 0.000147
754 0.000150
755 0.000155
756 0.000159
757 0.000164
758 0.000162
759 0.000156
760 0.000141
761 0.000136
762 0.000145
763 0.000150
764 0.000151
765 0.000161
766 0.000164
767 0.000169
768 0.000172
769 0.000178
770 0.000190
771 0.000197
772 0.000203
773 0.000202
774 0.000195
775 0.000188
776 0.000191
777 0.000203
778 0.000204
779 0.000196
780 0.000185
781 0.000173
782 0.000169
783 0.000162
784 0.000157
785 0.000157
786 0.000154
787 0.000155
788 0.000161
789 0.000172
790 0.000179
791 0.000181
792 0.000178
793 0.000180
794 0.000173
795 0.000171
796 0.000172
797 0.000176
798 0.000178
799 0.000183
800 0.000187
801 0.000199
802 0.000200
803 0.000196
804 0.000203
805 0.000203
806 0.000201
807 0.000204
808 0.000200
809 0.000202
