# i correlation
1 0.002365
2 0.002183
3 0.002036
4 0.001928
5 0.001831
6 0.001754
7 0.001688
8 0.001616
9 0.001569
10 0.001512
11 0.001488
12 0.001469
13 0.001438
14 0.001412
15 0.001398
16 0.001399
17 0.001378
18 0.001351
19 0.001312
20 0.001277
21 0.001239
22 0.001198
23 0.001154
24 0.001129
25 0.001089
26 0.001040
27 0.001017
28 0.001000
29 0.000991
30 0.000984
31 0.000973
32 0.000991
33 0.001001
34 0.000999
35 0.001012
36 0.001025
37 0.001034
38 0.001025
39 0.001031
40 0.001050
41 0.001085
42 0.001097
43 0.001115
44 0.001118
45 0.001109
46 0.001095
47 0.001085
48 0.001077
49 0.001051
50 0.001031
51 0.001009
52 0.000989
53 0.000995
54 0.001011
55 0.001024
56 0.001029
57 0.001041
58 0.001041
59 0.001063
60 0.001088
61 0.001105
62 0.001114
63 0.001116
64 0.001086
65 0.001074
66 0.001090
67 0.001107
68 0.001088
69 0.001044
70 0.001019
71 0.000988
72 0.000986
73 0.000978
74 0.000973
75 0.000980
76 0.000996
77 0.001005
78 0.001025
79 0.001042
80 0.001056
81 0.001048
82 0.001042
83 0.001048
84 0.001051
85 0.001043
86 0.001028
87 0.001016
88 0.001002
89 0.000984
90 0.000966
91 0.000943
92 0.000904
93 0.000861
94 0.000843
95 0.000830
96 0.000827
97 0.000821
98 0.000834
99 0.000848
100 0.000861
101 0.000854
102 0.000856
103 0.000848
104 0.000840
105 0.000828
106 0.000801
107 0.000774
108 0.000752
109 0.000738
110 0.000704
111 0.000672
112 0.000627
113 0.000592
114 0.000560
115 0.000551
116 0.000560
117 0.000564
118 0.000561
119 0.000543
120 0.000553
121 0.000579
122 0.000609
123 0.000636
124 0.000659
125 0.000671
126 0.000665
127 0.000673
128 0.000675
129 0.000663
130 0.000658
131 0.000651
132 0.000646
133 0.000649
134 0.000658
135 0.000652
136 0.000639
137 0.000618
138 0.000579
139 0.000562
140 0.000536
141 0.000519
142 0.000504
143 0.000482
144 0.000457
145 0.000454
146 0.000447
147 0.000432
148 0.000403
149 0.000378
150 0.000367
151 0.000355
152 0.000347
153 0.000328
154 0.000299
155 0.000285
156 0.000269
157 0.000265
158 0.000266
159 0.000272
160 0.000271
161 0.000290
162 0.000306
163 0.000311
164 0.000346
165 0.000382
166 0.000409
167 0.000432
168 0.000463
169 0.000492
170 0.000481
171 0.000475
172 0.000460
173 0.000443
174 0.000424
175 0.000424
176 0.000435
177 0.000456
178 0.000471
179 0.000480
180 0.000476
181 0.000478
182 0.000466
183 0.000487
184 0.000520
185 0.000545
186 0.000548
187 0.000539
188 0.000535
189 0.000527
190 0.000517
191 0.000491
192 0.000470
193 0.000462
194 0.000441
195 0.000410
196 0.000404
197 0.000405
198 0.000386
199 0.000361
200 0.000349
201 0.000351
202 0.000349
203 0.000329
204 0.000310
205 0.000308
206 0.000294
207 0.000275
208 0.000266
209 0.000279
210 0.000275
211 0.000262
212 0.000262
213 0.000253
214 0.000245
215 0.000236
216 0.000235
217 0.000249
218 0.000267
219 0.000258
220 0.000244
221 0.000235
222 0.000241
223 0.000238
224 0.000247
225 0.000268
226 0.000282
227 0.000285
228 0.000285
229 0.000281
230 0.000267
231 0.000269
232 0.000285
233 0.000309
234 0.000317
235 0.000323
236 0.000339
237 0.000357
238 0.000378
239 0.000387
240 0.000389
241 0.000406
242 0.000422
243 0.000409
244 0.000412
245 0.000412
246 0.000408
247 0.000408
248 0.000400
249 0.000402
250 0.000404
251 0.000407
252 0.000423
253 0.000442
254 0.000447
255 0.000453
256 0.000460
257 0.000474
258 0.000471
259 0.000471
260 0.000470
261 0.000466
262 0.000459
263 0.000459
264 0.000464
265 0.000476
266 0.000489
267 0.000490
268 0.000490
269 0.000494
270 0.000486
271 0.000473
272 0.000448
273 0.000415
274 0.000388
275 0.000369
276 0.000354
277 0.000347
278 0.000327
279 0.000313
280 0.000286
281 0.000281
282 0.000278
283 0.000270
284 0.000271
285 0.000276
286 0.000280
287 0.000271
288 0.000265
289 0.000250
290 0.000234
291 0.000212
292 0.000210
293 0.000202
294 0.000188
295 0.000179
296 0.000182
297 0.000187
298 0.000204
299 0.000232
300 0.000250
301 0.000272
302 0.000276
303 0.000274
304 0.000277
305 0.000281
306 0.000284
307 0.000289
308 0.000303
309 0.000311
310 0.000327
311 0.000352
312 0.000391
313 0.000420
314 0.000446
315 0.000446
316 0.000442
317 0.000428
318 0.000423
319 0.000409
320 0.000414
321 0.000419
322 0.000426
323 0.000439
324 0.000448
325 0.000469
326 0.000479
327 0.000492
328 0.000506
329 0.000529
330 0.000534
331 0.000528
332 0.000520
333 0.000516
334 0.000516
335 0.000507
336 0.000497
337 0.000475
338 0.000460
339 0.000442
340 0.000429
341 0.000427
342 0.000438
343 0.000450
344 0.000463
345 0.000486
346 0.000506
347 0.000517
348 0.000516
349 0.000509
350 0.000494
351 0.000474
352 0.000460
353 0.000461
354 0.000461
355 0.000458
356 0.000438
357 0.000405
358 0.000385
359 0.000371
360 0.000356
361 0.000348
362 0.000354
363 0.000337
364 0.000311
365 0.000300
366 0.000290
367 0.000284
368 0.000276
369 0.000278
370 0.000279
371 0.000281
372 0.000268
373 0.000246
374 0.000237
375 0.000230
376 0.000201
377 0.000183
378 0.000172
379 0.000158
380 0.000142
381 0.000135
382 0.000131
383 0.000138
384 0.000141
385 0.000121
386 0.000116
387 0.000124
388 0.000146
389 0.000165
390 0.000183
391 0.000197
392 0.000204
393 0.000204
394 0.000211
395 0.000215
396 0.000212
397 0.000208
398 0.000189
399 0.000182
400 0.000171
401 0.000185
402 0.000207
403 0.000230
404 0.000234
405 0.000229
406 0.000228
407 0.000221
408 0.000226
409 0.000217
410 0.000214
411 0.000216
412 0.000219
413 0.000229
414 0.000223
415 0.000223
416 0.000208
417 0.000191
418 0.000165
419 0.000154
420 0.000130
421 0.000118
422 0.000113
423 0.000115
424 0.000114
425 0.000113
426 0.000110
427 0.000096
428 0.000099
429 0.000110
430 0.000118
431 0.000125
432 0.000129
433 0.000122
434 0.000122
435 0.000118
436 0.000097
437 0.000087
438 0.000096
439 0.000083
440 0.000071
441 0.000056
442 0.000046
443 0.000040
444 0.000031
445 0.000031
446 0.000048
447 0.000056
448 0.000045
449 0.000042
450 0.000061
451 0.000075
452 0.000073
453 0.000071
454 0.000079
455 0.000082
456 0.000074
457 0.000057
458 0.000042
459 0.000024
460 -0.000003
461 -0.000031
462 -0.000052
463 -0.000078
464 -0.000105
465 -0.000136
466 -0.000158
467 -0.000161
468 -0.000166
469 -0.000158
470 -0.000144
471 -0.000133
472 -0.000142
473 -0.000154
474 -0.000167
475 -0.000162
476 -0.000157
477 -0.000151
478 -0.000131
479 -0.000127
480 -0.000127
481 -0.000121
482 -0.000107
483 -0.000098
484 -0.000102
485 -0.000107
486 -0.000108
487 -0.000100
488 -0.000091
489 -0.000080
490 -0.000081
491 -0.000074
492 -0.000062
493 -0.000032
494 -0.000021
495 -0.000011
496 -0.000005
497 -0.000001
498 0.000001
499 0.000005
500 -0.000002
501 -0.000015
502 -0.000024
503 -0.000040
504 -0.000063
505 -0.000078
506 -0.000093
507 -0.000099
508 -0.000101
509 -0.000102
510 -0.000094
511 -0.000080
512 -0.000071
513 -0.000061
514 -0.000051
515 -0.000049
516 -0.000064
517 -0.000072
518 -0.000074
519 -0.000080
520 -0.000087
521 -0.000086
522 -0.000085
523 -0.000082
524 -0.000080
525 -0.000071
526 -0.000056
527 -0.000064
528 -0.000062
529 -0.000053
530 -0.000032
531 -0.000023
532 -0.000023
533 -0.000020
534 -0.000017
535 -0.000010
536 -0.000006
537 0.000002
538 0.000010
539 0.000016
540 0.000019
541 0.000002
542 -0.000028
543 -0.000055
544 -0.000076
545 -0.000095
546 -0.000092
547 -0.000091
548 -0.000094
549 -0.000095
550 -0.000087
551 -0.000082
552 -0.000086
553 -0.000071
554 -0.000060
555 -0.000038
556 -0.000021
557 -0.000029
558 -0.000033
559 -0.000050
560 -0.000060
561 -0.000081
562 -0.000098
563 -0.000109
564 -0.000118
565 -0.000120
566 -0.000132
567 -0.000128
568 -0.000116
569 -0.000121
570 -0.000116
571 -0.000102
572 -0.000092
573 -0.000094
574 -0.000095
575 -0.000095
576 -0.000098
577 -0.000091
578 -0.000085
579 -0.000078
580 -0.000055
581 -0.000037
582 -0.000023
583 -0.000008
584 0.000008
585 0.000025
586 0.000037
587 0.000061
588 0.000071
589 0.000081
590 0.000078
591 0.000081
592 0.000088
593 0.000096
594 0.000096
595 0.000087
596 0.000082
597 0.000078
598 0.000084
599 0.000091
600 0.000109
601 0.000124
602 0.000120
603 0.000111
604 0.000096
605 0.000084
606 0.000074
607 0.000069
608 0.000051
609 0.000039
610 0.000023
611 0.000011
612 0.000008
613 0.000014
614 0.000017
615 0.000023
616 0.000034
617 0.000046
618 0.000059
619 0.000072
620 0.000087
621 0.000103
622 0.000111
623 0.000111
624 0.000112
625 0.000107
626 0.000091
627 0.000079
628 0.000076
629 0.000064
630 0.000074
631 0.000081
632 0.000066
633 0.000049
634 0.000049
635 0.000059
636 0.000065
637 0.000067
638 0.000058
639 0.000052
640 0.000060
641 0.000060
642 0.000051
643 0.000047
644 0.000044
645 0.000028
646 0.000031
647 0.000034
648 0.000036
649 0.000032
650 0.000035
651 0.000032
652 0.000030
653 0.000027
654 0.000040
655 0.000062
656 0.000085
657 0.000110
658 0.000124
659 0.000129
660 0.000144
661 0.000164
662 0.000180
663 0.000197
664 0.000210
665 0.000213
666 0.000213
667 0.000224
668 0.000232
669 0.000228
670 0.000224
671 0.000231
672 0.000242
673 0.000254
674 0.000264
675 0.000267
676 0.000278
677 0.000273
678 0.000264
679 0.000261
680 0.000270
681 0.000274
682 0.000270
683 0.000267
684 0.000256
685 0.000253
686 0.000238
687 0.000234
688 0.000224
689 0.000211
690 0.000206
691 0.000208
692 0.000209
693 0.000195
694 0.000185
695 0.000174
696 0.000161
697 0.000152
698 0.000144
699 0.000126
700 0.000110
701 0.000098
702 0.000086
703 0.000079
704 0.000072
705 0.000062
706 0.000045
707 0.000037
708 0.000038
709 0.000046
710 0.000051
711 0.000059
712 0.000056
713 0.000052
714 0.000046
715 0.000050
716 0.000057
717 0.000085
718 0.000110
719 0.000128
720 0.000142
721 0.000149
722 0.000160
723 0.000169
724 0.000185
725 0.000195
726 0.000209
727 0.000221
728 0.000230
729 0.000235
730 0.000239
731 0.000242
732 0.000237
733 0.000230
734 0.000223
735 0.000221
736 0.000221
737 0.000229
738 0.000229
739 0.000235
740 0.000242
741 0.000241
742 0.000240
743 0.000232
744 0.000227
745 0.000218
746 0.000219
747 0.000211
748 0.000209
749 0.000201
750 0.000185
751 0.000177
752 0.000186
753 0.000202
754 0.000210
755 0.000223
756 0.000229
757 0.000230
758 0.000244
759 0.000255
760 0.000255
761 0.000245
762 0.000240
763 0.000237
764 0.000238
765 0.000243
766 0.000241
767 0.000234
768 0.000226
769 0.000220
770 0.000221
771 0.000226
772 0.000232
773 0.000231
774 0.000232
775 0.000228
776 0.000222
777 0.000220
778 0.000217
779 0.000206
780 0.000198
781 0.000188
782 0.000180
783 0.000176
784 0.000170
785 0.000176
786 0.000180
787 0.000180
788 0.000176
789 0.000180
790 0.000185
791 0.000184
792 0.000187
793 0.000187
794 0.000182
795 0.000176
796 0.000181
797 0.000185
798 0.000190
799 0.000189
800 0.000183
801 0.000175
802 0.000171
803 0.000169
804 0.000166
805 0.000168
806 0.000163
807 0.000168
808 0.000170
809 0.000172
