# i correlation
1 0.003140
2 0.002967
3 0.002806
4 0.002663
5 0.002525
6 0.002411
7 0.002321
8 0.002234
9 0.002149
10 0.002067
11 0.001991
12 0.001900
13 0.001824
14 0.001781
15 0.001754
16 0.001726
17 0.001710
18 0.001716
19 0.001715
20 0.001705
21 0.001689
22 0.001662
23 0.001632
24 0.001618
25 0.001607
26 0.001612
27 0.001591
28 0.001579
29 0.001557
30 0.001522
31 0.001481
32 0.001437
33 0.001397
34 0.001369
35 0.001340
36 0.001321
37 0.001305
38 0.001311
39 0.001311
40 0.001296
41 0.001263
42 0.001246
43 0.001228
44 0.001229
45 0.001239
46 0.001232
47 0.001221
48 0.001208
49 0.001191
50 0.001183
51 0.001184
52 0.001181
53 0.001184
54 0.001220
55 0.001236
56 0.001239
57 0.001253
58 0.001268
59 0.001273
60 0.001263
61 0.001237
62 0.001225
63 0.001214
64 0.001202
65 0.001197
66 0.001203
67 0.001203
68 0.001211
69 0.001198
70 0.001178
71 0.001135
72 0.001100
73 0.001056
74 0.001028
75 0.000984
76 0.000946
77 0.000920
78 0.000901
79 0.000880
80 0.000867
81 0.000858
82 0.000852
83 0.000871
84 0.000882
85 0.000882
86 0.000879
87 0.000869
88 0.000846
89 0.000831
90 0.000825
91 0.000821
92 0.000814
93 0.000799
94 0.000782
95 0.000746
96 0.000722
97 0.000687
98 0.000674
99 0.000649
100 0.000617
101 0.000603
102 0.000575
103 0.000553
104 0.000538
105 0.000542
106 0.000523
107 0.000495
108 0.000485
109 0.000490
110 0.000491
111 0.000504
112 0.000533
113 0.000563
114 0.000572
115 0.000583
116 0.000596
117 0.000603
118 0.000598
119 0.000605
120 0.000599
121 0.000578
122 0.000552
123 0.000537
124 0.000516
125 0.000479
126 0.000446
127 0.000420
128 0.000405
129 0.000411
130 0.000427
131 0.000430
132 0.000411
133 0.000397
134 0.000372
135 0.000339
136 0.000314
137 0.000289
138 0.000263
139 0.000253
140 0.000255
141 0.000260
142 0.000252
143 0.000273
144 0.000302
145 0.000325
146 0.000347
147 0.000382
148 0.000426
149 0.000478
150 0.000545
151 0.000595
152 0.000646
153 0.000679
154 0.000704
155 0.000719
156 0.000730
157 0.000749
158 0.000762
159 0.000768
160 0.000758
161 0.000741
162 0.000728
163 0.000713
164 0.000707
165 0.000691
166 0.000680
167 0.000675
168 0.000677
169 0.000690
170 0.000718
171 0.000745
172 0.000756
173 0.000756
174 0.000758
175 0.000770
176 0.000762
177 0.000752
178 0.000750
179 0.000755
180 0.000743
181 0.000754
182 0.000750
183 0.000747
184 0.000753
185 0.000747
186 0.000744
187 0.000741
188 0.000751
189 0.000745
190 0.000747
191 0.000738
192 0.000743
193 0.000722
194 0.000701
195 0.000679
196 0.000639
197 0.000607
198 0.000580
199 0.000559
200 0.000528
201 0.000490
202 0.000480
203 0.000458
204 0.000436
205 0.000414
206 0.000379
207 0.000364
208 0.000353
209 0.000352
210 0.000355
211 0.000361
212 0.000352
213 0.000363
214 0.000385
215 0.000387
216 0.000428
217 0.000466
218 0.000510
219 0.000518
220 0.000532
221 0.000551
222 0.000562
223 0.000557
224 0.000560
225 0.000551
226 0.000550
227 0.000549
228 0.000551
229 0.000541
230 0.000538
231 0.000534
232 0.000536
233 0.000535
234 0.000536
235 0.000535
236 0.000545
237 0.000551
238 0.000575
239 0.000599
240 0.000611
241 0.000613
242 0.000646
243 0.000659
244 0.000668
245 0.000684
246 0.000709
247 0.000723
248 0.000731
249 0.000749
250 0.000775
251 0.000762
252 0.000738
253 0.000714
254 0.000689
255 0.000656
256 0.000623
257 0.000583
258 0.000550
259 0.000521
260 0.000500
261 0.000469
262 0.000451
263 0.000445
264 0.000446
265 0.000446
266 0.000449
267 0.000449
268 0.000440
269 0.000429
270 0.000428
271 0.000425
272 0.000416
273 0.000412
274 0.000391
275 0.000378
276 0.000383
277 0.000386
278 0.000376
279 0.000361
280 0.000349
281 0.000322
282 0.000285
283 0.000231
284 0.000206
285 0.000189
286 0.000185
287 0.000182
288 0.000184
289 0.000179
290 0.000181
291 0.000175
292 0.000162
293 0.000143
294 0.000130
295 0.000114
296 0.000101
297 0.000087
298 0.000074
299 0.000065
300 0.000081
301 0.000106
302 0.000122
303 0.000132
304 0.000139
305 0.000171
306 0.000192
307 0.000216
308 0.000246
309 0.000269
310 0.000287
311 0.000300
312 0.000292
313 0.000255
314 0.000247
315 0.000248
316 0.000263
317 0.000264
318 0.000273
319 0.000262
320 0.000253
321 0.000248
322 0.000245
323 0.000236
324 0.000237
325 0.000245
326 0.000244
327 0.000241
328 0.000216
329 0.000208
330 0.000188
331 0.000172
332 0.000175
333 0.000204
334 0.000216
335 0.000234
336 0.000241
337 0.000244
338 0.000245
339 0.000235
340 0.000241
341 0.000240
342 0.000223
343 0.000215
344 0.000207
345 0.000216
346 0.000217
347 0.000224
348 0.000233
349 0.000237
350 0.000249
351 0.000239
352 0.000235
353 0.000224
354 0.000218
355 0.000217
356 0.000215
357 0.000220
358 0.000216
359 0.000218
360 0.000201
361 0.000200
362 0.000194
363 0.000201
364 0.000205
365 0.000212
366 0.000203
367 0.000192
368 0.000168
369 0.000153
370 0.000141
371 0.000128
372 0.000124
373 0.000124
374 0.000119
375 0.000116
376 0.000115
377 0.000093
378 0.000083
379 0.000072
380 0.000077
381 0.000075
382 0.000073
383 0.000085
384 0.000084
385 0.000075
386 0.000069
387 0.000048
388 0.000020
389 -0.000009
390 -0.000026
391 -0.000036
392 -0.000019
393 -0.000008
394 -0.000006
395 0.000009
396 0.000006
397 0.000013
398 0.000017
399 0.000028
400 0.000043
401 0.000063
402 0.000094
403 0.000127
404 0.000151
405 0.000152
406 0.000153
407 0.000167
408 0.000170
409 0.000186
410 0.000206
411 0.000229
412 0.000249
413 0.000261
414 0.000260
415 0.000245
416 0.000245
417 0.000250
418 0.000262
419 0.000277
420 0.000305
421 0.000331
422 0.000351
423 0.000364
424 0.000379
425 0.000397
426 0.000403
427 0.000402
428 0.000392
429 0.000387
430 0.000395
431 0.000399
432 0.000394
433 0.000387
434 0.000375
435 0.000363
436 0.000345
437 0.000330
438 0.000323
439 0.000317
440 0.000313
441 0.000316
442 0.000304
443 0.000282
444 0.000265
445 0.000244
446 0.000226
447 0.000203
448 0.000177
449 0.000143
450 0.000115
451 0.000092
452 0.000072
453 0.000041
454 0.000016
455 -0.000006
456 -0.000037
457 -0.000060
458 -0.000065
459 -0.000070
460 -0.000064
461 -0.000050
462 -0.000026
463 -0.000003
464 0.000012
465 0.000017
466 0.000040
467 0.000046
468 0.000054
469 0.000080
470 0.000106
471 0.000126
472 0.000144
473 0.000169
474 0.000187
475 0.000184
476 0.000185
477 0.000187
478 0.000192
479 0.000206
480 0.000221
481 0.000245
482 0.000257
483 0.000254
484 0.000262
485 0.000251
486 0.000243
487 0.000231
488 0.000235
489 0.000236
490 0.000250
491 0.000257
492 0.000269
493 0.000291
494 0.000300
495 0.000317
496 0.000327
497 0.000331
498 0.000337
499 0.000339
500 0.000345
501 0.000338
502 0.000351
503 0.000357
504 0.000356
505 0.000355
506 0.000346
507 0.000330
508 0.000324
509 0.000319
510 0.000321
511 0.000324
512 0.000331
513 0.000336
514 0.000346
515 0.000345
516 0.000355
517 0.000365
518 0.000366
519 0.000369
520 0.000360
521 0.000356
522 0.000360
523 0.000355
524 0.000359
525 0.000354
526 0.000349
527 0.000346
528 0.000349
529 0.000353
530 0.000358
531 0.000361
532 0.000369
533 0.000378
534 0.000377
535 0.000373
536 0.000376
537 0.000382
538 0.000386
539 0.000385
540 0.000401
541 0.000402
542 0.000415
543 0.000429
544 0.000437
545 0.000432
546 0.000421
547 0.000427
548 0.000411
549 0.000400
550 0.000400
551 0.000413
552 0.000411
553 0.000408
554 0.000405
555 0.000407
556 0.000418
557 0.000435
558 0.000440
559 0.000436
560 0.000428
561 0.000424
562 0.000423
563 0.000407
564 0.000398
565 0.000391
566 0.000382
567 0.000386
568 0.000386
569 0.000378
570 0.000374
571 0.000376
572 0.000377
573 0.000366
574 0.000363
575 0.000370
576 0.000379
577 0.000394
578 0.000407
579 0.000426
580 0.000438
581 0.000450
582 0.000487
583 0.000519
584 0.000547
585 0.000576
586 0.000598
587 0.000612
588 0.000610
589 0.000605
590 0.000594
591 0.000593
592 0.000592
593 0.000583
594 0.000580
595 0.000585
596 0.000590
597 0.000596
598 0.000583
599 0.000564
600 0.000553
601 0.000548
602 0.000547
603 0.000547
604 0.000547
605 0.000543
606 0.000537
607 0.000528
608 0.000505
609 0.000482
610 0.000469
611 0.000466
612 0.000459
613 0.000448
614 0.000435
615 0.000421
616 0.000398
617 0.000366
618 0.000336
619 0.000295
620 0.000253
621 0.000228
622 0.000206
623 0.000196
624 0.000169
625 0.000169
626 0.000169
627 0.000163
628 0.000161
629 0.000162
630 0.000170
631 0.000170
632 0.000160
633 0.000152
634 0.000157
635 0.000157
636 0.000157
637 0.000152
638 0.000145
639 0.000123
640 0.000104
641 0.000093
642 0.000084
643 0.000084
644 0.000070
645 0.000063
646 0.000055
647 0.000047
648 0.000036
649 0.000044
650 0.000053
651 0.000074
652 0.000098
653 0.000111
654 0.000120
655 0.000126
656 0.000134
657 0.000137
658 0.000133
659 0.000121
660 0.000120
661 0.000128
662 0.000137
663 0.000146
664 0.000158
665 0.000165
666 0.000163
667 0.000158
668 0.000160
669 0.000164
670 0.000165
671 0.000165
672 0.000165
673 0.000163
674 0.000155
675 0.000151
676 0.000151
677 0.000139
678 0.000114
679 0.000092
680 0.000076
681 0.000062
682 0.000051
683 0.000049
684 0.000053
685 0.000049
686 0.000035
687 0.000023
688 0.000024
689 0.000017
690 0.000023
691 0.000036
692 0.000039
693 0.000037
694 0.000041
695 0.000057
696 0.000056
697 0.000068
698 0.000077
699 0.000076
700 0.000094
701 0.000108
702 0.000124
703 0.000131
704 0.000133
705 0.000135
706 0.000136
707 0.000131
708 0.000136
709 0.000146
710 0.000149
711 0.000153
712 0.000155
713 0.000162
714 0.000157
715 0.000158
716 0.000164
717 0.000166
718 0.000158
719 0.000167
720 0.000175
721 0.000190
722 0.000195
723 0.000195
724 0.000195
725 0.000180
726 0.000173
727 0.000169
728 0.000177
729 0.000179
730 0.000190
731 0.000201
732 0.000215
733 0.000230
734 0.000258
735 0.000292
736 0.000323
737 0.000343
738 0.000361
739 0.000385
740 0.000401
741 0.000413
742 0.000435
743 0.000442
744 0.000453
745 0.000466
746 0.000483
747 0.000496
748 0.000497
749 0.000500
750 0.000502
751 0.000496
752 0.000495
753 0.000493
754 0.000495
755 0.000498
756 0.000499
757 0.000502
758 0.000497
759 0.000488
760 0.000480
761 0.000476
762 0.000467
763 0.000456
764 0.000438
765 0.000429
766 0.000423
767 0.000422
768 0.000422
769 0.000425
770 0.000431
771 0.000429
772 0.000425
773 0.000421
774 0.000419
775 0.000422
776 0.000430
777 0.000428
778 0.000434
779 0.000440
780 0.000448
781 0.000461
782 0.000471
783 0.000472
784 0.000477
785 0.000491
786 0.000496
787 0.000501
788 0.000499
789 0.000507
790 0.000511
791 0.000507
792 0.000502
793 0.000499
794 0.000493
795 0.000484
796 0.000485
797 0.000478
798 0.000465
799 0.000461
800 0.000461
801 0.000462
802 0.000464
803 0.000470
804 0.000482
805 0.000490
806 0.000497
807 0.000506
808 0.000503
809 0.000494
