# i correlation
1 0.003478
2 0.003301
3 0.003157
4 0.003043
5 0.002972
6 0.002903
7 0.002853
8 0.002799
9 0.002755
10 0.002713
11 0.002667
12 0.002622
13 0.002589
14 0.002541
15 0.002508
16 0.002466
17 0.002432
18 0.002400
19 0.002354
20 0.002297
21 0.002236
22 0.002194
23 0.002177
24 0.002165
25 0.002155
26 0.002151
27 0.002154
28 0.002165
29 0.002145
30 0.002118
31 0.002105
32 0.002083
33 0.002075
34 0.002057
35 0.002068
36 0.002086
37 0.002081
38 0.002075
39 0.002070
40 0.002055
41 0.002063
42 0.002058
43 0.002043
44 0.002016
45 0.001968
46 0.001933
47 0.001915
48 0.001907
49 0.001884
50 0.001847
51 0.001811
52 0.001806
53 0.001822
54 0.001855
55 0.001888
56 0.001899
57 0.001889
58 0.001877
59 0.001865
60 0.001842
61 0.001826
62 0.001802
63 0.001770
64 0.001744
65 0.001706
66 0.001683
67 0.001661
68 0.001631
69 0.001623
70 0.001615
71 0.001593
72 0.001596
73 0.001593
74 0.001581
75 0.001572
76 0.001562
77 0.001562
78 0.001538
79 0.001498
80 0.001469
81 0.001447
82 0.001442
83 0.001458
84 0.001471
85 0.001488
86 0.001482
87 0.001488
88 0.001481
89 0.001499
90 0.001514
91 0.001526
92 0.001539
93 0.001530
94 0.001545
95 0.001558
96 0.001569
97 0.001586
98 0.001587
99 0.001578
100 0.001579
101 0.001583
102 0.001588
103 0.001583
104 0.001566
105 0.001541
106 0.001508
107 0.001457
108 0.001424
109 0.001397
110 0.001386
111 0.001371
112 0.001359
113 0.001366
114 0.001385
115 0.001400
116 0.001403
117 0.001412
118 0.001414
119 0.001420
120 0.001423
121 0.001424
122 0.001422
123 0.001400
124 0.001383
125 0.001368
126 0.001397
127 0.001440
128 0.001482
129 0.001506
130 0.001522
131 0.001534
132 0.001539
133 0.001554
134 0.001548
135 0.001538
136 0.001533
137 0.001518
138 0.001505
139 0.001505
140 0.001497
141 0.001506
142 0.001514
143 0.001516
144 0.001518
145 0.001518
146 0.001494
147 0.001449
148 0.001405
149 0.001374
150 0.001350
151 0.001333
152 0.001312
153 0.001286
154 0.001268
155 0.001271
156 0.001285
157 0.001286
158 0.001291
159 0.001310
160 0.001308
161 0.001299
162 0.001295
163 0.001295
164 0.001290
165 0.001284
166 0.001255
167 0.001246
168 0.001237
169 0.001241
170 0.001252
171 0.001252
172 0.001261
173 0.001256
174 0.001252
175 0.001255
176 0.001262
177 0.001254
178 0.001251
179 0.001243
180 0.001235
181 0.001242
182 0.001237
183 0.001230
184 0.001213
185 0.001191
186 0.001180
187 0.001160
188 0.001163
189 0.001157
190 0.001156
191 0.001174
192 0.001170
193 0.001171
194 0.001169
195 0.001158
196 0.001137
197 0.001129
198 0.001135
199 0.001143
200 0.001146
201 0.001138
202 0.001128
203 0.001144
204 0.001175
205 0.001199
206 0.001196
207 0.001181
208 0.001180
209 0.001174
210 0.001155
211 0.001171
212 0.001195
213 0.001210
214 0.001220
215 0.001228
216 0.001234
217 0.001253
218 0.001269
219 0.001293
220 0.001292
221 0.001287
222 0.001293
223 0.001292
224 0.001297
225 0.001299
226 0.001301
227 0.001288
228 0.001289
229 0.001293
230 0.001284
231 0.001267
232 0.001260
233 0.001244
234 0.001227
235 0.001208
236 0.001204
237 0.001203
238 0.001191
239 0.001169
240 0.001137
241 0.001136
242 0.001113
243 0.001083
244 0.001061
245 0.001042
246 0.001039
247 0.001058
248 0.001084
249 0.001071
250 0.001068
251 0.001059
252 0.001056
253 0.001049
254 0.001057
255 0.001075
256 0.001103
257 0.001136
258 0.001156
259 0.001175
260 0.001183
261 0.001196
262 0.001210
263 0.001220
264 0.001232
265 0.001257
266 0.001273
267 0.001294
268 0.001294
269 0.001282
270 0.001276
271 0.001282
272 0.001307
273 0.001336
274 0.001346
275 0.001342
276 0.001313
277 0.001291
278 0.001298
279 0.001280
280 0.001271
281 0.001241
282 0.001223
283 0.001200
284 0.001156
285 0.001142
286 0.001132
287 0.001130
288 0.001126
289 0.001128
290 0.001129
291 0.001131
292 0.001123
293 0.001098
294 0.001078
295 0.001062
296 0.001045
297 0.001027
298 0.001013
299 0.000984
300 0.000983
301 0.000984
302 0.000992
303 0.000994
304 0.000996
305 0.001003
306 0.001008
307 0.000998
308 0.000997
309 0.001002
310 0.001006
311 0.001020
312 0.001013
313 0.001015
314 0.001039
315 0.001052
316 0.001057
317 0.001047
318 0.001046
319 0.001059
320 0.001072
321 0.001105
322 0.001114
323 0.001110
324 0.001097
325 0.001085
326 0.001070
327 0.001060
328 0.001050
329 0.001045
330 0.001033
331 0.001015
332 0.001006
333 0.001017
334 0.001029
335 0.001027
336 0.001005
337 0.000969
338 0.000923
339 0.000892
340 0.000870
341 0.000858
342 0.000845
343 0.000825
344 0.000817
345 0.000818
346 0.000814
347 0.000796
348 0.000787
349 0.000794
350 0.000817
351 0.000821
352 0.000828
353 0.000819
354 0.000806
355 0.000808
356 0.000821
357 0.000833
358 0.000848
359 0.000852
360 0.000866
361 0.000872
362 0.000884
363 0.000907
364 0.000927
365 0.000942
366 0.000931
367 0.000940
368 0.000948
369 0.000964
370 0.000977
371 0.000968
372 0.000953
373 0.000930
374 0.000917
375 0.000909
376 0.000894
377 0.000906
378 0.000907
379 0.000883
380 0.000859
381 0.000848
382 0.000846
383 0.000857
384 0.000865
385 0.000882
386 0.000888
387 0.000886
388 0.000890
389 0.000895
390 0.000891
391 0.000894
392 0.000899
393 0.000913
394 0.000920
395 0.000935
396 0.000949
397 0.000955
398 0.000976
399 0.000983
400 0.001005
401 0.001007
402 0.001005
403 0.001012
404 0.001020
405 0.001033
406 0.001050
407 0.001043
408 0.001036
409 0.001028
410 0.001028
411 0.001024
412 0.001012
413 0.001019
414 0.001005
415 0.000996
416 0.000991
417 0.000988
418 0.000992
419 0.000990
420 0.000987
421 0.000984
422 0.000988
423 0.000995
424 0.001009
425 0.001007
426 0.001008
427 0.001001
428 0.000984
429 0.000965
430 0.000953
431 0.000946
432 0.000940
433 0.000951
434 0.000943
435 0.000935
436 0.000923
437 0.000920
438 0.000910
439 0.000904
440 0.000903
441 0.000907
442 0.000907
443 0.000897
444 0.000884
445 0.000886
446 0.000889
447 0.000904
448 0.000907
449 0.000903
450 0.000917
451 0.000918
452 0.000923
453 0.000929
454 0.000938
455 0.000943
456 0.000944
457 0.000933
458 0.000912
459 0.000902
460 0.000915
461 0.000923
462 0.000925
463 0.000923
464 0.000929
465 0.000925
466 0.000921
467 0.000904
468 0.000880
469 0.000864
470 0.000854
471 0.000837
472 0.000826
473 0.000820
474 0.000808
475 0.000801
476 0.000796
477 0.000792
478 0.000796
479 0.000810
480 0.000802
481 0.000793
482 0.000782
483 0.000776
484 0.000769
485 0.000769
486 0.000774
487 0.000767
488 0.000765
489 0.000758
490 0.000747
491 0.000749
492 0.000746
493 0.000736
494 0.000730
495 0.000730
496 0.000727
497 0.000730
498 0.000719
499 0.000708
500 0.000709
501 0.000700
502 0.000690
503 0.000682
504 0.000675
505 0.000677
506 0.000672
507 0.000659
508 0.000631
509 0.000607
510 0.000587
511 0.000572
512 0.000551
513 0.000530
514 0.000520
515 0.000521
516 0.000526
517 0.000527
518 0.000511
519 0.000503
520 0.000497
521 0.000489
522 0.000482
523 0.000477
524 0.000485
525 0.000483
526 0.000494
527 0.000508
528 0.000525
529 0.000531
530 0.000542
531 0.000542
532 0.000541
533 0.000551
534 0.000567
535 0.000570
536 0.000580
537 0.000592
538 0.000600
539 0.000625
540 0.000642
541 0.000664
542 0.000688
543 0.000705
544 0.000728
545 0.000744
546 0.000753
547 0.000759
548 0.000761
549 0.000765
550 0.000770
551 0.000767
552 0.000765
553 0.000757
554 0.000757
555 0.000760
556 0.000747
557 0.000720
558 0.000694
559 0.000661
560 0.000637
561 0.000627
562 0.000625
563 0.000618
564 0.000609
565 0.000594
566 0.000564
567 0.000534
568 0.000504
569 0.000486
570 0.000464
571 0.000439
572 0.000422
573 0.000398
574 0.000389
575 0.000381
576 0.000360
577 0.000344
578 0.000337
579 0.000326
580 0.000339
581 0.000352
582 0.000374
583 0.000395
584 0.000393
585 0.000379
586 0.000377
587 0.000371
588 0.000363
589 0.000373
590 0.000371
591 0.000377
592 0.000382
593 0.000390
594 0.000398
595 0.000375
596 0.000362
597 0.000351
598 0.000351
599 0.000347
600 0.000347
601 0.000346
602 0.000330
603 0.000317
604 0.000285
605 0.000250
606 0.000236
607 0.000226
608 0.000226
609 0.000223
610 0.000206
611 0.000191
612 0.000178
613 0.000166
614 0.000150
615 0.000137
616 0.000130
617 0.000136
618 0.000142
619 0.000151
620 0.000149
621 0.000153
622 0.000154
623 0.000152
624 0.000160
625 0.000162
626 0.000160
627 0.000153
628 0.000144
629 0.000142
630 0.000147
631 0.000144
632 0.000141
633 0.000134
634 0.000126
635 0.000124
636 0.000133
637 0.000138
638 0.000135
639 0.000145
640 0.000145
641 0.000156
642 0.000172
643 0.000183
644 0.000197
645 0.000215
646 0.000224
647 0.000221
648 0.000223
649 0.000215
650 0.000224
651 0.000224
652 0.000226
653 0.000215
654 0.000207
655 0.000215
656 0.000234
657 0.000256
658 0.000273
659 0.000282
660 0.000288
661 0.000293
662 0.000284
663 0.000280
664 0.000276
665 0.000275
666 0.000269
667 0.000269
668 0.000259
669 0.000252
670 0.000254
671 0.000259
672 0.000271
673 0.000282
674 0.000297
675 0.000304
676 0.000315
677 0.000320
678 0.000340
679 0.000363
680 0.000377
681 0.000395
682 0.000392
683 0.000411
684 0.000434
685 0.000457
686 0.000484
687 0.000502
688 0.000521
689 0.000534
690 0.000542
691 0.000553
692 0.000558
693 0.000565
694 0.000566
695 0.000565
696 0.000564
697 0.000565
698 0.000576
699 0.000579
700 0.000577
701 0.000570
702 0.000561
703 0.000549
704 0.000542
705 0.000531
706 0.000519
707 0.000509
708 0.000504
709 0.000495
710 0.000478
711 0.000469
712 0.000467
713 0.000462
714 0.000465
715 0.000470
716 0.000471
717 0.000473
718 0.000470
719 0.000467
720 0.000479
721 0.000483
722 0.000486
723 0.000483
724 0.000468
725 0.000462
726 0.000457
727 0.000468
728 0.000474
729 0.000468
730 0.000457
731 0.000440
732 0.000422
733 0.000412
734 0.000405
735 0.000408
736 0.000412
737 0.000403
738 0.000385
739 0.000370
740 0.000362
741 0.000347
742 0.000344
743 0.000341
744 0.000334
745 0.000337
746 0.000343
747 0.000347
748 0.000350
749 0.000343
750 0.000339
751 0.000339
752 0.000340
753 0.000348
754 0.000357
755 0.000367
756 0.000377
757 0.000379
758 0.000382
759 0.000387
760 0.000385
761 0.000386
762 0.000386
763 0.000392
764 0.000394
765 0.000393
766 0.000385
767 0.000367
768 0.000358
769 0.000347
770 0.000342
771 0.000334
772 0.000320
773 0.000315
774 0.000312
775 0.000311
776 0.000303
777 0.000295
778 0.000292
779 0.000287
780 0.000281
781 0.000275
782 0.000261
783 0.000249
784 0.000242
785 0.000232
786 0.000220
787 0.000215
788 0.000206
789 0.000209
790 0.000208
791 0.000212
792 0.000212
793 0.000211
794 0.000206
795 0.000199
796 0.000196
797 0.000196
798 0.000198
799 0.000196
800 0.000199
801 0.000198
802 0.000197
803 0.000193
804 0.000187
805 0.000185
806 0.000196
807 0.000205
808 0.000209
809 0.000210
