# i correlation
1 0.002089
2 0.001917
3 0.001781
4 0.001647
5 0.001550
6 0.001442
7 0.001355
8 0.001286
9 0.001237
10 0.001225
11 0.001221
12 0.001192
13 0.001164
14 0.001124
15 0.001093
16 0.001078
17 0.001067
18 0.001054
19 0.001032
20 0.001025
21 0.001015
22 0.001001
23 0.001007
24 0.001012
25 0.001022
26 0.001050
27 0.001067
28 0.001094
29 0.001115
30 0.001101
31 0.001100
32 0.001107
33 0.001106
34 0.001108
35 0.001101
36 0.001101
37 0.001104
38 0.001090
39 0.001071
40 0.001048
41 0.001023
42 0.001016
43 0.001005
44 0.000996
45 0.000982
46 0.000970
47 0.000952
48 0.000943
49 0.000936
50 0.000919
51 0.000908
52 0.000906
53 0.000904
54 0.000914
55 0.000919
56 0.000918
57 0.000938
58 0.000938
59 0.000940
60 0.000943
61 0.000943
62 0.000965
63 0.000970
64 0.000962
65 0.000961
66 0.000958
67 0.000961
68 0.000958
69 0.000946
70 0.000953
71 0.000949
72 0.000957
73 0.000956
74 0.000942
75 0.000934
76 0.000920
77 0.000910
78 0.000886
79 0.000878
80 0.000878
81 0.000882
82 0.000876
83 0.000863
84 0.000839
85 0.000824
86 0.000813
87 0.000808
88 0.000791
89 0.000780
90 0.000783
91 0.000776
92 0.000770
93 0.000760
94 0.000750
95 0.000749
96 0.000735
97 0.000734
98 0.000727
99 0.000713
100 0.000722
101 0.000739
102 0.000745
103 0.000725
104 0.000701
105 0.000684
106 0.000680
107 0.000686
108 0.000695
109 0.000689
110 0.000682
111 0.000679
112 0.000677
113 0.000676
114 0.000668
115 0.000660
116 0.000646
117 0.000626
118 0.000627
119 0.000611
120 0.000583
121 0.000561
122 0.000524
123 0.000488
124 0.000452
125 0.000420
126 0.000389
127 0.000381
128 0.000372
129 0.000378
130 0.000388
131 0.000401
132 0.000393
133 0.000381
134 0.000400
135 0.000424
136 0.000440
137 0.000453
138 0.000462
139 0.000490
140 0.000497
141 0.000508
142 0.000510
143 0.000522
144 0.000534
145 0.000542
146 0.000545
147 0.000532
148 0.000512
149 0.000494
150 0.000478
151 0.000457
152 0.000432
153 0.000410
154 0.000415
155 0.000422
156 0.000424
157 0.000442
158 0.000449
159 0.000436
160 0.000424
161 0.000393
162 0.000377
163 0.000357
164 0.000319
165 0.000286
166 0.000249
167 0.000236
168 0.000222
169 0.000224
170 0.000237
171 0.000262
172 0.000302
173 0.000329
174 0.000346
175 0.000350
176 0.000335
177 0.000325
178 0.000324
179 0.000319
180 0.000319
181 0.000318
182 0.000330
183 0.000368
184 0.000390
185 0.000404
186 0.000395
187 0.000379
188 0.000384
189 0.000404
190 0.000417
191 0.000427
192 0.000420
193 0.000414
194 0.000394
195 0.000358
196 0.000334
197 0.000294
198 0.000258
199 0.000233
200 0.000227
201 0.000241
202 0.000256
203 0.000263
204 0.000271
205 0.000258
206 0.000250
207 0.000221
208 0.000193
209 0.000189
210 0.000172
211 0.000170
212 0.000185
213 0.000199
214 0.000217
215 0.000223
216 0.000230
217 0.000251
218 0.000262
219 0.000256
220 0.000257
221 0.000251
222 0.000264
223 0.000265
224 0.000262
225 0.000261
226 0.000270
227 0.000265
228 0.000253
229 0.000247
230 0.000224
231 0.000213
232 0.000196
233 0.000182
234 0.000155
235 0.000136
236 0.000131
237 0.000137
238 0.000145
239 0.000146
240 0.000146
241 0.000136
242 0.000129
243 0.000125
244 0.000131
245 0.000140
246 0.000153
247 0.000166
248 0.000183
249 0.000222
250 0.000257
251 0.000279
252 0.000300
253 0.000311
254 0.000312
255 0.000333
256 0.000347
257 0.000348
258 0.000352
259 0.000337
260 0.000331
261 0.000328
262 0.000321
263 0.000318
264 0.000328
265 0.000328
266 0.000335
267 0.000332
268 0.000314
269 0.000297
270 0.000283
271 0.000272
272 0.000258
273 0.000256
274 0.000257
275 0.000250
276 0.000251
277 0.000260
278 0.000264
279 0.000266
280 0.000271
281 0.000279
282 0.000286
283 0.000289
284 0.000290
285 0.000298
286 0.000294
287 0.000280
288 0.000271
289 0.000265
290 0.000266
291 0.000267
292 0.000256
293 0.000266
294 0.000287
295 0.000293
296 0.000296
297 0.000287
298 0.000269
299 0.000254
300 0.000239
301 0.000230
302 0.000206
303 0.000189
304 0.000177
305 0.000159
306 0.000158
307 0.000168
308 0.000191
309 0.000215
310 0.000221
311 0.000230
312 0.000255
313 0.000268
314 0.000279
315 0.000289
316 0.000280
317 0.000274
318 0.000260
319 0.000258
320 0.000267
321 0.000257
322 0.000252
323 0.000245
324 0.000247
325 0.000240
326 0.000228
327 0.000232
328 0.000261
329 0.000277
330 0.000303
331 0.000317
332 0.000332
333 0.000347
334 0.000368
335 0.000389
336 0.000384
337 0.000382
338 0.000371
339 0.000362
340 0.000361
341 0.000358
342 0.000342
343 0.000323
344 0.000316
345 0.000323
346 0.000326
347 0.000329
348 0.000338
349 0.000336
350 0.000330
351 0.000332
352 0.000334
353 0.000329
354 0.000302
355 0.000275
356 0.000281
357 0.000283
358 0.000296
359 0.000302
360 0.000294
361 0.000305
362 0.000319
363 0.000341
364 0.000357
365 0.000355
366 0.000352
367 0.000359
368 0.000363
369 0.000361
370 0.000347
371 0.000330
372 0.000324
373 0.000325
374 0.000338
375 0.000353
376 0.000375
377 0.000390
378 0.000388
379 0.000385
380 0.000371
381 0.000352
382 0.000331
383 0.000300
384 0.000282
385 0.000287
386 0.000282
387 0.000286
388 0.000282
389 0.000274
390 0.000264
391 0.000261
392 0.000256
393 0.000249
394 0.000256
395 0.000258
396 0.000271
397 0.000273
398 0.000283
399 0.000270
400 0.000243
401 0.000239
402 0.000244
403 0.000238
404 0.000237
405 0.000253
406 0.000269
407 0.000297
408 0.000311
409 0.000334
410 0.000349
411 0.000346
412 0.000343
413 0.000340
414 0.000338
415 0.000332
416 0.000325
417 0.000310
418 0.000287
419 0.000268
420 0.000258
421 0.000240
422 0.000222
423 0.000198
424 0.000174
425 0.000162
426 0.000140
427 0.000123
428 0.000116
429 0.000115
430 0.000130
431 0.000149
432 0.000160
433 0.000167
434 0.000178
435 0.000183
436 0.000189
437 0.000185
438 0.000192
439 0.000209
440 0.000219
441 0.000219
442 0.000228
443 0.000239
444 0.000242
445 0.000246
446 0.000255
447 0.000258
448 0.000253
449 0.000256
450 0.000254
451 0.000259
452 0.000257
453 0.000260
454 0.000267
455 0.000268
456 0.000260
457 0.000254
458 0.000242
459 0.000244
460 0.000233
461 0.000204
462 0.000175
463 0.000157
464 0.000154
465 0.000152
466 0.000166
467 0.000183
468 0.000203
469 0.000234
470 0.000254
471 0.000281
472 0.000290
473 0.000280
474 0.000280
475 0.000280
476 0.000275
477 0.000268
478 0.000253
479 0.000252
480 0.000246
481 0.000239
482 0.000232
483 0.000219
484 0.000199
485 0.000197
486 0.000204
487 0.000210
488 0.000212
489 0.000215
490 0.000202
491 0.000202
492 0.000207
493 0.000198
494 0.000184
495 0.000170
496 0.000148
497 0.000138
498 0.000121
499 0.000111
500 0.000098
501 0.000077
502 0.000074
503 0.000074
504 0.000072
505 0.000084
506 0.000090
507 0.000093
508 0.000106
509 0.000116
510 0.000111
511 0.000102
512 0.000097
513 0.000099
514 0.000096
515 0.000093
516 0.000102
517 0.000127
518 0.000152
519 0.000171
520 0.000187
521 0.000196
522 0.000200
523 0.000216
524 0.000216
525 0.000213
526 0.000218
527 0.000204
528 0.000192
529 0.000182
530 0.000176
531 0.000172
532 0.000161
533 0.000162
534 0.000178
535 0.000183
536 0.000195
537 0.000207
538 0.000212
539 0.000208
540 0.000200
541 0.000202
542 0.000197
543 0.000187
544 0.000181
545 0.000166
546 0.000162
547 0.000171
548 0.000186
549 0.000199
550 0.000194
551 0.000205
552 0.000218
553 0.000224
554 0.000233
555 0.000234
556 0.000227
557 0.000216
558 0.000205
559 0.000200
560 0.000194
561 0.000201
562 0.000203
563 0.000185
564 0.000170
565 0.000169
566 0.000169
567 0.000167
568 0.000169
569 0.000154
570 0.000145
571 0.000137
572 0.000127
573 0.000120
574 0.000106
575 0.000095
576 0.000081
577 0.000073
578 0.000079
579 0.000082
580 0.000093
581 0.000101
582 0.000107
583 0.000107
584 0.000107
585 0.000119
586 0.000122
587 0.000116
588 0.000118
589 0.000119
590 0.000135
591 0.000143
592 0.000142
593 0.000144
594 0.000149
595 0.000146
596 0.000139
597 0.000132
598 0.000144
599 0.000147
600 0.000152
601 0.000158
602 0.000161
603 0.000171
604 0.000176
605 0.000179
606 0.000183
607 0.000186
608 0.000194
609 0.000199
610 0.000209
611 0.000228
612 0.000225
613 0.000234
614 0.000246
615 0.000242
616 0.000250
617 0.000253
618 0.000264
619 0.000278
620 0.000286
621 0.000296
622 0.000306
623 0.000316
624 0.000328
625 0.000339
626 0.000341
627 0.000341
628 0.000337
629 0.000340
630 0.000337
631 0.000338
632 0.000340
633 0.000331
634 0.000339
635 0.000338
636 0.000338
637 0.000330
638 0.000324
639 0.000312
640 0.000303
641 0.000290
642 0.000279
643 0.000282
644 0.000270
645 0.000261
646 0.000252
647 0.000246
648 0.000253
649 0.000268
650 0.000272
651 0.000272
652 0.000271
653 0.000268
654 0.000271
655 0.000272
656 0.000281
657 0.000292
658 0.000306
659 0.000314
660 0.000332
661 0.000347
662 0.000355
663 0.000368
664 0.000368
665 0.000381
666 0.000381
667 0.000367
668 0.000364
669 0.000359
670 0.000356
671 0.000357
672 0.000352
673 0.000345
674 0.000334
675 0.000338
676 0.000344
677 0.000348
678 0.000347
679 0.000341
680 0.000346
681 0.000345
682 0.000332
683 0.000325
684 0.000312
685 0.000296
686 0.000285
687 0.000271
688 0.000264
689 0.000257
690 0.000242
691 0.000241
692 0.000241
693 0.000242
694 0.000251
695 0.000271
696 0.000292
697 0.000309
698 0.000325
699 0.000334
700 0.000346
701 0.000353
702 0.000357
703 0.000364
704 0.000361
705 0.000358
706 0.000364
707 0.000362
708 0.000361
709 0.000370
710 0.000375
711 0.000384
712 0.000380
713 0.000379
714 0.000380
715 0.000381
716 0.000382
717 0.000379
718 0.000373
719 0.000369
720 0.000370
721 0.000374
722 0.000374
723 0.000374
724 0.000378
725 0.000383
726 0.000395
727 0.000401
728 0.000403
729 0.000412
730 0.000414
731 0.000412
732 0.000414
733 0.000414
734 0.000410
735 0.000406
736 0.000397
737 0.000394
738 0.000393
739 0.000390
740 0.000388
741 0.000376
742 0.000365
743 0.000363
744 0.000354
745 0.000353
746 0.000350
747 0.000340
748 0.000340
749 0.000336
750 0.000334
751 0.000324
752 0.000314
753 0.000302
754 0.000289
755 0.000279
756 0.000267
757 0.000259
758 0.000253
759 0.000243
760 0.000232
761 0.000234
762 0.000237
763 0.000249
764 0.000261
765 0.000276
766 0.000293
767 0.000307
768 0.000322
769 0.000328
770 0.000329
771 0.000329
772 0.000328
773 0.000326
774 0.000318
775 0.000312
776 0.000305
777 0.000302
778 0.000296
779 0.000290
780 0.000275
781 0.000264
782 0.000258
783 0.000255
784 0.000256
785 0.000250
786 0.000248
787 0.000243
788 0.000237
789 0.000225
790 0.000212
791 0.000199
792 0.000188
793 0.000175
794 0.000167
795 0.000159
796 0.000157
797 0.000160
798 0.000161
799 0.000165
800 0.000172
801 0.000181
802 0.000189
803 0.000197
804 0.000203
805 0.000208
806 0.000209
807 0.000214
808 0.000219
809 0.000220
