# i correlation
1 0.002859
2 0.002686
3 0.002521
4 0.002366
5 0.002227
6 0.002113
7 0.002017
8 0.001932
9 0.001866
10 0.001804
11 0.001765
12 0.001715
13 0.001688
14 0.001670
15 0.001655
16 0.001644
17 0.001616
18 0.001598
19 0.001576
20 0.001568
21 0.001563
22 0.001559
23 0.001541
24 0.001523
25 0.001491
26 0.001453
27 0.001429
28 0.001418
29 0.001414
30 0.001423
31 0.001423
32 0.001428
33 0.001435
34 0.001451
35 0.001456
36 0.001462
37 0.001459
38 0.001461
39 0.001442
40 0.001417
41 0.001392
42 0.001377
43 0.001365
44 0.001350
45 0.001348
46 0.001347
47 0.001349
48 0.001361
49 0.001350
50 0.001336
51 0.001323
52 0.001323
53 0.001336
54 0.001342
55 0.001344
56 0.001328
57 0.001313
58 0.001294
59 0.001271
60 0.001239
61 0.001212
62 0.001173
63 0.001135
64 0.001123
65 0.001127
66 0.001141
67 0.001160
68 0.001169
69 0.001179
70 0.001206
71 0.001234
72 0.001251
73 0.001257
74 0.001241
75 0.001217
76 0.001196
77 0.001186
78 0.001163
79 0.001150
80 0.001145
81 0.001131
82 0.001121
83 0.001111
84 0.001078
85 0.001034
86 0.001007
87 0.000992
88 0.000979
89 0.000982
90 0.000970
91 0.000968
92 0.000954
93 0.000953
94 0.000933
95 0.000937
96 0.000964
97 0.000977
98 0.000986
99 0.000956
100 0.000934
101 0.000931
102 0.000935
103 0.000947
104 0.000958
105 0.000964
106 0.000965
107 0.000982
108 0.000974
109 0.000946
110 0.000923
111 0.000906
112 0.000892
113 0.000870
114 0.000848
115 0.000841
116 0.000831
117 0.000829
118 0.000846
119 0.000849
120 0.000854
121 0.000859
122 0.000854
123 0.000841
124 0.000821
125 0.000808
126 0.000809
127 0.000796
128 0.000791
129 0.000790
130 0.000795
131 0.000816
132 0.000838
133 0.000858
134 0.000892
135 0.000920
136 0.000945
137 0.000977
138 0.000995
139 0.001007
140 0.001019
141 0.001030
142 0.001028
143 0.001031
144 0.001039
145 0.001058
146 0.001066
147 0.001080
148 0.001082
149 0.001087
150 0.001083
151 0.001072
152 0.001040
153 0.001017
154 0.000990
155 0.000948
156 0.000914
157 0.000881
158 0.000864
159 0.000851
160 0.000851
161 0.000838
162 0.000850
163 0.000850
164 0.000841
165 0.000835
166 0.000808
167 0.000787
168 0.000765
169 0.000758
170 0.000742
171 0.000736
172 0.000729
173 0.000741
174 0.000753
175 0.000758
176 0.000761
177 0.000766
178 0.000773
179 0.000785
180 0.000803
181 0.000807
182 0.000832
183 0.000855
184 0.000880
185 0.000897
186 0.000901
187 0.000906
188 0.000898
189 0.000905
190 0.000917
191 0.000940
192 0.000958
193 0.000961
194 0.000960
195 0.000960
196 0.000949
197 0.000917
198 0.000886
199 0.000851
200 0.000820
201 0.000799
202 0.000786
203 0.000765
204 0.000754
205 0.000757
206 0.000766
207 0.000770
208 0.000779
209 0.000780
210 0.000788
211 0.000791
212 0.000793
213 0.000794
214 0.000793
215 0.000799
216 0.000798
217 0.000802
218 0.000812
219 0.000816
220 0.000813
221 0.000797
222 0.000778
223 0.000738
224 0.000708
225 0.000667
226 0.000642
227 0.000628
228 0.000606
229 0.000594
230 0.000592
231 0.000576
232 0.000560
233 0.000548
234 0.000525
235 0.000503
236 0.000492
237 0.000478
238 0.000484
239 0.000515
240 0.000541
241 0.000557
242 0.000561
243 0.000574
244 0.000603
245 0.000619
246 0.000613
247 0.000595
248 0.000597
249 0.000598
250 0.000602
251 0.000621
252 0.000635
253 0.000633
254 0.000621
255 0.000609
256 0.000597
257 0.000582
258 0.000558
259 0.000532
260 0.000520
261 0.000519
262 0.000516
263 0.000519
264 0.000513
265 0.000515
266 0.000534
267 0.000552
268 0.000547
269 0.000557
270 0.000550
271 0.000549
272 0.000544
273 0.000532
274 0.000518
275 0.000509
276 0.000492
277 0.000469
278 0.000459
279 0.000455
280 0.000452
281 0.000459
282 0.000459
283 0.000469
284 0.000489
285 0.000520
286 0.000569
287 0.000597
288 0.000628
289 0.000641
290 0.000627
291 0.000615
292 0.000584
293 0.000546
294 0.000501
295 0.000453
296 0.000418
297 0.000404
298 0.000388
299 0.000396
300 0.000394
301 0.000399
302 0.000386
303 0.000386
304 0.000384
305 0.000383
306 0.000376
307 0.000358
308 0.000346
309 0.000347
310 0.000350
311 0.000346
312 0.000347
313 0.000357
314 0.000358
315 0.000361
316 0.000366
317 0.000384
318 0.000397
319 0.000420
320 0.000438
321 0.000455
322 0.000481
323 0.000516
324 0.000542
325 0.000566
326 0.000579
327 0.000589
328 0.000597
329 0.000603
330 0.000591
331 0.000581
332 0.000573
333 0.000577
334 0.000583
335 0.000576
336 0.000580
337 0.000594
338 0.000598
339 0.000594
340 0.000603
341 0.000614
342 0.000632
343 0.000625
344 0.000624
345 0.000605
346 0.000589
347 0.000578
348 0.000544
349 0.000528
350 0.000501
351 0.000489
352 0.000481
353 0.000489
354 0.000488
355 0.000491
356 0.000496
357 0.000496
358 0.000522
359 0.000544
360 0.000562
361 0.000568
362 0.000580
363 0.000574
364 0.000577
365 0.000572
366 0.000552
367 0.000531
368 0.000520
369 0.000497
370 0.000470
371 0.000465
372 0.000446
373 0.000414
374 0.000397
375 0.000384
376 0.000379
377 0.000373
378 0.000362
379 0.000369
380 0.000365
381 0.000352
382 0.000375
383 0.000378
384 0.000385
385 0.000395
386 0.000400
387 0.000404
388 0.000410
389 0.000431
390 0.000442
391 0.000430
392 0.000438
393 0.000438
394 0.000438
395 0.000432
396 0.000429
397 0.000426
398 0.000427
399 0.000405
400 0.000392
401 0.000396
402 0.000390
403 0.000393
404 0.000412
405 0.000416
406 0.000426
407 0.000433
408 0.000444
409 0.000434
410 0.000427
411 0.000422
412 0.000424
413 0.000416
414 0.000398
415 0.000371
416 0.000342
417 0.000322
418 0.000298
419 0.000290
420 0.000298
421 0.000300
422 0.000300
423 0.000305
424 0.000316
425 0.000327
426 0.000341
427 0.000351
428 0.000360
429 0.000353
430 0.000351
431 0.000353
432 0.000362
433 0.000367
434 0.000374
435 0.000402
436 0.000427
437 0.000455
438 0.000467
439 0.000470
440 0.000475
441 0.000469
442 0.000466
443 0.000450
444 0.000432
445 0.000408
446 0.000395
447 0.000376
448 0.000363
449 0.000366
450 0.000363
451 0.000361
452 0.000343
453 0.000334
454 0.000311
455 0.000288
456 0.000281
457 0.000284
458 0.000304
459 0.000334
460 0.000365
461 0.000401
462 0.000446
463 0.000487
464 0.000504
465 0.000523
466 0.000544
467 0.000540
468 0.000542
469 0.000534
470 0.000528
471 0.000527
472 0.000531
473 0.000537
474 0.000535
475 0.000522
476 0.000501
477 0.000492
478 0.000494
479 0.000502
480 0.000512
481 0.000533
482 0.000542
483 0.000548
484 0.000549
485 0.000541
486 0.000519
487 0.000502
488 0.000467
489 0.000433
490 0.000403
491 0.000375
492 0.000360
493 0.000357
494 0.000368
495 0.000374
496 0.000384
497 0.000388
498 0.000379
499 0.000366
500 0.000364
501 0.000358
502 0.000347
503 0.000339
504 0.000329
505 0.000322
506 0.000314
507 0.000300
508 0.000288
509 0.000274
510 0.000279
511 0.000286
512 0.000292
513 0.000300
514 0.000302
515 0.000320
516 0.000334
517 0.000347
518 0.000369
519 0.000390
520 0.000400
521 0.000410
522 0.000395
523 0.000372
524 0.000359
525 0.000336
526 0.000318
527 0.000310
528 0.000311
529 0.000314
530 0.000326
531 0.000344
532 0.000354
533 0.000382
534 0.000395
535 0.000405
536 0.000398
537 0.000387
538 0.000391
539 0.000394
540 0.000390
541 0.000381
542 0.000376
543 0.000360
544 0.000342
545 0.000335
546 0.000322
547 0.000310
548 0.000304
549 0.000306
550 0.000294
551 0.000282
552 0.000272
553 0.000278
554 0.000296
555 0.000308
556 0.000309
557 0.000295
558 0.000290
559 0.000275
560 0.000252
561 0.000240
562 0.000219
563 0.000197
564 0.000187
565 0.000178
566 0.000176
567 0.000185
568 0.000190
569 0.000200
570 0.000210
571 0.000219
572 0.000216
573 0.000208
574 0.000202
575 0.000194
576 0.000179
577 0.000175
578 0.000169
579 0.000163
580 0.000141
581 0.000130
582 0.000124
583 0.000112
584 0.000102
585 0.000097
586 0.000093
587 0.000093
588 0.000092
589 0.000091
590 0.000097
591 0.000092
592 0.000095
593 0.000097
594 0.000080
595 0.000071
596 0.000058
597 0.000047
598 0.000043
599 0.000046
600 0.000048
601 0.000060
602 0.000078
603 0.000105
604 0.000142
605 0.000157
606 0.000169
607 0.000184
608 0.000202
609 0.000216
610 0.000241
611 0.000269
612 0.000295
613 0.000313
614 0.000314
615 0.000312
616 0.000312
617 0.000301
618 0.000295
619 0.000291
620 0.000285
621 0.000268
622 0.000255
623 0.000238
624 0.000224
625 0.000213
626 0.000215
627 0.000207
628 0.000215
629 0.000212
630 0.000200
631 0.000190
632 0.000179
633 0.000175
634 0.000165
635 0.000160
636 0.000144
637 0.000139
638 0.000132
639 0.000120
640 0.000108
641 0.000100
642 0.000098
643 0.000108
644 0.000114
645 0.000128
646 0.000144
647 0.000152
648 0.000155
649 0.000157
650 0.000168
651 0.000180
652 0.000192
653 0.000196
654 0.000198
655 0.000201
656 0.000199
657 0.000206
658 0.000211
659 0.000219
660 0.000218
661 0.000219
662 0.000212
663 0.000214
664 0.000224
665 0.000234
666 0.000253
667 0.000262
668 0.000274
669 0.000282
670 0.000280
671 0.000274
672 0.000269
673 0.000273
674 0.000271
675 0.000282
676 0.000287
677 0.000296
678 0.000296
679 0.000304
680 0.000313
681 0.000329
682 0.000338
683 0.000346
684 0.000345
685 0.000340
686 0.000336
687 0.000327
688 0.000320
689 0.000314
690 0.000309
691 0.000307
692 0.000307
693 0.000318
694 0.000319
695 0.000320
696 0.000306
697 0.000294
698 0.000275
699 0.000261
700 0.000255
701 0.000258
702 0.000257
703 0.000254
704 0.000253
705 0.000246
706 0.000232
707 0.000220
708 0.000215
709 0.000208
710 0.000199
711 0.000199
712 0.000194
713 0.000198
714 0.000203
715 0.000208
716 0.000214
717 0.000228
718 0.000234
719 0.000228
720 0.000213
721 0.000198
722 0.000185
723 0.000172
724 0.000168
725 0.000165
726 0.000168
727 0.000163
728 0.000156
729 0.000149
730 0.000142
731 0.000136
732 0.000131
733 0.000131
734 0.000123
735 0.000113
736 0.000103
737 0.000092
738 0.000083
739 0.000078
740 0.000074
741 0.000076
742 0.000061
743 0.000037
744 0.000018
745 -0.000004
746 -0.000022
747 -0.000033
748 -0.000041
749 -0.000043
750 -0.000032
751 -0.000017
752 -0.000007
753 0.000005
754 0.000020
755 0.000041
756 0.000053
757 0.000074
758 0.000083
759 0.000082
760 0.000078
761 0.000072
762 0.000067
763 0.000065
764 0.000070
765 0.000073
766 0.000083
767 0.000086
768 0.000084
769 0.000082
770 0.000070
771 0.000065
772 0.000066
773 0.000077
774 0.000080
775 0.000082
776 0.000079
777 0.000074
778 0.000057
779 0.000044
780 0.000029
781 0.000011
782 -0.000004
783 -0.000020
784 -0.000024
785 -0.000030
786 -0.000032
787 -0.000028
788 -0.000025
789 -0.000025
790 -0.000019
791 -0.000010
792 -0.000013
793 -0.000010
794 -0.000007
795 -0.000009
796 -0.000013
797 -0.000007
798 -0.000002
799 0.000008
800 0.000020
801 0.000030
802 0.000038
803 0.000042
804 0.000052
805 0.000066
806 0.000080
807 0.000088
808 0.000093
809 0.000091
