# i correlation
1 0.001912
2 0.001722
3 0.001559
4 0.001435
5 0.001340
6 0.001286
7 0.001231
8 0.001190
9 0.001138
10 0.001099
11 0.001033
12 0.000999
13 0.000962
14 0.000936
15 0.000892
16 0.000874
17 0.000842
18 0.000826
19 0.000817
20 0.000807
21 0.000790
22 0.000784
23 0.000777
24 0.000787
25 0.000788
26 0.000816
27 0.000809
28 0.000806
29 0.000826
30 0.000841
31 0.000849
32 0.000851
33 0.000835
34 0.000823
35 0.000819
36 0.000842
37 0.000867
38 0.000890
39 0.000899
40 0.000877
41 0.000839
42 0.000808
43 0.000768
44 0.000727
45 0.000709
46 0.000701
47 0.000670
48 0.000653
49 0.000640
50 0.000613
51 0.000597
52 0.000598
53 0.000605
54 0.000595
55 0.000601
56 0.000610
57 0.000621
58 0.000614
59 0.000596
60 0.000588
61 0.000587
62 0.000595
63 0.000593
64 0.000601
65 0.000601
66 0.000617
67 0.000645
68 0.000669
69 0.000678
70 0.000677
71 0.000675
72 0.000649
73 0.000606
74 0.000568
75 0.000548
76 0.000536
77 0.000550
78 0.000575
79 0.000569
80 0.000549
81 0.000525
82 0.000503
83 0.000482
84 0.000468
85 0.000445
86 0.000421
87 0.000408
88 0.000409
89 0.000394
90 0.000378
91 0.000374
92 0.000378
93 0.000379
94 0.000389
95 0.000371
96 0.000348
97 0.000359
98 0.000369
99 0.000380
100 0.000405
101 0.000429
102 0.000445
103 0.000434
104 0.000423
105 0.000418
106 0.000428
107 0.000427
108 0.000440
109 0.000453
110 0.000466
111 0.000457
112 0.000449
113 0.000465
114 0.000493
115 0.000505
116 0.000512
117 0.000515
118 0.000519
119 0.000502
120 0.000484
121 0.000444
122 0.000403
123 0.000395
124 0.000403
125 0.000394
126 0.000384
127 0.000390
128 0.000409
129 0.000411
130 0.000419
131 0.000424
132 0.000412
133 0.000406
134 0.000405
135 0.000403
136 0.000403
137 0.000403
138 0.000393
139 0.000378
140 0.000361
141 0.000335
142 0.000324
143 0.000322
144 0.000334
145 0.000352
146 0.000368
147 0.000375
148 0.000371
149 0.000396
150 0.000411
151 0.000414
152 0.000416
153 0.000416
154 0.000435
155 0.000461
156 0.000487
157 0.000482
158 0.000449
159 0.000412
160 0.000364
161 0.000346
162 0.000335
163 0.000328
164 0.000329
165 0.000315
166 0.000304
167 0.000288
168 0.000270
169 0.000269
170 0.000298
171 0.000328
172 0.000344
173 0.000348
174 0.000345
175 0.000356
176 0.000368
177 0.000360
178 0.000355
179 0.000342
180 0.000329
181 0.000318
182 0.000309
183 0.000309
184 0.000310
185 0.000306
186 0.000305
187 0.000301
188 0.000297
189 0.000263
190 0.000226
191 0.000194
192 0.000185
193 0.000173
194 0.000155
195 0.000138
196 0.000120
197 0.000093
198 0.000072
199 0.000056
200 0.000040
201 0.000033
202 0.000045
203 0.000058
204 0.000068
205 0.000063
206 0.000057
207 0.000058
208 0.000065
209 0.000075
210 0.000077
211 0.000093
212 0.000114
213 0.000130
214 0.000134
215 0.000136
216 0.000142
217 0.000150
218 0.000165
219 0.000173
220 0.000166
221 0.000164
222 0.000155
223 0.000154
224 0.000182
225 0.000215
226 0.000241
227 0.000221
228 0.000202
229 0.000186
230 0.000156
231 0.000146
232 0.000158
233 0.000167
234 0.000180
235 0.000169
236 0.000137
237 0.000101
238 0.000064
239 0.000023
240 -0.000007
241 -0.000008
242 -0.000003
243 -0.000011
244 -0.000019
245 -0.000004
246 -0.000005
247 -0.000002
248 0.000009
249 0.000014
250 0.000022
251 0.000044
252 0.000036
253 0.000038
254 0.000039
255 0.000047
256 0.000065
257 0.000071
258 0.000091
259 0.000089
260 0.000079
261 0.000073
262 0.000053
263 0.000053
264 0.000083
265 0.000103
266 0.000105
267 0.000099
268 0.000076
269 0.000055
270 0.000044
271 0.000055
272 0.000058
273 0.000067
274 0.000068
275 0.000057
276 0.000024
277 0.000012
278 -0.000006
279 -0.000012
280 -0.000000
281 0.000010
282 0.000013
283 0.000036
284 0.000048
285 0.000068
286 0.000083
287 0.000105
288 0.000108
289 0.000120
290 0.000139
291 0.000153
292 0.000146
293 0.000142
294 0.000122
295 0.000107
296 0.000094
297 0.000086
298 0.000085
299 0.000092
300 0.000096
301 0.000096
302 0.000101
303 0.000104
304 0.000114
305 0.000121
306 0.000118
307 0.000098
308 0.000058
309 0.000051
310 0.000053
311 0.000056
312 0.000051
313 0.000058
314 0.000040
315 0.000017
316 -0.000004
317 -0.000005
318 -0.000020
319 -0.000026
320 -0.000022
321 -0.000025
322 -0.000038
323 -0.000035
324 -0.000041
325 -0.000032
326 -0.000005
327 0.000020
328 0.000029
329 0.000046
330 0.000047
331 0.000055
332 0.000052
333 0.000054
334 0.000050
335 0.000063
336 0.000076
337 0.000088
338 0.000085
339 0.000092
340 0.000082
341 0.000075
342 0.000072
343 0.000068
344 0.000055
345 0.000031
346 0.000011
347 -0.000014
348 -0.000038
349 -0.000050
350 -0.000063
351 -0.000075
352 -0.000097
353 -0.000115
354 -0.000119
355 -0.000110
356 -0.000099
357 -0.000094
358 -0.000101
359 -0.000097
360 -0.000091
361 -0.000083
362 -0.000078
363 -0.000073
364 -0.000079
365 -0.000081
366 -0.000073
367 -0.000062
368 -0.000061
369 -0.000048
370 -0.000026
371 -0.000024
372 -0.000033
373 -0.000038
374 -0.000045
375 -0.000044
376 -0.000045
377 -0.000050
378 -0.000057
379 -0.000060
380 -0.000057
381 -0.000050
382 -0.000034
383 -0.000028
384 -0.000036
385 -0.000040
386 -0.000064
387 -0.000060
388 -0.000043
389 -0.000039
390 -0.000036
391 -0.000038
392 -0.000047
393 -0.000039
394 -0.000034
395 -0.000013
396 0.000012
397 0.000027
398 0.000026
399 0.000021
400 0.000022
401 0.000040
402 0.000041
403 0.000042
404 0.000051
405 0.000043
406 0.000027
407 0.000027
408 0.000018
409 0.000001
410 -0.000024
411 -0.000044
412 -0.000061
413 -0.000063
414 -0.000057
415 -0.000060
416 -0.000079
417 -0.000090
418 -0.000106
419 -0.000109
420 -0.000109
421 -0.000115
422 -0.000117
423 -0.000122
424 -0.000120
425 -0.000120
426 -0.000120
427 -0.000113
428 -0.000110
429 -0.000097
430 -0.000096
431 -0.000106
432 -0.000127
433 -0.000135
434 -0.000124
435 -0.000112
436 -0.000101
437 -0.000072
438 -0.000056
439 -0.000030
440 -0.000016
441 0.000007
442 0.000014
443 0.000017
444 0.000027
445 0.000037
446 0.000039
447 0.000033
448 0.000016
449 0.000003
450 0.000005
451 0.000018
452 0.000012
453 0.000011
454 0.000023
455 0.000040
456 0.000039
457 0.000039
458 0.000040
459 0.000045
460 0.000064
461 0.000079
462 0.000089
463 0.000100
464 0.000103
465 0.000094
466 0.000099
467 0.000106
468 0.000099
469 0.000092
470 0.000099
471 0.000103
472 0.000096
473 0.000088
474 0.000083
475 0.000083
476 0.000085
477 0.000085
478 0.000072
479 0.000074
480 0.000079
481 0.000080
482 0.000082
483 0.000097
484 0.000110
485 0.000126
486 0.000125
487 0.000116
488 0.000111
489 0.000106
490 0.000120
491 0.000124
492 0.000131
493 0.000154
494 0.000160
495 0.000154
496 0.000143
497 0.000139
498 0.000138
499 0.000140
500 0.000128
501 0.000126
502 0.000115
503 0.000106
504 0.000078
505 0.000064
506 0.000060
507 0.000069
508 0.000066
509 0.000069
510 0.000058
511 0.000049
512 0.000055
513 0.000064
514 0.000062
515 0.000075
516 0.000093
517 0.000118
518 0.000128
519 0.000145
520 0.000135
521 0.000133
522 0.000132
523 0.000134
524 0.000145
525 0.000152
526 0.000150
527 0.000136
528 0.000131
529 0.000117
530 0.000096
531 0.000089
532 0.000086
533 0.000074
534 0.000062
535 0.000046
536 0.000027
537 0.000010
538 0.000011
539 0.000015
540 0.000001
541 -0.000016
542 -0.000034
543 -0.000045
544 -0.000059
545 -0.000061
546 -0.000058
547 -0.000054
548 -0.000054
549 -0.000062
550 -0.000065
551 -0.000059
552 -0.000035
553 -0.000021
554 0.000005
555 0.000025
556 0.000037
557 0.000043
558 0.000060
559 0.000069
560 0.000097
561 0.000114
562 0.000129
563 0.000139
564 0.000147
565 0.000147
566 0.000134
567 0.000118
568 0.000111
569 0.000094
570 0.000084
571 0.000074
572 0.000074
573 0.000066
574 0.000071
575 0.000064
576 0.000056
577 0.000035
578 0.000022
579 0.000008
580 0.000001
581 -0.000010
582 -0.000021
583 -0.000040
584 -0.000047
585 -0.000050
586 -0.000036
587 -0.000043
588 -0.000047
589 -0.000042
590 -0.000025
591 -0.000001
592 0.000013
593 0.000021
594 0.000038
595 0.000056
596 0.000075
597 0.000082
598 0.000090
599 0.000093
600 0.000111
601 0.000116
602 0.000128
603 0.000131
604 0.000141
605 0.000145
606 0.000148
607 0.000148
608 0.000148
609 0.000151
610 0.000153
611 0.000155
612 0.000167
613 0.000168
614 0.000161
615 0.000152
616 0.000161
617 0.000166
618 0.000173
619 0.000171
620 0.000177
621 0.000191
622 0.000204
623 0.000202
624 0.000185
625 0.000184
626 0.000182
627 0.000186
628 0.000198
629 0.000207
630 0.000230
631 0.000245
632 0.000258
633 0.000253
634 0.000236
635 0.000221
636 0.000196
637 0.000175
638 0.000169
639 0.000174
640 0.000182
641 0.000191
642 0.000196
643 0.000205
644 0.000218
645 0.000219
646 0.000227
647 0.000228
648 0.000228
649 0.000226
650 0.000214
651 0.000204
652 0.000200
653 0.000187
654 0.000181
655 0.000173
656 0.000161
657 0.000152
658 0.000148
659 0.000136
660 0.000130
661 0.000128
662 0.000128
663 0.000117
664 0.000108
665 0.000099
666 0.000090
667 0.000087
668 0.000097
669 0.000106
670 0.000117
671 0.000127
672 0.000130
673 0.000142
674 0.000151
675 0.000158
676 0.000153
677 0.000151
678 0.000153
679 0.000154
680 0.000161
681 0.000166
682 0.000169
683 0.000174
684 0.000162
685 0.000152
686 0.000135
687 0.000132
688 0.000144
689 0.000160
690 0.000164
691 0.000164
692 0.000168
693 0.000176
694 0.000185
695 0.000190
696 0.000193
697 0.000196
698 0.000187
699 0.000189
700 0.000195
701 0.000199
702 0.000193
703 0.000184
704 0.000177
705 0.000162
706 0.000155
707 0.000148
708 0.000133
709 0.000126
710 0.000131
711 0.000141
712 0.000147
713 0.000140
714 0.000135
715 0.000123
716 0.000115
717 0.000106
718 0.000108
719 0.000106
720 0.000098
721 0.000085
722 0.000077
723 0.000062
724 0.000064
725 0.000068
726 0.000072
727 0.000074
728 0.000069
729 0.000057
730 0.000054
731 0.000059
732 0.000070
733 0.000074
734 0.000075
735 0.000083
736 0.000092
737 0.000099
738 0.000110
739 0.000115
740 0.000114
741 0.000118
742 0.000116
743 0.000109
744 0.000100
745 0.000094
746 0.000100
747 0.000093
748 0.000085
749 0.000081
750 0.000087
751 0.000091
752 0.000093
753 0.000086
754 0.000078
755 0.000076
756 0.000076
757 0.000077
758 0.000079
759 0.000079
760 0.000081
761 0.000085
762 0.000084
763 0.000085
764 0.000087
765 0.000078
766 0.000069
767 0.000066
768 0.000065
769 0.000053
770 0.000054
771 0.000056
772 0.000057
773 0.000054
774 0.000060
775 0.000057
776 0.000055
777 0.000061
778 0.000062
779 0.000057
780 0.000057
781 0.000067
782 0.000068
783 0.000069
784 0.000071
785 0.000066
786 0.000059
787 0.000051
788 0.000044
789 0.000039
790 0.000036
791 0.000023
792 0.000014
793 0.000002
794 -0.000009
795 -0.000014
796 -0.000017
797 -0.000017
798 -0.000016
799 -0.000019
800 -0.000021
801 -0.000025
802 -0.000030
803 -0.000028
804 -0.000028
805 -0.000028
806 -0.000026
807 -0.000027
808 -0.000033
809 -0.000033
