# i correlation
1 0.002744
2 0.002574
3 0.002413
4 0.002288
5 0.002199
6 0.002125
7 0.002050
8 0.001983
9 0.001916
10 0.001856
11 0.001806
12 0.001758
13 0.001718
14 0.001696
15 0.001656
16 0.001633
17 0.001622
18 0.001600
19 0.001572
20 0.001563
21 0.001536
22 0.001516
23 0.001486
24 0.001467
25 0.001454
26 0.001426
27 0.001375
28 0.001342
29 0.001309
30 0.001306
31 0.001289
32 0.001282
33 0.001268
34 0.001249
35 0.001229
36 0.001218
37 0.001227
38 0.001239
39 0.001240
40 0.001243
41 0.001218
42 0.001199
43 0.001181
44 0.001163
45 0.001155
46 0.001152
47 0.001158
48 0.001160
49 0.001165
50 0.001180
51 0.001178
52 0.001181
53 0.001184
54 0.001181
55 0.001180
56 0.001178
57 0.001164
58 0.001153
59 0.001139
60 0.001108
61 0.001091
62 0.001105
63 0.001111
64 0.001113
65 0.001117
66 0.001126
67 0.001130
68 0.001128
69 0.001135
70 0.001131
71 0.001134
72 0.001124
73 0.001116
74 0.001112
75 0.001123
76 0.001142
77 0.001151
78 0.001153
79 0.001149
80 0.001141
81 0.001123
82 0.001105
83 0.001074
84 0.001057
85 0.001032
86 0.001013
87 0.000991
88 0.000980
89 0.000967
90 0.000944
91 0.000916
92 0.000909
93 0.000900
94 0.000884
95 0.000898
96 0.000895
97 0.000891
98 0.000891
99 0.000874
100 0.000872
101 0.000866
102 0.000859
103 0.000854
104 0.000858
105 0.000862
106 0.000867
107 0.000853
108 0.000838
109 0.000841
110 0.000847
111 0.000837
112 0.000835
113 0.000815
114 0.000799
115 0.000795
116 0.000780
117 0.000773
118 0.000785
119 0.000795
120 0.000811
121 0.000814
122 0.000818
123 0.000808
124 0.000804
125 0.000799
126 0.000803
127 0.000792
128 0.000804
129 0.000818
130 0.000822
131 0.000843
132 0.000871
133 0.000893
134 0.000906
135 0.000930
136 0.000940
137 0.000946
138 0.000933
139 0.000912
140 0.000893
141 0.000898
142 0.000906
143 0.000898
144 0.000900
145 0.000900
146 0.000893
147 0.000891
148 0.000887
149 0.000863
150 0.000845
151 0.000817
152 0.000797
153 0.000801
154 0.000798
155 0.000788
156 0.000773
157 0.000752
158 0.000736
159 0.000743
160 0.000749
161 0.000773
162 0.000798
163 0.000807
164 0.000799
165 0.000788
166 0.000783
167 0.000794
168 0.000814
169 0.000823
170 0.000820
171 0.000812
172 0.000817
173 0.000810
174 0.000801
175 0.000785
176 0.000771
177 0.000751
178 0.000731
179 0.000720
180 0.000692
181 0.000677
182 0.000659
183 0.000653
184 0.000662
185 0.000667
186 0.000683
187 0.000693
188 0.000687
189 0.000668
190 0.000655
191 0.000655
192 0.000646
193 0.000665
194 0.000689
195 0.000717
196 0.000716
197 0.000704
198 0.000678
199 0.000655
200 0.000664
201 0.000680
202 0.000686
203 0.000689
204 0.000696
205 0.000688
206 0.000669
207 0.000661
208 0.000652
209 0.000652
210 0.000670
211 0.000685
212 0.000701
213 0.000727
214 0.000740
215 0.000762
216 0.000778
217 0.000797
218 0.000809
219 0.000817
220 0.000797
221 0.000797
222 0.000773
223 0.000751
224 0.000751
225 0.000769
226 0.000792
227 0.000820
228 0.000828
229 0.000832
230 0.000842
231 0.000843
232 0.000826
233 0.000809
234 0.000802
235 0.000795
236 0.000786
237 0.000784
238 0.000783
239 0.000789
240 0.000798
241 0.000823
242 0.000832
243 0.000830
244 0.000811
245 0.000792
246 0.000770
247 0.000769
248 0.000774
249 0.000760
250 0.000751
251 0.000738
252 0.000714
253 0.000704
254 0.000681
255 0.000660
256 0.000639
257 0.000614
258 0.000592
259 0.000581
260 0.000572
261 0.000553
262 0.000535
263 0.000521
264 0.000503
265 0.000488
266 0.000487
267 0.000499
268 0.000499
269 0.000509
270 0.000519
271 0.000525
272 0.000537
273 0.000538
274 0.000542
275 0.000541
276 0.000546
277 0.000548
278 0.000556
279 0.000568
280 0.000561
281 0.000561
282 0.000559
283 0.000555
284 0.000560
285 0.000554
286 0.000532
287 0.000510
288 0.000498
289 0.000481
290 0.000475
291 0.000465
292 0.000476
293 0.000484
294 0.000495
295 0.000520
296 0.000553
297 0.000575
298 0.000593
299 0.000589
300 0.000589
301 0.000593
302 0.000579
303 0.000567
304 0.000547
305 0.000549
306 0.000556
307 0.000565
308 0.000539
309 0.000537
310 0.000532
311 0.000518
312 0.000514
313 0.000500
314 0.000489
315 0.000475
316 0.000479
317 0.000495
318 0.000496
319 0.000489
320 0.000472
321 0.000455
322 0.000446
323 0.000448
324 0.000438
325 0.000438
326 0.000442
327 0.000441
328 0.000432
329 0.000434
330 0.000431
331 0.000449
332 0.000445
333 0.000437
334 0.000421
335 0.000428
336 0.000427
337 0.000449
338 0.000443
339 0.000453
340 0.000439
341 0.000425
342 0.000398
343 0.000367
344 0.000337
345 0.000313
346 0.000299
347 0.000295
348 0.000298
349 0.000315
350 0.000323
351 0.000333
352 0.000324
353 0.000311
354 0.000297
355 0.000285
356 0.000280
357 0.000272
358 0.000247
359 0.000236
360 0.000212
361 0.000202
362 0.000205
363 0.000217
364 0.000222
365 0.000230
366 0.000224
367 0.000221
368 0.000204
369 0.000203
370 0.000191
371 0.000192
372 0.000202
373 0.000235
374 0.000270
375 0.000291
376 0.000310
377 0.000319
378 0.000311
379 0.000335
380 0.000353
381 0.000374
382 0.000393
383 0.000386
384 0.000390
385 0.000372
386 0.000350
387 0.000343
388 0.000339
389 0.000350
390 0.000357
391 0.000368
392 0.000358
393 0.000350
394 0.000336
395 0.000322
396 0.000301
397 0.000275
398 0.000262
399 0.000238
400 0.000220
401 0.000207
402 0.000211
403 0.000216
404 0.000237
405 0.000246
406 0.000241
407 0.000250
408 0.000256
409 0.000266
410 0.000286
411 0.000306
412 0.000313
413 0.000318
414 0.000325
415 0.000334
416 0.000340
417 0.000332
418 0.000307
419 0.000287
420 0.000279
421 0.000282
422 0.000273
423 0.000252
424 0.000231
425 0.000218
426 0.000213
427 0.000217
428 0.000208
429 0.000213
430 0.000211
431 0.000216
432 0.000239
433 0.000241
434 0.000239
435 0.000229
436 0.000207
437 0.000186
438 0.000165
439 0.000132
440 0.000103
441 0.000098
442 0.000115
443 0.000137
444 0.000157
445 0.000170
446 0.000178
447 0.000186
448 0.000195
449 0.000199
450 0.000201
451 0.000216
452 0.000223
453 0.000232
454 0.000237
455 0.000244
456 0.000229
457 0.000226
458 0.000221
459 0.000217
460 0.000221
461 0.000216
462 0.000222
463 0.000221
464 0.000223
465 0.000216
466 0.000213
467 0.000208
468 0.000219
469 0.000234
470 0.000242
471 0.000229
472 0.000226
473 0.000227
474 0.000231
475 0.000221
476 0.000200
477 0.000185
478 0.000170
479 0.000173
480 0.000180
481 0.000175
482 0.000176
483 0.000165
484 0.000153
485 0.000149
486 0.000141
487 0.000125
488 0.000120
489 0.000103
490 0.000090
491 0.000093
492 0.000083
493 0.000088
494 0.000106
495 0.000116
496 0.000121
497 0.000123
498 0.000128
499 0.000134
500 0.000145
501 0.000142
502 0.000135
503 0.000132
504 0.000121
505 0.000111
506 0.000088
507 0.000069
508 0.000052
509 0.000033
510 0.000011
511 -0.000004
512 -0.000015
513 -0.000018
514 -0.000021
515 -0.000033
516 -0.000047
517 -0.000060
518 -0.000066
519 -0.000064
520 -0.000055
521 -0.000046
522 -0.000038
523 -0.000035
524 -0.000029
525 -0.000029
526 -0.000021
527 -0.000016
528 -0.000007
529 -0.000005
530 -0.000006
531 -0.000013
532 -0.000017
533 -0.000020
534 -0.000025
535 -0.000020
536 -0.000023
537 -0.000023
538 -0.000028
539 -0.000034
540 -0.000047
541 -0.000057
542 -0.000063
543 -0.000062
544 -0.000056
545 -0.000049
546 -0.000040
547 -0.000036
548 -0.000026
549 -0.000027
550 -0.000026
551 -0.000030
552 -0.000028
553 -0.000024
554 -0.000020
555 -0.000026
556 -0.000035
557 -0.000031
558 -0.000022
559 -0.000011
560 -0.000007
561 -0.000015
562 -0.000023
563 -0.000041
564 -0.000065
565 -0.000091
566 -0.000101
567 -0.000096
568 -0.000079
569 -0.000080
570 -0.000077
571 -0.000082
572 -0.000085
573 -0.000090
574 -0.000079
575 -0.000070
576 -0.000058
577 -0.000028
578 0.000003
579 0.000032
580 0.000057
581 0.000063
582 0.000059
583 0.000061
584 0.000056
585 0.000045
586 0.000039
587 0.000028
588 0.000022
589 0.000020
590 0.000016
591 0.000022
592 0.000036
593 0.000039
594 0.000048
595 0.000064
596 0.000069
597 0.000090
598 0.000109
599 0.000122
600 0.000140
601 0.000156
602 0.000161
603 0.000169
604 0.000182
605 0.000202
606 0.000223
607 0.000231
608 0.000245
609 0.000252
610 0.000251
611 0.000246
612 0.000230
613 0.000211
614 0.000194
615 0.000195
616 0.000187
617 0.000186
618 0.000182
619 0.000170
620 0.000151
621 0.000149
622 0.000151
623 0.000155
624 0.000155
625 0.000151
626 0.000144
627 0.000144
628 0.000142
629 0.000148
630 0.000150
631 0.000139
632 0.000136
633 0.000127
634 0.000111
635 0.000112
636 0.000115
637 0.000114
638 0.000110
639 0.000099
640 0.000079
641 0.000070
642 0.000055
643 0.000040
644 0.000028
645 0.000015
646 0.000005
647 -0.000000
648 0.000006
649 0.000008
650 0.000007
651 -0.000003
652 -0.000014
653 -0.000020
654 -0.000025
655 -0.000020
656 -0.000012
657 -0.000005
658 0.000009
659 0.000017
660 0.000018
661 0.000018
662 0.000009
663 0.000021
664 0.000033
665 0.000044
666 0.000046
667 0.000040
668 0.000030
669 0.000021
670 0.000021
671 0.000007
672 0.000006
673 -0.000000
674 0.000005
675 -0.000003
676 -0.000008
677 -0.000012
678 -0.000011
679 -0.000006
680 -0.000003
681 0.000003
682 0.000004
683 0.000002
684 -0.000007
685 -0.000014
686 -0.000016
687 -0.000019
688 -0.000015
689 -0.000014
690 -0.000017
691 -0.000021
692 -0.000019
693 -0.000014
694 -0.000009
695 -0.000002
696 0.000010
697 0.000007
698 0.000007
699 0.000001
700 0.000003
701 -0.000000
702 -0.000008
703 -0.000008
704 0.000003
705 0.000011
706 0.000014
707 0.000016
708 0.000017
709 0.000016
710 0.000025
711 0.000029
712 0.000036
713 0.000045
714 0.000061
715 0.000079
716 0.000095
717 0.000107
718 0.000110
719 0.000105
720 0.000098
721 0.000107
722 0.000117
723 0.000119
724 0.000112
725 0.000103
726 0.000100
727 0.000103
728 0.000115
729 0.000120
730 0.000129
731 0.000125
732 0.000119
733 0.000120
734 0.000119
735 0.000116
736 0.000112
737 0.000101
738 0.000088
739 0.000084
740 0.000086
741 0.000089
742 0.000094
743 0.000100
744 0.000098
745 0.000098
746 0.000095
747 0.000103
748 0.000120
749 0.000126
750 0.000134
751 0.000130
752 0.000117
753 0.000103
754 0.000103
755 0.000096
756 0.000080
757 0.000062
758 0.000058
759 0.000058
760 0.000057
761 0.000051
762 0.000041
763 0.000030
764 0.000025
765 0.000029
766 0.000032
767 0.000025
768 0.000017
769 0.000011
770 0.000005
771 0.000003
772 0.000005
773 0.000008
774 0.000010
775 0.000010
776 0.000009
777 0.000010
778 0.000013
779 0.000011
780 0.000010
781 0.000000
782 -0.000014
783 -0.000016
784 -0.000017
785 -0.000016
786 -0.000009
787 -0.000014
788 -0.000028
789 -0.000040
790 -0.000051
791 -0.000051
792 -0.000044
793 -0.000039
794 -0.000035
795 -0.000035
796 -0.000031
797 -0.000023
798 -0.000013
799 -0.000002
800 0.000008
801 0.000012
802 0.000009
803 0.000001
804 -0.000001
805 0.000004
806 0.000009
807 0.000005
808 -0.000002
809 -0.000010
