# i correlation
1 0.002085
2 0.001908
3 0.001762
4 0.001631
5 0.001528
6 0.001442
7 0.001385
8 0.001335
9 0.001305
10 0.001282
11 0.001258
12 0.001230
13 0.001199
14 0.001184
15 0.001172
16 0.001167
17 0.001166
18 0.001158
19 0.001150
20 0.001163
21 0.001155
22 0.001140
23 0.001149
24 0.001157
25 0.001163
26 0.001165
27 0.001163
28 0.001148
29 0.001133
30 0.001117
31 0.001097
32 0.001058
33 0.000999
34 0.000956
35 0.000896
36 0.000866
37 0.000858
38 0.000849
39 0.000853
40 0.000841
41 0.000831
42 0.000806
43 0.000793
44 0.000781
45 0.000782
46 0.000792
47 0.000813
48 0.000832
49 0.000868
50 0.000901
51 0.000931
52 0.000960
53 0.000968
54 0.000984
55 0.000970
56 0.000940
57 0.000911
58 0.000880
59 0.000843
60 0.000803
61 0.000781
62 0.000763
63 0.000747
64 0.000759
65 0.000763
66 0.000755
67 0.000741
68 0.000737
69 0.000744
70 0.000766
71 0.000767
72 0.000755
73 0.000755
74 0.000750
75 0.000761
76 0.000780
77 0.000800
78 0.000802
79 0.000808
80 0.000809
81 0.000813
82 0.000823
83 0.000809
84 0.000797
85 0.000785
86 0.000789
87 0.000779
88 0.000759
89 0.000744
90 0.000732
91 0.000718
92 0.000693
93 0.000695
94 0.000693
95 0.000700
96 0.000713
97 0.000736
98 0.000762
99 0.000765
100 0.000762
101 0.000767
102 0.000781
103 0.000791
104 0.000795
105 0.000798
106 0.000812
107 0.000815
108 0.000803
109 0.000797
110 0.000787
111 0.000772
112 0.000754
113 0.000751
114 0.000737
115 0.000725
116 0.000722
117 0.000719
118 0.000726
119 0.000727
120 0.000734
121 0.000727
122 0.000731
123 0.000738
124 0.000740
125 0.000732
126 0.000740
127 0.000752
128 0.000762
129 0.000772
130 0.000782
131 0.000773
132 0.000747
133 0.000717
134 0.000704
135 0.000689
136 0.000676
137 0.000672
138 0.000655
139 0.000639
140 0.000638
141 0.000643
142 0.000620
143 0.000603
144 0.000588
145 0.000571
146 0.000554
147 0.000540
148 0.000518
149 0.000509
150 0.000512
151 0.000531
152 0.000547
153 0.000553
154 0.000561
155 0.000560
156 0.000552
157 0.000539
158 0.000513
159 0.000503
160 0.000498
161 0.000496
162 0.000492
163 0.000479
164 0.000479
165 0.000466
166 0.000456
167 0.000456
168 0.000445
169 0.000447
170 0.000457
171 0.000470
172 0.000476
173 0.000470
174 0.000473
175 0.000467
176 0.000455
177 0.000446
178 0.000431
179 0.000435
180 0.000454
181 0.000472
182 0.000487
183 0.000503
184 0.000513
185 0.000500
186 0.000491
187 0.000486
188 0.000484
189 0.000468
190 0.000463
191 0.000460
192 0.000460
193 0.000468
194 0.000462
195 0.000460
196 0.000445
197 0.000436
198 0.000428
199 0.000418
200 0.000425
201 0.000445
202 0.000468
203 0.000501
204 0.000537
205 0.000583
206 0.000615
207 0.000628
208 0.000642
209 0.000645
210 0.000624
211 0.000603
212 0.000581
213 0.000557
214 0.000546
215 0.000527
216 0.000509
217 0.000504
218 0.000504
219 0.000506
220 0.000509
221 0.000519
222 0.000523
223 0.000526
224 0.000551
225 0.000563
226 0.000573
227 0.000575
228 0.000595
229 0.000622
230 0.000615
231 0.000605
232 0.000602
233 0.000603
234 0.000610
235 0.000611
236 0.000609
237 0.000615
238 0.000612
239 0.000607
240 0.000598
241 0.000583
242 0.000565
243 0.000556
244 0.000551
245 0.000536
246 0.000530
247 0.000527
248 0.000533
249 0.000537
250 0.000535
251 0.000525
252 0.000515
253 0.000510
254 0.000505
255 0.000494
256 0.000483
257 0.000493
258 0.000517
259 0.000544
260 0.000570
261 0.000584
262 0.000575
263 0.000583
264 0.000586
265 0.000570
266 0.000545
267 0.000523
268 0.000513
269 0.000505
270 0.000502
271 0.000500
272 0.000480
273 0.000459
274 0.000454
275 0.000462
276 0.000449
277 0.000451
278 0.000467
279 0.000478
280 0.000483
281 0.000480
282 0.000487
283 0.000492
284 0.000489
285 0.000490
286 0.000500
287 0.000509
288 0.000519
289 0.000527
290 0.000539
291 0.000539
292 0.000543
293 0.000545
294 0.000553
295 0.000551
296 0.000527
297 0.000514
298 0.000507
299 0.000501
300 0.000494
301 0.000487
302 0.000481
303 0.000474
304 0.000479
305 0.000487
306 0.000482
307 0.000476
308 0.000479
309 0.000478
310 0.000492
311 0.000514
312 0.000529
313 0.000534
314 0.000537
315 0.000541
316 0.000533
317 0.000529
318 0.000525
319 0.000521
320 0.000509
321 0.000494
322 0.000470
323 0.000456
324 0.000445
325 0.000440
326 0.000432
327 0.000430
328 0.000420
329 0.000414
330 0.000414
331 0.000425
332 0.000422
333 0.000434
334 0.000455
335 0.000472
336 0.000493
337 0.000502
338 0.000487
339 0.000469
340 0.000453
341 0.000452
342 0.000458
343 0.000468
344 0.000501
345 0.000532
346 0.000558
347 0.000568
348 0.000560
349 0.000533
350 0.000503
351 0.000482
352 0.000460
353 0.000437
354 0.000430
355 0.000420
356 0.000419
357 0.000429
358 0.000418
359 0.000412
360 0.000403
361 0.000400
362 0.000408
363 0.000420
364 0.000435
365 0.000447
366 0.000450
367 0.000446
368 0.000441
369 0.000417
370 0.000391
371 0.000370
372 0.000363
373 0.000357
374 0.000353
375 0.000355
376 0.000373
377 0.000380
378 0.000374
379 0.000365
380 0.000362
381 0.000374
382 0.000369
383 0.000369
384 0.000375
385 0.000382
386 0.000382
387 0.000376
388 0.000389
389 0.000401
390 0.000414
391 0.000433
392 0.000443
393 0.000463
394 0.000466
395 0.000477
396 0.000491
397 0.000485
398 0.000482
399 0.000471
400 0.000454
401 0.000440
402 0.000413
403 0.000382
404 0.000368
405 0.000365
406 0.000366
407 0.000356
408 0.000352
409 0.000353
410 0.000358
411 0.000371
412 0.000385
413 0.000397
414 0.000412
415 0.000434
416 0.000457
417 0.000471
418 0.000489
419 0.000492
420 0.000477
421 0.000462
422 0.000451
423 0.000439
424 0.000432
425 0.000411
426 0.000386
427 0.000372
428 0.000358
429 0.000348
430 0.000359
431 0.000361
432 0.000372
433 0.000387
434 0.000396
435 0.000409
436 0.000409
437 0.000402
438 0.000397
439 0.000384
440 0.000371
441 0.000363
442 0.000355
443 0.000355
444 0.000357
445 0.000369
446 0.000374
447 0.000382
448 0.000382
449 0.000391
450 0.000392
451 0.000387
452 0.000386
453 0.000376
454 0.000365
455 0.000350
456 0.000332
457 0.000318
458 0.000315
459 0.000310
460 0.000290
461 0.000277
462 0.000275
463 0.000276
464 0.000280
465 0.000289
466 0.000306
467 0.000320
468 0.000334
469 0.000340
470 0.000349
471 0.000345
472 0.000346
473 0.000342
474 0.000343
475 0.000354
476 0.000367
477 0.000369
478 0.000363
479 0.000344
480 0.000323
481 0.000299
482 0.000292
483 0.000298
484 0.000297
485 0.000300
486 0.000303
487 0.000317
488 0.000341
489 0.000353
490 0.000356
491 0.000360
492 0.000373
493 0.000382
494 0.000393
495 0.000401
496 0.000400
497 0.000396
498 0.000406
499 0.000426
500 0.000452
501 0.000472
502 0.000489
503 0.000512
504 0.000525
505 0.000516
506 0.000513
507 0.000515
508 0.000528
509 0.000530
510 0.000505
511 0.000482
512 0.000462
513 0.000449
514 0.000441
515 0.000440
516 0.000436
517 0.000448
518 0.000458
519 0.000476
520 0.000482
521 0.000472
522 0.000467
523 0.000456
524 0.000446
525 0.000433
526 0.000414
527 0.000404
528 0.000399
529 0.000411
530 0.000415
531 0.000414
532 0.000403
533 0.000390
534 0.000369
535 0.000344
536 0.000323
537 0.000308
538 0.000302
539 0.000312
540 0.000306
541 0.000295
542 0.000288
543 0.000270
544 0.000244
545 0.000231
546 0.000226
547 0.000235
548 0.000243
549 0.000256
550 0.000266
551 0.000270
552 0.000277
553 0.000292
554 0.000311
555 0.000320
556 0.000333
557 0.000333
558 0.000340
559 0.000338
560 0.000337
561 0.000328
562 0.000317
563 0.000317
564 0.000315
565 0.000322
566 0.000310
567 0.000283
568 0.000267
569 0.000251
570 0.000245
571 0.000230
572 0.000219
573 0.000224
574 0.000228
575 0.000227
576 0.000231
577 0.000221
578 0.000213
579 0.000221
580 0.000225
581 0.000234
582 0.000240
583 0.000242
584 0.000242
585 0.000251
586 0.000263
587 0.000267
588 0.000279
589 0.000277
590 0.000278
591 0.000274
592 0.000265
593 0.000256
594 0.000261
595 0.000254
596 0.000245
597 0.000244
598 0.000235
599 0.000226
600 0.000214
601 0.000210
602 0.000213
603 0.000205
604 0.000200
605 0.000201
606 0.000200
607 0.000194
608 0.000190
609 0.000185
610 0.000184
611 0.000182
612 0.000184
613 0.000196
614 0.000200
615 0.000204
616 0.000206
617 0.000223
618 0.000233
619 0.000240
620 0.000253
621 0.000253
622 0.000247
623 0.000230
624 0.000227
625 0.000228
626 0.000231
627 0.000222
628 0.000228
629 0.000234
630 0.000233
631 0.000229
632 0.000213
633 0.000206
634 0.000191
635 0.000189
636 0.000186
637 0.000191
638 0.000203
639 0.000222
640 0.000239
641 0.000235
642 0.000232
643 0.000233
644 0.000239
645 0.000246
646 0.000245
647 0.000228
648 0.000201
649 0.000181
650 0.000159
651 0.000148
652 0.000146
653 0.000138
654 0.000133
655 0.000129
656 0.000140
657 0.000141
658 0.000140
659 0.000146
660 0.000135
661 0.000120
662 0.000101
663 0.000091
664 0.000076
665 0.000060
666 0.000047
667 0.000046
668 0.000049
669 0.000052
670 0.000050
671 0.000053
672 0.000041
673 0.000028
674 0.000014
675 -0.000005
676 -0.000008
677 -0.000012
678 -0.000009
679 -0.000006
680 -0.000005
681 -0.000003
682 0.000008
683 0.000033
684 0.000053
685 0.000063
686 0.000061
687 0.000050
688 0.000040
689 0.000026
690 0.000014
691 0.000007
692 -0.000001
693 -0.000003
694 0.000006
695 0.000016
696 0.000023
697 0.000030
698 0.000033
699 0.000040
700 0.000043
701 0.000040
702 0.000026
703 0.000013
704 0.000005
705 0.000002
706 -0.000003
707 -0.000006
708 0.000005
709 0.000019
710 0.000042
711 0.000060
712 0.000068
713 0.000071
714 0.000072
715 0.000067
716 0.000058
717 0.000054
718 0.000045
719 0.000024
720 0.000010
721 -0.000000
722 0.000003
723 0.000003
724 0.000003
725 0.000006
726 0.000015
727 0.000023
728 0.000040
729 0.000055
730 0.000063
731 0.000063
732 0.000065
733 0.000059
734 0.000061
735 0.000077
736 0.000091
737 0.000114
738 0.000133
739 0.000145
740 0.000152
741 0.000157
742 0.000160
743 0.000153
744 0.000148
745 0.000144
746 0.000132
747 0.000129
748 0.000125
749 0.000125
750 0.000117
751 0.000099
752 0.000096
753 0.000099
754 0.000106
755 0.000112
756 0.000113
757 0.000114
758 0.000120
759 0.000128
760 0.000132
761 0.000138
762 0.000148
763 0.000158
764 0.000162
765 0.000163
766 0.000167
767 0.000174
768 0.000177
769 0.000183
770 0.000188
771 0.000182
772 0.000167
773 0.000152
774 0.000136
775 0.000125
776 0.000115
777 0.000102
778 0.000089
779 0.000084
780 0.000081
781 0.000082
782 0.000091
783 0.000097
784 0.000098
785 0.000090
786 0.000083
787 0.000081
788 0.000079
789 0.000079
790 0.000083
791 0.000083
792 0.000081
793 0.000085
794 0.000091
795 0.000090
796 0.000089
797 0.000087
798 0.000078
799 0.000075
800 0.000073
801 0.000060
802 0.000051
803 0.000040
804 0.000031
805 0.000024
806 0.000018
807 0.000019
808 0.000023
809 0.000022
