# i correlation
1 0.001881
2 0.001718
3 0.001578
4 0.001444
5 0.001352
6 0.001253
7 0.001173
8 0.001113
9 0.001052
10 0.000992
11 0.000933
12 0.000903
13 0.000899
14 0.000886
15 0.000880
16 0.000862
17 0.000847
18 0.000826
19 0.000778
20 0.000745
21 0.000712
22 0.000689
23 0.000674
24 0.000670
25 0.000682
26 0.000681
27 0.000682
28 0.000677
29 0.000683
30 0.000702
31 0.000709
32 0.000719
33 0.000727
34 0.000723
35 0.000728
36 0.000715
37 0.000706
38 0.000695
39 0.000677
40 0.000661
41 0.000637
42 0.000609
43 0.000589
44 0.000565
45 0.000552
46 0.000542
47 0.000529
48 0.000538
49 0.000545
50 0.000563
51 0.000584
52 0.000610
53 0.000638
54 0.000655
55 0.000659
56 0.000652
57 0.000655
58 0.000668
59 0.000644
60 0.000620
61 0.000599
62 0.000580
63 0.000592
64 0.000610
65 0.000617
66 0.000636
67 0.000644
68 0.000655
69 0.000660
70 0.000666
71 0.000669
72 0.000685
73 0.000699
74 0.000683
75 0.000653
76 0.000616
77 0.000580
78 0.000551
79 0.000534
80 0.000519
81 0.000515
82 0.000532
83 0.000541
84 0.000551
85 0.000560
86 0.000546
87 0.000537
88 0.000532
89 0.000535
90 0.000549
91 0.000564
92 0.000570
93 0.000587
94 0.000606
95 0.000622
96 0.000618
97 0.000629
98 0.000629
99 0.000629
100 0.000635
101 0.000623
102 0.000602
103 0.000565
104 0.000535
105 0.000500
106 0.000477
107 0.000462
108 0.000450
109 0.000445
110 0.000427
111 0.000406
112 0.000401
113 0.000381
114 0.000370
115 0.000364
116 0.000351
117 0.000357
118 0.000360
119 0.000369
120 0.000364
121 0.000379
122 0.000404
123 0.000425
124 0.000466
125 0.000494
126 0.000518
127 0.000544
128 0.000551
129 0.000552
130 0.000549
131 0.000542
132 0.000556
133 0.000550
134 0.000543
135 0.000532
136 0.000519
137 0.000512
138 0.000514
139 0.000515
140 0.000525
141 0.000550
142 0.000585
143 0.000583
144 0.000566
145 0.000549
146 0.000535
147 0.000541
148 0.000545
149 0.000547
150 0.000536
151 0.000532
152 0.000527
153 0.000513
154 0.000518
155 0.000539
156 0.000565
157 0.000582
158 0.000583
159 0.000583
160 0.000576
161 0.000570
162 0.000551
163 0.000534
164 0.000527
165 0.000514
166 0.000492
167 0.000485
168 0.000479
169 0.000468
170 0.000465
171 0.000448
172 0.000453
173 0.000464
174 0.000466
175 0.000470
176 0.000470
177 0.000491
178 0.000499
179 0.000504
180 0.000506
181 0.000503
182 0.000513
183 0.000523
184 0.000526
185 0.000534
186 0.000539
187 0.000547
188 0.000543
189 0.000515
190 0.000503
191 0.000491
192 0.000494
193 0.000483
194 0.000479
195 0.000503
196 0.000506
197 0.000520
198 0.000523
199 0.000536
200 0.000559
201 0.000553
202 0.000534
203 0.000525
204 0.000520
205 0.000519
206 0.000526
207 0.000534
208 0.000558
209 0.000579
210 0.000592
211 0.000585
212 0.000579
213 0.000584
214 0.000566
215 0.000557
216 0.000535
217 0.000523
218 0.000509
219 0.000501
220 0.000479
221 0.000474
222 0.000478
223 0.000505
224 0.000527
225 0.000547
226 0.000551
227 0.000545
228 0.000518
229 0.000490
230 0.000473
231 0.000461
232 0.000453
233 0.000442
234 0.000431
235 0.000420
236 0.000410
237 0.000406
238 0.000411
239 0.000416
240 0.000442
241 0.000480
242 0.000493
243 0.000495
244 0.000493
245 0.000474
246 0.000457
247 0.000427
248 0.000396
249 0.000383
250 0.000374
251 0.000357
252 0.000320
253 0.000297
254 0.000284
255 0.000267
256 0.000260
257 0.000256
258 0.000257
259 0.000261
260 0.000253
261 0.000232
262 0.000210
263 0.000192
264 0.000183
265 0.000164
266 0.000149
267 0.000147
268 0.000156
269 0.000163
270 0.000162
271 0.000164
272 0.000163
273 0.000182
274 0.000189
275 0.000193
276 0.000191
277 0.000191
278 0.000191
279 0.000214
280 0.000231
281 0.000254
282 0.000289
283 0.000302
284 0.000299
285 0.000298
286 0.000281
287 0.000262
288 0.000240
289 0.000228
290 0.000219
291 0.000204
292 0.000187
293 0.000176
294 0.000188
295 0.000207
296 0.000213
297 0.000238
298 0.000253
299 0.000276
300 0.000304
301 0.000324
302 0.000342
303 0.000344
304 0.000349
305 0.000365
306 0.000383
307 0.000407
308 0.000430
309 0.000436
310 0.000438
311 0.000424
312 0.000428
313 0.000419
314 0.000421
315 0.000418
316 0.000413
317 0.000403
318 0.000406
319 0.000410
320 0.000404
321 0.000386
322 0.000362
323 0.000343
324 0.000326
325 0.000306
326 0.000281
327 0.000263
328 0.000245
329 0.000222
330 0.000206
331 0.000178
332 0.000164
333 0.000158
334 0.000159
335 0.000168
336 0.000186
337 0.000212
338 0.000232
339 0.000256
340 0.000268
341 0.000288
342 0.000306
343 0.000314
344 0.000314
345 0.000306
346 0.000306
347 0.000314
348 0.000320
349 0.000306
350 0.000283
351 0.000277
352 0.000273
353 0.000263
354 0.000264
355 0.000273
356 0.000269
357 0.000256
358 0.000248
359 0.000235
360 0.000227
361 0.000210
362 0.000185
363 0.000179
364 0.000179
365 0.000195
366 0.000210
367 0.000223
368 0.000250
369 0.000276
370 0.000288
371 0.000294
372 0.000325
373 0.000349
374 0.000372
375 0.000383
376 0.000390
377 0.000386
378 0.000372
379 0.000355
380 0.000343
381 0.000339
382 0.000347
383 0.000362
384 0.000356
385 0.000355
386 0.000347
387 0.000354
388 0.000361
389 0.000359
390 0.000356
391 0.000355
392 0.000356
393 0.000349
394 0.000333
395 0.000314
396 0.000306
397 0.000313
398 0.000327
399 0.000330
400 0.000338
401 0.000352
402 0.000360
403 0.000364
404 0.000362
405 0.000377
406 0.000394
407 0.000407
408 0.000411
409 0.000416
410 0.000409
411 0.000396
412 0.000386
413 0.000374
414 0.000374
415 0.000368
416 0.000352
417 0.000336
418 0.000325
419 0.000308
420 0.000293
421 0.000290
422 0.000280
423 0.000280
424 0.000287
425 0.000266
426 0.000234
427 0.000221
428 0.000202
429 0.000181
430 0.000160
431 0.000140
432 0.000131
433 0.000122
434 0.000108
435 0.000084
436 0.000086
437 0.000109
438 0.000146
439 0.000184
440 0.000208
441 0.000238
442 0.000258
443 0.000269
444 0.000269
445 0.000261
446 0.000253
447 0.000249
448 0.000238
449 0.000234
450 0.000235
451 0.000227
452 0.000204
453 0.000173
454 0.000156
455 0.000153
456 0.000152
457 0.000150
458 0.000152
459 0.000149
460 0.000137
461 0.000116
462 0.000093
463 0.000090
464 0.000084
465 0.000087
466 0.000100
467 0.000123
468 0.000139
469 0.000152
470 0.000156
471 0.000150
472 0.000160
473 0.000163
474 0.000156
475 0.000147
476 0.000135
477 0.000121
478 0.000102
479 0.000081
480 0.000072
481 0.000077
482 0.000081
483 0.000079
484 0.000081
485 0.000075
486 0.000059
487 0.000037
488 0.000012
489 -0.000016
490 -0.000026
491 -0.000028
492 -0.000025
493 -0.000016
494 -0.000005
495 0.000007
496 0.000020
497 0.000041
498 0.000057
499 0.000057
500 0.000068
501 0.000078
502 0.000088
503 0.000088
504 0.000084
505 0.000079
506 0.000078
507 0.000076
508 0.000072
509 0.000073
510 0.000078
511 0.000083
512 0.000080
513 0.000078
514 0.000078
515 0.000077
516 0.000078
517 0.000070
518 0.000068
519 0.000056
520 0.000049
521 0.000051
522 0.000050
523 0.000056
524 0.000069
525 0.000078
526 0.000079
527 0.000091
528 0.000090
529 0.000083
530 0.000078
531 0.000092
532 0.000098
533 0.000114
534 0.000104
535 0.000089
536 0.000080
537 0.000060
538 0.000060
539 0.000060
540 0.000068
541 0.000086
542 0.000096
543 0.000104
544 0.000107
545 0.000104
546 0.000101
547 0.000093
548 0.000090
549 0.000089
550 0.000083
551 0.000081
552 0.000076
553 0.000070
554 0.000069
555 0.000068
556 0.000069
557 0.000064
558 0.000053
559 0.000035
560 0.000025
561 0.000022
562 0.000019
563 0.000016
564 0.000022
565 0.000036
566 0.000051
567 0.000062
568 0.000069
569 0.000079
570 0.000087
571 0.000089
572 0.000079
573 0.000068
574 0.000056
575 0.000055
576 0.000055
577 0.000048
578 0.000047
579 0.000062
580 0.000071
581 0.000084
582 0.000104
583 0.000111
584 0.000122
585 0.000143
586 0.000150
587 0.000148
588 0.000154
589 0.000148
590 0.000145
591 0.000144
592 0.000144
593 0.000152
594 0.000153
595 0.000160
596 0.000170
597 0.000185
598 0.000196
599 0.000205
600 0.000216
601 0.000228
602 0.000230
603 0.000213
604 0.000188
605 0.000166
606 0.000159
607 0.000150
608 0.000145
609 0.000145
610 0.000150
611 0.000149
612 0.000142
613 0.000135
614 0.000128
615 0.000133
616 0.000153
617 0.000164
618 0.000172
619 0.000173
620 0.000173
621 0.000171
622 0.000176
623 0.000178
624 0.000186
625 0.000195
626 0.000209
627 0.000221
628 0.000233
629 0.000234
630 0.000230
631 0.000222
632 0.000211
633 0.000214
634 0.000212
635 0.000201
636 0.000192
637 0.000181
638 0.000176
639 0.000169
640 0.000162
641 0.000153
642 0.000159
643 0.000168
644 0.000165
645 0.000168
646 0.000171
647 0.000167
648 0.000169
649 0.000174
650 0.000178
651 0.000183
652 0.000183
653 0.000177
654 0.000176
655 0.000180
656 0.000173
657 0.000155
658 0.000144
659 0.000135
660 0.000131
661 0.000122
662 0.000115
663 0.000108
664 0.000102
665 0.000100
666 0.000093
667 0.000092
668 0.000081
669 0.000069
670 0.000055
671 0.000030
672 0.000013
673 -0.000003
674 -0.000007
675 0.000001
676 0.000001
677 -0.000010
678 -0.000019
679 -0.000021
680 -0.000008
681 0.000013
682 0.000039
683 0.000063
684 0.000083
685 0.000095
686 0.000094
687 0.000085
688 0.000094
689 0.000100
690 0.000109
691 0.000111
692 0.000118
693 0.000125
694 0.000126
695 0.000127
696 0.000135
697 0.000150
698 0.000158
699 0.000165
700 0.000172
701 0.000179
702 0.000181
703 0.000178
704 0.000169
705 0.000152
706 0.000138
707 0.000140
708 0.000132
709 0.000128
710 0.000127
711 0.000122
712 0.000119
713 0.000119
714 0.000112
715 0.000108
716 0.000107
717 0.000111
718 0.000126
719 0.000129
720 0.000128
721 0.000126
722 0.000126
723 0.000134
724 0.000143
725 0.000151
726 0.000156
727 0.000160
728 0.000170
729 0.000167
730 0.000158
731 0.000151
732 0.000143
733 0.000141
734 0.000143
735 0.000141
736 0.000139
737 0.000136
738 0.000129
739 0.000124
740 0.000129
741 0.000132
742 0.000134
743 0.000131
744 0.000126
745 0.000117
746 0.000119
747 0.000113
748 0.000112
749 0.000113
750 0.000112
751 0.000111
752 0.000119
753 0.000127
754 0.000135
755 0.000146
756 0.000144
757 0.000145
758 0.000137
759 0.000123
760 0.000111
761 0.000097
762 0.000089
763 0.000081
764 0.000070
765 0.000064
766 0.000062
767 0.000060
768 0.000059
769 0.000063
770 0.000074
771 0.000088
772 0.000090
773 0.000092
774 0.000093
775 0.000099
776 0.000109
777 0.000121
778 0.000126
779 0.000136
780 0.000143
781 0.000146
782 0.000145
783 0.000145
784 0.000143
785 0.000138
786 0.000137
787 0.000132
788 0.000136
789 0.000141
790 0.000138
791 0.000132
792 0.000128
793 0.000118
794 0.000107
795 0.000099
796 0.000093
797 0.000091
798 0.000086
799 0.000073
800 0.000059
801 0.000049
802 0.000044
803 0.000042
804 0.000037
805 0.000034
806 0.000035
807 0.000033
808 0.000033
809 0.000033
