# i correlation
1 0.002565
2 0.002406
3 0.002274
4 0.002155
5 0.002057
6 0.001986
7 0.001935
8 0.001862
9 0.001822
10 0.001776
11 0.001730
12 0.001677
13 0.001636
14 0.001613
15 0.001608
16 0.001586
17 0.001542
18 0.001498
19 0.001437
20 0.001408
21 0.001374
22 0.001340
23 0.001315
24 0.001287
25 0.001262
26 0.001256
27 0.001252
28 0.001252
29 0.001226
30 0.001198
31 0.001181
32 0.001155
33 0.001125
34 0.001094
35 0.001078
36 0.001058
37 0.001034
38 0.001020
39 0.001016
40 0.001018
41 0.001021
42 0.001053
43 0.001048
44 0.001039
45 0.001029
46 0.001018
47 0.001021
48 0.001021
49 0.001015
50 0.001022
51 0.001047
52 0.001065
53 0.001086
54 0.001105
55 0.001112
56 0.001114
57 0.001127
58 0.001127
59 0.001101
60 0.001057
61 0.001009
62 0.000959
63 0.000940
64 0.000916
65 0.000910
66 0.000898
67 0.000885
68 0.000863
69 0.000856
70 0.000850
71 0.000861
72 0.000870
73 0.000889
74 0.000902
75 0.000891
76 0.000879
77 0.000864
78 0.000851
79 0.000852
80 0.000865
81 0.000867
82 0.000880
83 0.000877
84 0.000860
85 0.000832
86 0.000799
87 0.000779
88 0.000758
89 0.000731
90 0.000712
91 0.000719
92 0.000701
93 0.000682
94 0.000685
95 0.000694
96 0.000686
97 0.000679
98 0.000682
99 0.000661
100 0.000656
101 0.000647
102 0.000633
103 0.000602
104 0.000568
105 0.000563
106 0.000544
107 0.000544
108 0.000538
109 0.000527
110 0.000534
111 0.000551
112 0.000554
113 0.000548
114 0.000532
115 0.000505
116 0.000477
117 0.000460
118 0.000440
119 0.000407
120 0.000353
121 0.000316
122 0.000281
123 0.000267
124 0.000285
125 0.000301
126 0.000331
127 0.000346
128 0.000366
129 0.000382
130 0.000394
131 0.000395
132 0.000394
133 0.000419
134 0.000445
135 0.000470
136 0.000480
137 0.000498
138 0.000519
139 0.000535
140 0.000538
141 0.000538
142 0.000522
143 0.000493
144 0.000479
145 0.000463
146 0.000452
147 0.000431
148 0.000410
149 0.000418
150 0.000420
151 0.000402
152 0.000389
153 0.000399
154 0.000414
155 0.000425
156 0.000445
157 0.000440
158 0.000438
159 0.000451
160 0.000466
161 0.000485
162 0.000485
163 0.000479
164 0.000485
165 0.000508
166 0.000526
167 0.000538
168 0.000544
169 0.000546
170 0.000536
171 0.000523
172 0.000501
173 0.000470
174 0.000465
175 0.000449
176 0.000434
177 0.000429
178 0.000407
179 0.000401
180 0.000388
181 0.000389
182 0.000400
183 0.000403
184 0.000429
185 0.000427
186 0.000434
187 0.000421
188 0.000405
189 0.000388
190 0.000390
191 0.000392
192 0.000385
193 0.000382
194 0.000366
195 0.000354
196 0.000341
197 0.000338
198 0.000331
199 0.000323
200 0.000308
201 0.000287
202 0.000275
203 0.000256
204 0.000252
205 0.000243
206 0.000244
207 0.000251
208 0.000277
209 0.000293
210 0.000298
211 0.000292
212 0.000295
213 0.000299
214 0.000288
215 0.000268
216 0.000247
217 0.000236
218 0.000228
219 0.000231
220 0.000221
221 0.000212
222 0.000196
223 0.000172
224 0.000163
225 0.000125
226 0.000120
227 0.000091
228 0.000066
229 0.000057
230 0.000060
231 0.000058
232 0.000060
233 0.000059
234 0.000046
235 0.000025
236 0.000016
237 0.000013
238 0.000000
239 0.000002
240 0.000010
241 0.000032
242 0.000032
243 0.000022
244 0.000032
245 0.000045
246 0.000053
247 0.000073
248 0.000078
249 0.000073
250 0.000071
251 0.000074
252 0.000080
253 0.000069
254 0.000069
255 0.000057
256 0.000058
257 0.000066
258 0.000050
259 0.000041
260 0.000027
261 0.000030
262 0.000042
263 0.000068
264 0.000079
265 0.000089
266 0.000108
267 0.000114
268 0.000120
269 0.000124
270 0.000109
271 0.000085
272 0.000088
273 0.000096
274 0.000105
275 0.000112
276 0.000107
277 0.000108
278 0.000114
279 0.000128
280 0.000130
281 0.000125
282 0.000109
283 0.000076
284 0.000059
285 0.000046
286 0.000035
287 0.000032
288 0.000037
289 0.000054
290 0.000062
291 0.000080
292 0.000082
293 0.000075
294 0.000061
295 0.000069
296 0.000069
297 0.000059
298 0.000061
299 0.000059
300 0.000073
301 0.000084
302 0.000095
303 0.000101
304 0.000116
305 0.000139
306 0.000163
307 0.000173
308 0.000175
309 0.000176
310 0.000176
311 0.000172
312 0.000160
313 0.000145
314 0.000141
315 0.000154
316 0.000149
317 0.000137
318 0.000133
319 0.000131
320 0.000142
321 0.000180
322 0.000200
323 0.000213
324 0.000227
325 0.000217
326 0.000208
327 0.000189
328 0.000178
329 0.000167
330 0.000170
331 0.000189
332 0.000210
333 0.000231
334 0.000242
335 0.000250
336 0.000256
337 0.000264
338 0.000272
339 0.000284
340 0.000280
341 0.000272
342 0.000275
343 0.000278
344 0.000285
345 0.000296
346 0.000311
347 0.000330
348 0.000364
349 0.000389
350 0.000404
351 0.000416
352 0.000427
353 0.000426
354 0.000417
355 0.000404
356 0.000379
357 0.000385
358 0.000381
359 0.000403
360 0.000406
361 0.000414
362 0.000418
363 0.000431
364 0.000447
365 0.000452
366 0.000460
367 0.000442
368 0.000437
369 0.000423
370 0.000415
371 0.000395
372 0.000376
373 0.000368
374 0.000364
375 0.000375
376 0.000380
377 0.000390
378 0.000391
379 0.000405
380 0.000439
381 0.000466
382 0.000485
383 0.000474
384 0.000457
385 0.000429
386 0.000415
387 0.000421
388 0.000420
389 0.000417
390 0.000432
391 0.000445
392 0.000453
393 0.000458
394 0.000457
395 0.000463
396 0.000466
397 0.000485
398 0.000508
399 0.000498
400 0.000494
401 0.000493
402 0.000483
403 0.000493
404 0.000504
405 0.000528
406 0.000558
407 0.000581
408 0.000605
409 0.000599
410 0.000596
411 0.000577
412 0.000561
413 0.000552
414 0.000541
415 0.000544
416 0.000555
417 0.000553
418 0.000568
419 0.000572
420 0.000567
421 0.000565
422 0.000581
423 0.000585
424 0.000587
425 0.000573
426 0.000576
427 0.000558
428 0.000542
429 0.000531
430 0.000517
431 0.000516
432 0.000518
433 0.000528
434 0.000533
435 0.000540
436 0.000538
437 0.000529
438 0.000534
439 0.000543
440 0.000555
441 0.000562
442 0.000562
443 0.000552
444 0.000523
445 0.000516
446 0.000498
447 0.000497
448 0.000499
449 0.000497
450 0.000511
451 0.000509
452 0.000506
453 0.000492
454 0.000485
455 0.000484
456 0.000486
457 0.000491
458 0.000496
459 0.000493
460 0.000495
461 0.000502
462 0.000509
463 0.000519
464 0.000526
465 0.000525
466 0.000528
467 0.000512
468 0.000493
469 0.000472
470 0.000462
471 0.000466
472 0.000459
473 0.000452
474 0.000445
475 0.000455
476 0.000466
477 0.000482
478 0.000502
479 0.000502
480 0.000495
481 0.000487
482 0.000469
483 0.000453
484 0.000421
485 0.000406
486 0.000394
487 0.000395
488 0.000398
489 0.000420
490 0.000423
491 0.000414
492 0.000435
493 0.000448
494 0.000445
495 0.000446
496 0.000436
497 0.000418
498 0.000421
499 0.000433
500 0.000436
501 0.000428
502 0.000412
503 0.000396
504 0.000379
505 0.000369
506 0.000371
507 0.000371
508 0.000384
509 0.000391
510 0.000383
511 0.000364
512 0.000343
513 0.000334
514 0.000324
515 0.000319
516 0.000318
517 0.000314
518 0.000310
519 0.000315
520 0.000324
521 0.000336
522 0.000340
523 0.000346
524 0.000345
525 0.000332
526 0.000322
527 0.000304
528 0.000282
529 0.000266
530 0.000252
531 0.000247
532 0.000235
533 0.000222
534 0.000214
535 0.000204
536 0.000211
537 0.000219
538 0.000217
539 0.000204
540 0.000203
541 0.000216
542 0.000217
543 0.000231
544 0.000240
545 0.000244
546 0.000246
547 0.000258
548 0.000275
549 0.000284
550 0.000300
551 0.000302
552 0.000321
553 0.000329
554 0.000332
555 0.000321
556 0.000320
557 0.000324
558 0.000324
559 0.000329
560 0.000329
561 0.000336
562 0.000333
563 0.000341
564 0.000341
565 0.000346
566 0.000352
567 0.000369
568 0.000385
569 0.000393
570 0.000391
571 0.000386
572 0.000397
573 0.000396
574 0.000398
575 0.000398
576 0.000400
577 0.000394
578 0.000380
579 0.000363
580 0.000362
581 0.000355
582 0.000342
583 0.000337
584 0.000327
585 0.000314
586 0.000283
587 0.000270
588 0.000266
589 0.000267
590 0.000273
591 0.000283
592 0.000296
593 0.000290
594 0.000296
595 0.000310
596 0.000327
597 0.000334
598 0.000345
599 0.000357
600 0.000374
601 0.000393
602 0.000418
603 0.000442
604 0.000460
605 0.000469
606 0.000486
607 0.000499
608 0.000507
609 0.000504
610 0.000499
611 0.000500
612 0.000500
613 0.000500
614 0.000498
615 0.000495
616 0.000495
617 0.000492
618 0.000491
619 0.000497
620 0.000486
621 0.000472
622 0.000473
623 0.000466
624 0.000472
625 0.000467
626 0.000462
627 0.000465
628 0.000461
629 0.000441
630 0.000411
631 0.000387
632 0.000363
633 0.000336
634 0.000326
635 0.000310
636 0.000296
637 0.000285
638 0.000274
639 0.000270
640 0.000259
641 0.000242
642 0.000235
643 0.000227
644 0.000211
645 0.000202
646 0.000196
647 0.000186
648 0.000183
649 0.000175
650 0.000180
651 0.000167
652 0.000165
653 0.000157
654 0.000166
655 0.000187
656 0.000199
657 0.000224
658 0.000232
659 0.000244
660 0.000250
661 0.000258
662 0.000269
663 0.000276
664 0.000285
665 0.000283
666 0.000280
667 0.000277
668 0.000266
669 0.000267
670 0.000270
671 0.000276
672 0.000277
673 0.000270
674 0.000264
675 0.000257
676 0.000255
677 0.000249
678 0.000255
679 0.000267
680 0.000280
681 0.000283
682 0.000293
683 0.000302
684 0.000302
685 0.000313
686 0.000329
687 0.000348
688 0.000362
689 0.000368
690 0.000378
691 0.000376
692 0.000363
693 0.000348
694 0.000321
695 0.000299
696 0.000281
697 0.000274
698 0.000273
699 0.000269
700 0.000264
701 0.000254
702 0.000245
703 0.000239
704 0.000233
705 0.000229
706 0.000221
707 0.000219
708 0.000221
709 0.000221
710 0.000221
711 0.000222
712 0.000215
713 0.000219
714 0.000224
715 0.000219
716 0.000209
717 0.000199
718 0.000190
719 0.000183
720 0.000173
721 0.000158
722 0.000148
723 0.000135
724 0.000121
725 0.000103
726 0.000094
727 0.000086
728 0.000085
729 0.000094
730 0.000104
731 0.000108
732 0.000113
733 0.000121
734 0.000129
735 0.000132
736 0.000135
737 0.000140
738 0.000145
739 0.000162
740 0.000190
741 0.000214
742 0.000235
743 0.000257
744 0.000268
745 0.000286
746 0.000296
747 0.000298
748 0.000295
749 0.000290
750 0.000287
751 0.000272
752 0.000270
753 0.000265
754 0.000266
755 0.000273
756 0.000283
757 0.000290
758 0.000291
759 0.000284
760 0.000284
761 0.000301
762 0.000323
763 0.000338
764 0.000349
765 0.000352
766 0.000355
767 0.000361
768 0.000352
769 0.000342
770 0.000337
771 0.000343
772 0.000348
773 0.000356
774 0.000360
775 0.000358
776 0.000353
777 0.000351
778 0.000358
779 0.000349
780 0.000345
781 0.000352
782 0.000356
783 0.000357
784 0.000351
785 0.000344
786 0.000327
787 0.000324
788 0.000324
789 0.000319
790 0.000317
791 0.000308
792 0.000299
793 0.000296
794 0.000295
795 0.000288
796 0.000276
797 0.000270
798 0.000267
799 0.000259
800 0.000253
801 0.000246
802 0.000232
803 0.000220
804 0.000220
805 0.000219
806 0.000213
807 0.000201
808 0.000196
809 0.000192
