# i correlation
1 0.001958
2 0.001801
3 0.001673
4 0.001568
5 0.001493
6 0.001433
7 0.001386
8 0.001341
9 0.001317
10 0.001302
11 0.001299
12 0.001297
13 0.001272
14 0.001243
15 0.001214
16 0.001191
17 0.001157
18 0.001146
19 0.001131
20 0.001094
21 0.001091
22 0.001096
23 0.001101
24 0.001094
25 0.001076
26 0.001054
27 0.001057
28 0.001048
29 0.001020
30 0.000990
31 0.000949
32 0.000895
33 0.000858
34 0.000823
35 0.000807
36 0.000822
37 0.000859
38 0.000881
39 0.000898
40 0.000912
41 0.000903
42 0.000894
43 0.000885
44 0.000875
45 0.000858
46 0.000838
47 0.000840
48 0.000833
49 0.000839
50 0.000844
51 0.000842
52 0.000836
53 0.000833
54 0.000819
55 0.000821
56 0.000826
57 0.000817
58 0.000811
59 0.000805
60 0.000799
61 0.000813
62 0.000809
63 0.000785
64 0.000797
65 0.000810
66 0.000834
67 0.000835
68 0.000842
69 0.000825
70 0.000825
71 0.000808
72 0.000768
73 0.000729
74 0.000705
75 0.000683
76 0.000668
77 0.000674
78 0.000706
79 0.000718
80 0.000733
81 0.000717
82 0.000682
83 0.000677
84 0.000656
85 0.000642
86 0.000635
87 0.000651
88 0.000665
89 0.000671
90 0.000664
91 0.000646
92 0.000640
93 0.000637
94 0.000645
95 0.000625
96 0.000642
97 0.000652
98 0.000651
99 0.000643
100 0.000618
101 0.000615
102 0.000616
103 0.000622
104 0.000603
105 0.000608
106 0.000617
107 0.000622
108 0.000633
109 0.000639
110 0.000635
111 0.000626
112 0.000615
113 0.000611
114 0.000625
115 0.000650
116 0.000652
117 0.000672
118 0.000703
119 0.000726
120 0.000737
121 0.000758
122 0.000746
123 0.000741
124 0.000733
125 0.000741
126 0.000751
127 0.000756
128 0.000743
129 0.000737
130 0.000749
131 0.000731
132 0.000718
133 0.000713
134 0.000707
135 0.000704
136 0.000712
137 0.000721
138 0.000720
139 0.000702
140 0.000681
141 0.000655
142 0.000643
143 0.000622
144 0.000615
145 0.000618
146 0.000621
147 0.000623
148 0.000642
149 0.000644
150 0.000626
151 0.000604
152 0.000576
153 0.000535
154 0.000520
155 0.000490
156 0.000458
157 0.000430
158 0.000438
159 0.000455
160 0.000469
161 0.000465
162 0.000474
163 0.000495
164 0.000527
165 0.000547
166 0.000556
167 0.000555
168 0.000541
169 0.000525
170 0.000518
171 0.000506
172 0.000508
173 0.000497
174 0.000495
175 0.000497
176 0.000494
177 0.000500
178 0.000498
179 0.000483
180 0.000457
181 0.000443
182 0.000416
183 0.000398
184 0.000403
185 0.000425
186 0.000451
187 0.000473
188 0.000492
189 0.000507
190 0.000509
191 0.000523
192 0.000518
193 0.000510
194 0.000496
195 0.000491
196 0.000488
197 0.000485
198 0.000464
199 0.000469
200 0.000475
201 0.000477
202 0.000494
203 0.000525
204 0.000541
205 0.000545
206 0.000566
207 0.000593
208 0.000616
209 0.000643
210 0.000647
211 0.000632
212 0.000613
213 0.000612
214 0.000613
215 0.000623
216 0.000639
217 0.000635
218 0.000639
219 0.000622
220 0.000606
221 0.000580
222 0.000542
223 0.000517
224 0.000519
225 0.000499
226 0.000511
227 0.000505
228 0.000505
229 0.000510
230 0.000513
231 0.000521
232 0.000520
233 0.000531
234 0.000541
235 0.000546
236 0.000566
237 0.000573
238 0.000575
239 0.000573
240 0.000585
241 0.000584
242 0.000581
243 0.000578
244 0.000557
245 0.000556
246 0.000553
247 0.000560
248 0.000581
249 0.000570
250 0.000567
251 0.000559
252 0.000562
253 0.000567
254 0.000555
255 0.000565
256 0.000562
257 0.000573
258 0.000574
259 0.000566
260 0.000558
261 0.000556
262 0.000549
263 0.000567
264 0.000592
265 0.000595
266 0.000602
267 0.000595
268 0.000594
269 0.000600
270 0.000586
271 0.000585
272 0.000571
273 0.000560
274 0.000549
275 0.000547
276 0.000528
277 0.000509
278 0.000482
279 0.000478
280 0.000470
281 0.000455
282 0.000454
283 0.000443
284 0.000439
285 0.000445
286 0.000450
287 0.000461
288 0.000457
289 0.000455
290 0.000460
291 0.000466
292 0.000466
293 0.000467
294 0.000472
295 0.000470
296 0.000471
297 0.000476
298 0.000461
299 0.000443
300 0.000432
301 0.000428
302 0.000423
303 0.000410
304 0.000399
305 0.000388
306 0.000375
307 0.000370
308 0.000372
309 0.000373
310 0.000376
311 0.000379
312 0.000394
313 0.000402
314 0.000418
315 0.000437
316 0.000455
317 0.000462
318 0.000460
319 0.000468
320 0.000467
321 0.000451
322 0.000443
323 0.000433
324 0.000421
325 0.000416
326 0.000414
327 0.000414
328 0.000412
329 0.000421
330 0.000442
331 0.000453
332 0.000444
333 0.000463
334 0.000480
335 0.000488
336 0.000496
337 0.000515
338 0.000516
339 0.000524
340 0.000518
341 0.000528
342 0.000515
343 0.000507
344 0.000497
345 0.000488
346 0.000480
347 0.000450
348 0.000427
349 0.000414
350 0.000404
351 0.000400
352 0.000404
353 0.000422
354 0.000434
355 0.000444
356 0.000444
357 0.000449
358 0.000444
359 0.000432
360 0.000425
361 0.000428
362 0.000417
363 0.000399
364 0.000377
365 0.000354
366 0.000352
367 0.000350
368 0.000342
369 0.000346
370 0.000350
371 0.000343
372 0.000347
373 0.000356
374 0.000357
375 0.000348
376 0.000344
377 0.000347
378 0.000371
379 0.000374
380 0.000406
381 0.000437
382 0.000465
383 0.000476
384 0.000500
385 0.000520
386 0.000512
387 0.000498
388 0.000487
389 0.000467
390 0.000454
391 0.000437
392 0.000412
393 0.000390
394 0.000366
395 0.000353
396 0.000342
397 0.000349
398 0.000348
399 0.000342
400 0.000345
401 0.000341
402 0.000329
403 0.000320
404 0.000311
405 0.000317
406 0.000317
407 0.000302
408 0.000287
409 0.000281
410 0.000281
411 0.000293
412 0.000304
413 0.000311
414 0.000309
415 0.000284
416 0.000267
417 0.000250
418 0.000231
419 0.000221
420 0.000215
421 0.000213
422 0.000210
423 0.000215
424 0.000221
425 0.000218
426 0.000198
427 0.000189
428 0.000180
429 0.000173
430 0.000165
431 0.000159
432 0.000149
433 0.000161
434 0.000172
435 0.000182
436 0.000189
437 0.000193
438 0.000189
439 0.000190
440 0.000190
441 0.000185
442 0.000196
443 0.000193
444 0.000195
445 0.000189
446 0.000186
447 0.000176
448 0.000184
449 0.000194
450 0.000207
451 0.000223
452 0.000237
453 0.000239
454 0.000241
455 0.000239
456 0.000242
457 0.000237
458 0.000225
459 0.000219
460 0.000217
461 0.000214
462 0.000197
463 0.000185
464 0.000181
465 0.000168
466 0.000168
467 0.000182
468 0.000187
469 0.000189
470 0.000178
471 0.000171
472 0.000172
473 0.000159
474 0.000162
475 0.000167
476 0.000172
477 0.000161
478 0.000160
479 0.000184
480 0.000187
481 0.000198
482 0.000202
483 0.000191
484 0.000200
485 0.000199
486 0.000198
487 0.000182
488 0.000177
489 0.000173
490 0.000170
491 0.000180
492 0.000176
493 0.000169
494 0.000159
495 0.000157
496 0.000138
497 0.000119
498 0.000104
499 0.000102
500 0.000114
501 0.000129
502 0.000138
503 0.000164
504 0.000189
505 0.000209
506 0.000221
507 0.000235
508 0.000245
509 0.000251
510 0.000246
511 0.000238
512 0.000245
513 0.000246
514 0.000245
515 0.000240
516 0.000239
517 0.000232
518 0.000228
519 0.000230
520 0.000232
521 0.000229
522 0.000232
523 0.000224
524 0.000204
525 0.000195
526 0.000203
527 0.000203
528 0.000206
529 0.000204
530 0.000201
531 0.000201
532 0.000217
533 0.000221
534 0.000221
535 0.000221
536 0.000217
537 0.000209
538 0.000194
539 0.000182
540 0.000184
541 0.000186
542 0.000184
543 0.000186
544 0.000186
545 0.000202
546 0.000218
547 0.000227
548 0.000238
549 0.000253
550 0.000266
551 0.000262
552 0.000270
553 0.000268
554 0.000265
555 0.000271
556 0.000273
557 0.000295
558 0.000291
559 0.000296
560 0.000304
561 0.000303
562 0.000306
563 0.000302
564 0.000306
565 0.000306
566 0.000311
567 0.000308
568 0.000304
569 0.000321
570 0.000339
571 0.000349
572 0.000354
573 0.000359
574 0.000358
575 0.000358
576 0.000363
577 0.000358
578 0.000358
579 0.000356
580 0.000352
581 0.000345
582 0.000340
583 0.000337
584 0.000344
585 0.000346
586 0.000342
587 0.000350
588 0.000358
589 0.000353
590 0.000352
591 0.000355
592 0.000347
593 0.000345
594 0.000352
595 0.000334
596 0.000321
597 0.000331
598 0.000336
599 0.000333
600 0.000331
601 0.000321
602 0.000318
603 0.000305
604 0.000292
605 0.000284
606 0.000280
607 0.000269
608 0.000253
609 0.000250
610 0.000247
611 0.000240
612 0.000233
613 0.000225
614 0.000233
615 0.000239
616 0.000241
617 0.000229
618 0.000219
619 0.000211
620 0.000214
621 0.000223
622 0.000232
623 0.000232
624 0.000230
625 0.000241
626 0.000248
627 0.000249
628 0.000252
629 0.000243
630 0.000242
631 0.000230
632 0.000213
633 0.000208
634 0.000199
635 0.000192
636 0.000171
637 0.000166
638 0.000168
639 0.000165
640 0.000174
641 0.000173
642 0.000179
643 0.000172
644 0.000174
645 0.000178
646 0.000176
647 0.000179
648 0.000169
649 0.000169
650 0.000173
651 0.000177
652 0.000183
653 0.000199
654 0.000208
655 0.000197
656 0.000195
657 0.000183
658 0.000183
659 0.000183
660 0.000176
661 0.000162
662 0.000140
663 0.000136
664 0.000142
665 0.000139
666 0.000127
667 0.000124
668 0.000120
669 0.000118
670 0.000121
671 0.000118
672 0.000122
673 0.000105
674 0.000092
675 0.000102
676 0.000118
677 0.000136
678 0.000149
679 0.000144
680 0.000138
681 0.000141
682 0.000144
683 0.000147
684 0.000132
685 0.000121
686 0.000109
687 0.000113
688 0.000111
689 0.000098
690 0.000094
691 0.000093
692 0.000090
693 0.000094
694 0.000103
695 0.000120
696 0.000127
697 0.000124
698 0.000117
699 0.000116
700 0.000129
701 0.000133
702 0.000125
703 0.000119
704 0.000105
705 0.000102
706 0.000103
707 0.000103
708 0.000109
709 0.000109
710 0.000094
711 0.000084
712 0.000077
713 0.000065
714 0.000058
715 0.000062
716 0.000063
717 0.000068
718 0.000071
719 0.000074
720 0.000075
721 0.000083
722 0.000092
723 0.000097
724 0.000100
725 0.000105
726 0.000087
727 0.000074
728 0.000060
729 0.000048
730 0.000047
731 0.000042
732 0.000032
733 0.000018
734 0.000014
735 0.000008
736 0.000015
737 0.000009
738 -0.000001
739 -0.000007
740 -0.000026
741 -0.000040
742 -0.000053
743 -0.000047
744 -0.000044
745 -0.000053
746 -0.000066
747 -0.000079
748 -0.000078
749 -0.000082
750 -0.000085
751 -0.000093
752 -0.000095
753 -0.000098
754 -0.000110
755 -0.000112
756 -0.000118
757 -0.000127
758 -0.000132
759 -0.000132
760 -0.000139
761 -0.000134
762 -0.000134
763 -0.000138
764 -0.000143
765 -0.000148
766 -0.000132
767 -0.000122
768 -0.000118
769 -0.000121
770 -0.000118
771 -0.000111
772 -0.000099
773 -0.000092
774 -0.000078
775 -0.000054
776 -0.000051
777 -0.000048
778 -0.000048
779 -0.000046
780 -0.000042
781 -0.000041
782 -0.000040
783 -0.000034
784 -0.000031
785 -0.000034
786 -0.000024
787 -0.000024
788 -0.000021
789 -0.000014
790 -0.000003
791 0.000004
792 0.000006
793 0.000006
794 0.000002
795 0.000001
796 0.000005
797 0.000014
798 0.000014
799 0.000001
800 -0.000004
801 -0.000012
802 -0.000011
803 -0.000011
804 -0.000010
805 0.000005
806 0.000009
807 0.000000
808 -0.000007
809 -0.000011
