# i correlation
1 0.002448
2 0.002281
3 0.002141
4 0.002039
5 0.001929
6 0.001841
7 0.001759
8 0.001697
9 0.001656
10 0.001626
11 0.001592
12 0.001570
13 0.001582
14 0.001601
15 0.001596
16 0.001596
17 0.001613
18 0.001635
19 0.001657
20 0.001653
21 0.001661
22 0.001655
23 0.001656
24 0.001642
25 0.001634
26 0.001624
27 0.001602
28 0.001572
29 0.001533
30 0.001486
31 0.001467
32 0.001457
33 0.001426
34 0.001374
35 0.001343
36 0.001311
37 0.001272
38 0.001255
39 0.001251
40 0.001239
41 0.001248
42 0.001273
43 0.001290
44 0.001307
45 0.001343
46 0.001385
47 0.001420
48 0.001437
49 0.001465
50 0.001487
51 0.001485
52 0.001480
53 0.001464
54 0.001426
55 0.001389
56 0.001362
57 0.001337
58 0.001315
59 0.001293
60 0.001286
61 0.001268
62 0.001227
63 0.001218
64 0.001237
65 0.001254
66 0.001259
67 0.001266
68 0.001294
69 0.001329
70 0.001372
71 0.001402
72 0.001404
73 0.001410
74 0.001435
75 0.001445
76 0.001426
77 0.001406
78 0.001400
79 0.001376
80 0.001358
81 0.001345
82 0.001342
83 0.001320
84 0.001308
85 0.001292
86 0.001276
87 0.001245
88 0.001240
89 0.001239
90 0.001240
91 0.001246
92 0.001258
93 0.001255
94 0.001243
95 0.001231
96 0.001231
97 0.001253
98 0.001260
99 0.001281
100 0.001286
101 0.001268
102 0.001272
103 0.001286
104 0.001283
105 0.001282
106 0.001281
107 0.001279
108 0.001276
109 0.001293
110 0.001294
111 0.001281
112 0.001261
113 0.001270
114 0.001265
115 0.001258
116 0.001248
117 0.001238
118 0.001225
119 0.001199
120 0.001189
121 0.001189
122 0.001203
123 0.001224
124 0.001252
125 0.001283
126 0.001300
127 0.001300
128 0.001293
129 0.001298
130 0.001291
131 0.001283
132 0.001271
133 0.001254
134 0.001251
135 0.001248
136 0.001236
137 0.001207
138 0.001190
139 0.001192
140 0.001177
141 0.001158
142 0.001128
143 0.001100
144 0.001084
145 0.001080
146 0.001060
147 0.001033
148 0.001011
149 0.001004
150 0.001000
151 0.001008
152 0.001019
153 0.001030
154 0.001036
155 0.001037
156 0.001030
157 0.001024
158 0.001022
159 0.001018
160 0.001028
161 0.001020
162 0.001013
163 0.001004
164 0.000986
165 0.000972
166 0.000958
167 0.000951
168 0.000941
169 0.000915
170 0.000895
171 0.000883
172 0.000883
173 0.000892
174 0.000918
175 0.000921
176 0.000917
177 0.000926
178 0.000937
179 0.000940
180 0.000946
181 0.000935
182 0.000926
183 0.000921
184 0.000914
185 0.000907
186 0.000907
187 0.000910
188 0.000916
189 0.000914
190 0.000892
191 0.000888
192 0.000877
193 0.000875
194 0.000876
195 0.000877
196 0.000880
197 0.000877
198 0.000872
199 0.000850
200 0.000840
201 0.000833
202 0.000832
203 0.000833
204 0.000839
205 0.000850
206 0.000865
207 0.000875
208 0.000871
209 0.000863
210 0.000864
211 0.000863
212 0.000861
213 0.000862
214 0.000861
215 0.000868
216 0.000848
217 0.000828
218 0.000793
219 0.000775
220 0.000769
221 0.000777
222 0.000770
223 0.000776
224 0.000782
225 0.000785
226 0.000781
227 0.000778
228 0.000758
229 0.000747
230 0.000734
231 0.000728
232 0.000725
233 0.000730
234 0.000732
235 0.000730
236 0.000746
237 0.000761
238 0.000800
239 0.000825
240 0.000844
241 0.000844
242 0.000848
243 0.000857
244 0.000856
245 0.000850
246 0.000838
247 0.000820
248 0.000823
249 0.000842
250 0.000861
251 0.000861
252 0.000865
253 0.000864
254 0.000855
255 0.000846
256 0.000849
257 0.000853
258 0.000860
259 0.000874
260 0.000880
261 0.000874
262 0.000874
263 0.000871
264 0.000878
265 0.000893
266 0.000908
267 0.000911
268 0.000902
269 0.000904
270 0.000907
271 0.000918
272 0.000915
273 0.000915
274 0.000895
275 0.000879
276 0.000855
277 0.000835
278 0.000812
279 0.000793
280 0.000770
281 0.000738
282 0.000714
283 0.000693
284 0.000671
285 0.000667
286 0.000673
287 0.000666
288 0.000666
289 0.000672
290 0.000676
291 0.000687
292 0.000687
293 0.000686
294 0.000683
295 0.000682
296 0.000678
297 0.000680
298 0.000677
299 0.000672
300 0.000667
301 0.000657
302 0.000646
303 0.000640
304 0.000628
305 0.000627
306 0.000632
307 0.000631
308 0.000620
309 0.000617
310 0.000609
311 0.000607
312 0.000602
313 0.000601
314 0.000589
315 0.000566
316 0.000551
317 0.000551
318 0.000564
319 0.000566
320 0.000586
321 0.000592
322 0.000593
323 0.000601
324 0.000604
325 0.000596
326 0.000587
327 0.000577
328 0.000561
329 0.000534
330 0.000531
331 0.000533
332 0.000538
333 0.000532
334 0.000517
335 0.000502
336 0.000517
337 0.000543
338 0.000557
339 0.000570
340 0.000569
341 0.000563
342 0.000569
343 0.000581
344 0.000583
345 0.000573
346 0.000564
347 0.000569
348 0.000563
349 0.000569
350 0.000570
351 0.000572
352 0.000583
353 0.000585
354 0.000581
355 0.000579
356 0.000590
357 0.000589
358 0.000579
359 0.000573
360 0.000574
361 0.000562
362 0.000558
363 0.000566
364 0.000573
365 0.000590
366 0.000609
367 0.000618
368 0.000625
369 0.000630
370 0.000646
371 0.000652
372 0.000654
373 0.000638
374 0.000633
375 0.000643
376 0.000643
377 0.000635
378 0.000638
379 0.000646
380 0.000645
381 0.000643
382 0.000643
383 0.000644
384 0.000648
385 0.000659
386 0.000657
387 0.000642
388 0.000641
389 0.000655
390 0.000656
391 0.000659
392 0.000661
393 0.000658
394 0.000649
395 0.000634
396 0.000626
397 0.000621
398 0.000619
399 0.000600
400 0.000575
401 0.000558
402 0.000553
403 0.000553
404 0.000552
405 0.000541
406 0.000531
407 0.000521
408 0.000518
409 0.000510
410 0.000510
411 0.000526
412 0.000550
413 0.000569
414 0.000580
415 0.000598
416 0.000618
417 0.000647
418 0.000676
419 0.000680
420 0.000684
421 0.000682
422 0.000679
423 0.000654
424 0.000632
425 0.000613
426 0.000580
427 0.000556
428 0.000531
429 0.000516
430 0.000510
431 0.000531
432 0.000539
433 0.000533
434 0.000537
435 0.000549
436 0.000578
437 0.000596
438 0.000600
439 0.000604
440 0.000601
441 0.000593
442 0.000590
443 0.000579
444 0.000571
445 0.000577
446 0.000593
447 0.000591
448 0.000578
449 0.000566
450 0.000550
451 0.000535
452 0.000519
453 0.000512
454 0.000501
455 0.000485
456 0.000472
457 0.000463
458 0.000441
459 0.000426
460 0.000429
461 0.000438
462 0.000454
463 0.000482
464 0.000510
465 0.000536
466 0.000554
467 0.000578
468 0.000587
469 0.000586
470 0.000573
471 0.000567
472 0.000551
473 0.000534
474 0.000521
475 0.000505
476 0.000491
477 0.000481
478 0.000480
479 0.000464
480 0.000448
481 0.000453
482 0.000471
483 0.000495
484 0.000498
485 0.000510
486 0.000513
487 0.000511
488 0.000514
489 0.000521
490 0.000524
491 0.000535
492 0.000561
493 0.000569
494 0.000579
495 0.000597
496 0.000614
497 0.000617
498 0.000615
499 0.000608
500 0.000594
501 0.000578
502 0.000559
503 0.000540
504 0.000533
505 0.000529
506 0.000529
507 0.000536
508 0.000531
509 0.000536
510 0.000547
511 0.000565
512 0.000574
513 0.000582
514 0.000591
515 0.000605
516 0.000613
517 0.000635
518 0.000648
519 0.000656
520 0.000672
521 0.000683
522 0.000680
523 0.000658
524 0.000642
525 0.000620
526 0.000595
527 0.000587
528 0.000586
529 0.000573
530 0.000564
531 0.000567
532 0.000565
533 0.000559
534 0.000558
535 0.000571
536 0.000572
537 0.000568
538 0.000568
539 0.000571
540 0.000566
541 0.000567
542 0.000567
543 0.000573
544 0.000578
545 0.000598
546 0.000616
547 0.000624
548 0.000624
549 0.000629
550 0.000621
551 0.000618
552 0.000616
553 0.000612
554 0.000594
555 0.000565
556 0.000537
557 0.000503
558 0.000468
559 0.000446
560 0.000427
561 0.000405
562 0.000388
563 0.000388
564 0.000392
565 0.000396
566 0.000403
567 0.000420
568 0.000433
569 0.000447
570 0.000462
571 0.000474
572 0.000473
573 0.000472
574 0.000469
575 0.000466
576 0.000463
577 0.000463
578 0.000452
579 0.000430
580 0.000410
581 0.000396
582 0.000387
583 0.000368
584 0.000337
585 0.000327
586 0.000329
587 0.000321
588 0.000302
589 0.000288
590 0.000275
591 0.000278
592 0.000294
593 0.000306
594 0.000314
595 0.000334
596 0.000351
597 0.000358
598 0.000367
599 0.000381
600 0.000399
601 0.000405
602 0.000412
603 0.000412
604 0.000407
605 0.000397
606 0.000392
607 0.000365
608 0.000340
609 0.000329
610 0.000317
611 0.000293
612 0.000286
613 0.000288
614 0.000300
615 0.000296
616 0.000304
617 0.000322
618 0.000347
619 0.000376
620 0.000405
621 0.000433
622 0.000458
623 0.000478
624 0.000487
625 0.000496
626 0.000496
627 0.000502
628 0.000499
629 0.000486
630 0.000472
631 0.000461
632 0.000438
633 0.000422
634 0.000407
635 0.000403
636 0.000394
637 0.000400
638 0.000400
639 0.000392
640 0.000386
641 0.000395
642 0.000406
643 0.000415
644 0.000423
645 0.000448
646 0.000463
647 0.000466
648 0.000453
649 0.000442
650 0.000435
651 0.000440
652 0.000435
653 0.000427
654 0.000415
655 0.000402
656 0.000398
657 0.000391
658 0.000389
659 0.000380
660 0.000369
661 0.000363
662 0.000353
663 0.000344
664 0.000337
665 0.000322
666 0.000306
667 0.000296
668 0.000290
669 0.000298
670 0.000307
671 0.000309
672 0.000315
673 0.000313
674 0.000311
675 0.000314
676 0.000319
677 0.000330
678 0.000334
679 0.000326
680 0.000319
681 0.000307
682 0.000297
683 0.000287
684 0.000277
685 0.000264
686 0.000258
687 0.000256
688 0.000262
689 0.000263
690 0.000266
691 0.000274
692 0.000279
693 0.000276
694 0.000270
695 0.000272
696 0.000273
697 0.000267
698 0.000264
699 0.000247
700 0.000232
701 0.000218
702 0.000214
703 0.000213
704 0.000210
705 0.000205
706 0.000204
707 0.000203
708 0.000200
709 0.000206
710 0.000206
711 0.000217
712 0.000226
713 0.000227
714 0.000224
715 0.000225
716 0.000230
717 0.000233
718 0.000225
719 0.000228
720 0.000225
721 0.000221
722 0.000224
723 0.000218
724 0.000209
725 0.000204
726 0.000201
727 0.000202
728 0.000212
729 0.000211
730 0.000213
731 0.000203
732 0.000193
733 0.000183
734 0.000186
735 0.000197
736 0.000207
737 0.000218
738 0.000227
739 0.000232
740 0.000236
741 0.000235
742 0.000236
743 0.000231
744 0.000229
745 0.000222
746 0.000209
747 0.000203
748 0.000201
749 0.000195
750 0.000188
751 0.000182
752 0.000176
753 0.000171
754 0.000172
755 0.000172
756 0.000179
757 0.000183
758 0.000193
759 0.000198
760 0.000210
761 0.000224
762 0.000230
763 0.000233
764 0.000230
765 0.000220
766 0.000209
767 0.000197
768 0.000184
769 0.000175
770 0.000166
771 0.000159
772 0.000159
773 0.000156
774 0.000152
775 0.000142
776 0.000133
777 0.000122
778 0.000108
779 0.000099
780 0.000101
781 0.000103
782 0.000107
783 0.000108
784 0.000114
785 0.000121
786 0.000131
787 0.000132
788 0.000137
789 0.000134
790 0.000136
791 0.000132
792 0.000130
793 0.000134
794 0.000138
795 0.000140
796 0.000132
797 0.000121
798 0.000108
799 0.000094
800 0.000079
801 0.000072
802 0.000067
803 0.000066
804 0.000066
805 0.000073
806 0.000080
807 0.000086
808 0.000095
809 0.000102
