# i correlation
1 0.002311
2 0.002146
3 0.002016
4 0.001890
5 0.001773
6 0.001697
7 0.001624
8 0.001582
9 0.001541
10 0.001513
11 0.001480
12 0.001455
13 0.001453
14 0.001460
15 0.001460
16 0.001466
17 0.001452
18 0.001442
19 0.001426
20 0.001394
21 0.001373
22 0.001353
23 0.001345
24 0.001353
25 0.001358
26 0.001342
27 0.001344
28 0.001362
29 0.001359
30 0.001335
31 0.001328
32 0.001312
33 0.001305
34 0.001313
35 0.001327
36 0.001323
37 0.001324
38 0.001313
39 0.001319
40 0.001325
41 0.001319
42 0.001309
43 0.001302
44 0.001288
45 0.001291
46 0.001281
47 0.001269
48 0.001251
49 0.001240
50 0.001223
51 0.001204
52 0.001193
53 0.001185
54 0.001165
55 0.001144
56 0.001131
57 0.001100
58 0.001090
59 0.001102
60 0.001123
61 0.001134
62 0.001152
63 0.001175
64 0.001196
65 0.001182
66 0.001183
67 0.001184
68 0.001188
69 0.001196
70 0.001192
71 0.001166
72 0.001130
73 0.001073
74 0.001029
75 0.000995
76 0.000971
77 0.000961
78 0.000961
79 0.000960
80 0.000959
81 0.000953
82 0.000949
83 0.000935
84 0.000904
85 0.000867
86 0.000856
87 0.000847
88 0.000856
89 0.000859
90 0.000856
91 0.000853
92 0.000844
93 0.000825
94 0.000825
95 0.000834
96 0.000843
97 0.000845
98 0.000861
99 0.000885
100 0.000868
101 0.000837
102 0.000823
103 0.000818
104 0.000808
105 0.000812
106 0.000814
107 0.000807
108 0.000797
109 0.000783
110 0.000774
111 0.000762
112 0.000759
113 0.000751
114 0.000765
115 0.000778
116 0.000790
117 0.000787
118 0.000791
119 0.000793
120 0.000781
121 0.000780
122 0.000785
123 0.000794
124 0.000808
125 0.000811
126 0.000800
127 0.000816
128 0.000821
129 0.000817
130 0.000809
131 0.000819
132 0.000817
133 0.000802
134 0.000775
135 0.000735
136 0.000707
137 0.000681
138 0.000674
139 0.000671
140 0.000661
141 0.000649
142 0.000649
143 0.000654
144 0.000662
145 0.000678
146 0.000678
147 0.000669
148 0.000656
149 0.000658
150 0.000663
151 0.000664
152 0.000677
153 0.000674
154 0.000666
155 0.000673
156 0.000661
157 0.000645
158 0.000659
159 0.000684
160 0.000718
161 0.000761
162 0.000780
163 0.000794
164 0.000802
165 0.000803
166 0.000794
167 0.000801
168 0.000818
169 0.000834
170 0.000843
171 0.000845
172 0.000826
173 0.000837
174 0.000841
175 0.000821
176 0.000810
177 0.000808
178 0.000808
179 0.000809
180 0.000803
181 0.000793
182 0.000792
183 0.000798
184 0.000794
185 0.000814
186 0.000848
187 0.000870
188 0.000880
189 0.000895
190 0.000883
191 0.000881
192 0.000885
193 0.000890
194 0.000890
195 0.000889
196 0.000872
197 0.000841
198 0.000841
199 0.000842
200 0.000859
201 0.000867
202 0.000886
203 0.000887
204 0.000879
205 0.000873
206 0.000865
207 0.000861
208 0.000867
209 0.000875
210 0.000885
211 0.000889
212 0.000862
213 0.000836
214 0.000836
215 0.000819
216 0.000787
217 0.000757
218 0.000741
219 0.000733
220 0.000735
221 0.000758
222 0.000771
223 0.000777
224 0.000783
225 0.000781
226 0.000766
227 0.000773
228 0.000783
229 0.000786
230 0.000787
231 0.000797
232 0.000797
233 0.000805
234 0.000808
235 0.000795
236 0.000767
237 0.000759
238 0.000749
239 0.000731
240 0.000700
241 0.000679
242 0.000655
243 0.000644
244 0.000633
245 0.000629
246 0.000624
247 0.000640
248 0.000664
249 0.000689
250 0.000722
251 0.000747
252 0.000758
253 0.000765
254 0.000755
255 0.000745
256 0.000752
257 0.000759
258 0.000750
259 0.000756
260 0.000762
261 0.000771
262 0.000773
263 0.000772
264 0.000767
265 0.000750
266 0.000728
267 0.000708
268 0.000695
269 0.000693
270 0.000702
271 0.000708
272 0.000716
273 0.000712
274 0.000703
275 0.000681
276 0.000658
277 0.000646
278 0.000643
279 0.000640
280 0.000628
281 0.000621
282 0.000613
283 0.000613
284 0.000611
285 0.000603
286 0.000587
287 0.000574
288 0.000584
289 0.000584
290 0.000577
291 0.000581
292 0.000572
293 0.000568
294 0.000561
295 0.000551
296 0.000530
297 0.000540
298 0.000550
299 0.000555
300 0.000556
301 0.000558
302 0.000550
303 0.000543
304 0.000531
305 0.000528
306 0.000525
307 0.000519
308 0.000516
309 0.000520
310 0.000544
311 0.000551
312 0.000555
313 0.000577
314 0.000584
315 0.000571
316 0.000577
317 0.000583
318 0.000573
319 0.000577
320 0.000591
321 0.000593
322 0.000590
323 0.000597
324 0.000604
325 0.000609
326 0.000623
327 0.000636
328 0.000652
329 0.000660
330 0.000666
331 0.000651
332 0.000632
333 0.000620
334 0.000605
335 0.000563
336 0.000529
337 0.000505
338 0.000490
339 0.000479
340 0.000467
341 0.000468
342 0.000474
343 0.000472
344 0.000479
345 0.000475
346 0.000472
347 0.000492
348 0.000500
349 0.000510
350 0.000528
351 0.000539
352 0.000563
353 0.000592
354 0.000604
355 0.000620
356 0.000633
357 0.000630
358 0.000620
359 0.000613
360 0.000602
361 0.000598
362 0.000589
363 0.000586
364 0.000580
365 0.000589
366 0.000594
367 0.000583
368 0.000572
369 0.000591
370 0.000597
371 0.000602
372 0.000606
373 0.000597
374 0.000592
375 0.000598
376 0.000608
377 0.000614
378 0.000617
379 0.000642
380 0.000664
381 0.000686
382 0.000701
383 0.000708
384 0.000707
385 0.000699
386 0.000674
387 0.000651
388 0.000642
389 0.000644
390 0.000650
391 0.000636
392 0.000625
393 0.000635
394 0.000649
395 0.000658
396 0.000667
397 0.000676
398 0.000673
399 0.000656
400 0.000661
401 0.000663
402 0.000654
403 0.000636
404 0.000619
405 0.000593
406 0.000562
407 0.000530
408 0.000513
409 0.000509
410 0.000508
411 0.000503
412 0.000499
413 0.000491
414 0.000493
415 0.000499
416 0.000508
417 0.000519
418 0.000537
419 0.000551
420 0.000561
421 0.000578
422 0.000598
423 0.000597
424 0.000609
425 0.000636
426 0.000641
427 0.000624
428 0.000616
429 0.000602
430 0.000587
431 0.000563
432 0.000562
433 0.000574
434 0.000569
435 0.000568
436 0.000572
437 0.000570
438 0.000570
439 0.000579
440 0.000584
441 0.000590
442 0.000597
443 0.000605
444 0.000614
445 0.000625
446 0.000632
447 0.000628
448 0.000629
449 0.000640
450 0.000647
451 0.000646
452 0.000647
453 0.000648
454 0.000634
455 0.000627
456 0.000617
457 0.000610
458 0.000601
459 0.000597
460 0.000596
461 0.000597
462 0.000590
463 0.000580
464 0.000568
465 0.000554
466 0.000540
467 0.000511
468 0.000491
469 0.000474
470 0.000454
471 0.000446
472 0.000444
473 0.000435
474 0.000445
475 0.000443
476 0.000429
477 0.000425
478 0.000430
479 0.000441
480 0.000448
481 0.000462
482 0.000477
483 0.000488
484 0.000498
485 0.000494
486 0.000486
487 0.000470
488 0.000459
489 0.000451
490 0.000440
491 0.000422
492 0.000418
493 0.000424
494 0.000429
495 0.000431
496 0.000436
497 0.000443
498 0.000448
499 0.000454
500 0.000450
501 0.000427
502 0.000400
503 0.000390
504 0.000382
505 0.000355
506 0.000328
507 0.000301
508 0.000294
509 0.000282
510 0.000268
511 0.000260
512 0.000262
513 0.000264
514 0.000260
515 0.000265
516 0.000279
517 0.000297
518 0.000295
519 0.000294
520 0.000298
521 0.000315
522 0.000329
523 0.000331
524 0.000345
525 0.000352
526 0.000357
527 0.000365
528 0.000377
529 0.000378
530 0.000374
531 0.000372
532 0.000383
533 0.000393
534 0.000403
535 0.000402
536 0.000396
537 0.000364
538 0.000345
539 0.000320
540 0.000313
541 0.000310
542 0.000313
543 0.000315
544 0.000323
545 0.000331
546 0.000324
547 0.000316
548 0.000314
549 0.000310
550 0.000313
551 0.000314
552 0.000316
553 0.000315
554 0.000309
555 0.000303
556 0.000306
557 0.000304
558 0.000312
559 0.000315
560 0.000311
561 0.000324
562 0.000334
563 0.000343
564 0.000366
565 0.000371
566 0.000362
567 0.000368
568 0.000367
569 0.000366
570 0.000365
571 0.000365
572 0.000356
573 0.000347
574 0.000343
575 0.000340
576 0.000337
577 0.000344
578 0.000355
579 0.000355
580 0.000363
581 0.000371
582 0.000369
583 0.000364
584 0.000359
585 0.000357
586 0.000367
587 0.000370
588 0.000380
589 0.000382
590 0.000377
591 0.000362
592 0.000351
593 0.000344
594 0.000338
595 0.000338
596 0.000346
597 0.000342
598 0.000353
599 0.000351
600 0.000341
601 0.000327
602 0.000313
603 0.000324
604 0.000350
605 0.000356
606 0.000357
607 0.000361
608 0.000360
609 0.000356
610 0.000363
611 0.000379
612 0.000386
613 0.000393
614 0.000408
615 0.000411
616 0.000401
617 0.000386
618 0.000366
619 0.000347
620 0.000324
621 0.000303
622 0.000297
623 0.000287
624 0.000290
625 0.000293
626 0.000287
627 0.000294
628 0.000313
629 0.000326
630 0.000337
631 0.000348
632 0.000361
633 0.000380
634 0.000378
635 0.000370
636 0.000352
637 0.000332
638 0.000320
639 0.000309
640 0.000301
641 0.000297
642 0.000301
643 0.000315
644 0.000331
645 0.000333
646 0.000327
647 0.000329
648 0.000333
649 0.000336
650 0.000351
651 0.000353
652 0.000349
653 0.000352
654 0.000345
655 0.000343
656 0.000338
657 0.000337
658 0.000337
659 0.000339
660 0.000337
661 0.000322
662 0.000302
663 0.000290
664 0.000271
665 0.000246
666 0.000223
667 0.000216
668 0.000204
669 0.000196
670 0.000188
671 0.000176
672 0.000170
673 0.000170
674 0.000178
675 0.000175
676 0.000171
677 0.000171
678 0.000175
679 0.000171
680 0.000161
681 0.000153
682 0.000142
683 0.000133
684 0.000125
685 0.000126
686 0.000131
687 0.000123
688 0.000114
689 0.000104
690 0.000089
691 0.000067
692 0.000052
693 0.000046
694 0.000040
695 0.000040
696 0.000041
697 0.000048
698 0.000049
699 0.000057
700 0.000058
701 0.000052
702 0.000063
703 0.000076
704 0.000079
705 0.000072
706 0.000064
707 0.000053
708 0.000045
709 0.000038
710 0.000030
711 0.000024
712 0.000015
713 0.000018
714 0.000017
715 0.000006
716 -0.000008
717 -0.000019
718 -0.000036
719 -0.000042
720 -0.000049
721 -0.000047
722 -0.000047
723 -0.000045
724 -0.000046
725 -0.000054
726 -0.000070
727 -0.000067
728 -0.000074
729 -0.000078
730 -0.000080
731 -0.000072
732 -0.000058
733 -0.000059
734 -0.000061
735 -0.000063
736 -0.000069
737 -0.000077
738 -0.000068
739 -0.000066
740 -0.000075
741 -0.000079
742 -0.000072
743 -0.000072
744 -0.000075
745 -0.000077
746 -0.000077
747 -0.000081
748 -0.000081
749 -0.000074
750 -0.000068
751 -0.000070
752 -0.000071
753 -0.000066
754 -0.000069
755 -0.000068
756 -0.000062
757 -0.000058
758 -0.000064
759 -0.000070
760 -0.000073
761 -0.000077
762 -0.000079
763 -0.000080
764 -0.000085
765 -0.000083
766 -0.000071
767 -0.000054
768 -0.000046
769 -0.000032
770 -0.000032
771 -0.000027
772 -0.000017
773 -0.000013
774 -0.000008
775 -0.000009
776 -0.000020
777 -0.000017
778 -0.000024
779 -0.000035
780 -0.000045
781 -0.000052
782 -0.000056
783 -0.000054
784 -0.000044
785 -0.000029
786 -0.000018
787 -0.000016
788 -0.000018
789 -0.000022
790 -0.000028
791 -0.000028
792 -0.000028
793 -0.000032
794 -0.000041
795 -0.000047
796 -0.000049
797 -0.000052
798 -0.000050
799 -0.000048
800 -0.000048
801 -0.000043
802 -0.000028
803 -0.000012
804 -0.000006
805 0.000008
806 0.000021
807 0.000029
808 0.000036
809 0.000041
