# i correlation
1 0.002361
2 0.002202
3 0.002049
4 0.001925
5 0.001813
6 0.001730
7 0.001645
8 0.001581
9 0.001509
10 0.001456
11 0.001402
12 0.001367
13 0.001331
14 0.001304
15 0.001275
16 0.001234
17 0.001214
18 0.001199
19 0.001172
20 0.001143
21 0.001101
22 0.001088
23 0.001092
24 0.001109
25 0.001128
26 0.001145
27 0.001181
28 0.001173
29 0.001171
30 0.001159
31 0.001135
32 0.001128
33 0.001115
34 0.001118
35 0.001131
36 0.001136
37 0.001155
38 0.001171
39 0.001186
40 0.001205
41 0.001221
42 0.001235
43 0.001233
44 0.001210
45 0.001173
46 0.001145
47 0.001118
48 0.001085
49 0.001074
50 0.001065
51 0.001049
52 0.001022
53 0.001005
54 0.000995
55 0.000981
56 0.000959
57 0.000951
58 0.000932
59 0.000916
60 0.000901
61 0.000891
62 0.000898
63 0.000897
64 0.000888
65 0.000878
66 0.000870
67 0.000865
68 0.000854
69 0.000858
70 0.000851
71 0.000845
72 0.000838
73 0.000831
74 0.000816
75 0.000793
76 0.000781
77 0.000785
78 0.000786
79 0.000786
80 0.000776
81 0.000780
82 0.000788
83 0.000796
84 0.000776
85 0.000772
86 0.000753
87 0.000751
88 0.000733
89 0.000729
90 0.000722
91 0.000737
92 0.000760
93 0.000770
94 0.000786
95 0.000796
96 0.000810
97 0.000811
98 0.000838
99 0.000848
100 0.000852
101 0.000850
102 0.000849
103 0.000834
104 0.000846
105 0.000873
106 0.000882
107 0.000879
108 0.000870
109 0.000851
110 0.000818
111 0.000790
112 0.000804
113 0.000797
114 0.000781
115 0.000767
116 0.000760
117 0.000747
118 0.000730
119 0.000713
120 0.000697
121 0.000688
122 0.000698
123 0.000702
124 0.000704
125 0.000709
126 0.000707
127 0.000707
128 0.000678
129 0.000685
130 0.000682
131 0.000679
132 0.000670
133 0.000682
134 0.000692
135 0.000703
136 0.000706
137 0.000687
138 0.000661
139 0.000665
140 0.000667
141 0.000686
142 0.000711
143 0.000725
144 0.000744
145 0.000758
146 0.000776
147 0.000815
148 0.000855
149 0.000917
150 0.000942
151 0.000970
152 0.000974
153 0.000967
154 0.000970
155 0.000963
156 0.000955
157 0.000934
158 0.000910
159 0.000892
160 0.000869
161 0.000836
162 0.000813
163 0.000784
164 0.000759
165 0.000748
166 0.000734
167 0.000707
168 0.000676
169 0.000643
170 0.000599
171 0.000568
172 0.000551
173 0.000521
174 0.000507
175 0.000490
176 0.000486
177 0.000478
178 0.000471
179 0.000468
180 0.000466
181 0.000477
182 0.000480
183 0.000472
184 0.000469
185 0.000485
186 0.000508
187 0.000534
188 0.000554
189 0.000594
190 0.000609
191 0.000632
192 0.000669
193 0.000687
194 0.000699
195 0.000721
196 0.000738
197 0.000739
198 0.000741
199 0.000742
200 0.000740
201 0.000731
202 0.000700
203 0.000670
204 0.000658
205 0.000645
206 0.000655
207 0.000669
208 0.000684
209 0.000671
210 0.000658
211 0.000631
212 0.000621
213 0.000597
214 0.000592
215 0.000563
216 0.000545
217 0.000521
218 0.000520
219 0.000513
220 0.000504
221 0.000511
222 0.000515
223 0.000492
224 0.000483
225 0.000494
226 0.000503
227 0.000524
228 0.000533
229 0.000527
230 0.000518
231 0.000514
232 0.000502
233 0.000482
234 0.000468
235 0.000454
236 0.000440
237 0.000428
238 0.000423
239 0.000433
240 0.000444
241 0.000468
242 0.000485
243 0.000492
244 0.000498
245 0.000516
246 0.000528
247 0.000539
248 0.000541
249 0.000556
250 0.000550
251 0.000548
252 0.000545
253 0.000542
254 0.000550
255 0.000565
256 0.000584
257 0.000591
258 0.000592
259 0.000583
260 0.000571
261 0.000564
262 0.000548
263 0.000523
264 0.000497
265 0.000469
266 0.000450
267 0.000439
268 0.000442
269 0.000445
270 0.000464
271 0.000465
272 0.000476
273 0.000468
274 0.000486
275 0.000489
276 0.000499
277 0.000488
278 0.000495
279 0.000473
280 0.000463
281 0.000453
282 0.000449
283 0.000468
284 0.000491
285 0.000512
286 0.000515
287 0.000507
288 0.000502
289 0.000504
290 0.000509
291 0.000518
292 0.000515
293 0.000512
294 0.000523
295 0.000523
296 0.000521
297 0.000515
298 0.000500
299 0.000503
300 0.000509
301 0.000516
302 0.000530
303 0.000529
304 0.000528
305 0.000507
306 0.000487
307 0.000475
308 0.000481
309 0.000475
310 0.000470
311 0.000460
312 0.000466
313 0.000466
314 0.000468
315 0.000460
316 0.000457
317 0.000440
318 0.000427
319 0.000429
320 0.000430
321 0.000431
322 0.000431
323 0.000433
324 0.000417
325 0.000413
326 0.000412
327 0.000410
328 0.000392
329 0.000382
330 0.000362
331 0.000353
332 0.000334
333 0.000338
334 0.000348
335 0.000351
336 0.000347
337 0.000377
338 0.000382
339 0.000412
340 0.000440
341 0.000473
342 0.000478
343 0.000490
344 0.000512
345 0.000539
346 0.000553
347 0.000564
348 0.000577
349 0.000585
350 0.000582
351 0.000589
352 0.000584
353 0.000586
354 0.000594
355 0.000591
356 0.000588
357 0.000614
358 0.000618
359 0.000617
360 0.000602
361 0.000595
362 0.000584
363 0.000591
364 0.000582
365 0.000551
366 0.000526
367 0.000504
368 0.000490
369 0.000466
370 0.000434
371 0.000400
372 0.000369
373 0.000336
374 0.000321
375 0.000303
376 0.000311
377 0.000296
378 0.000290
379 0.000281
380 0.000295
381 0.000318
382 0.000340
383 0.000359
384 0.000380
385 0.000379
386 0.000389
387 0.000389
388 0.000396
389 0.000381
390 0.000373
391 0.000373
392 0.000369
393 0.000370
394 0.000377
395 0.000374
396 0.000381
397 0.000377
398 0.000384
399 0.000384
400 0.000386
401 0.000390
402 0.000381
403 0.000389
404 0.000394
405 0.000384
406 0.000389
407 0.000395
408 0.000410
409 0.000402
410 0.000392
411 0.000383
412 0.000359
413 0.000341
414 0.000336
415 0.000311
416 0.000292
417 0.000277
418 0.000275
419 0.000268
420 0.000273
421 0.000275
422 0.000277
423 0.000271
424 0.000269
425 0.000267
426 0.000278
427 0.000286
428 0.000286
429 0.000279
430 0.000270
431 0.000258
432 0.000257
433 0.000266
434 0.000273
435 0.000302
436 0.000327
437 0.000335
438 0.000350
439 0.000347
440 0.000339
441 0.000353
442 0.000365
443 0.000387
444 0.000395
445 0.000397
446 0.000402
447 0.000386
448 0.000368
449 0.000354
450 0.000356
451 0.000354
452 0.000351
453 0.000353
454 0.000342
455 0.000338
456 0.000334
457 0.000321
458 0.000304
459 0.000291
460 0.000272
461 0.000265
462 0.000259
463 0.000259
464 0.000251
465 0.000252
466 0.000251
467 0.000256
468 0.000263
469 0.000272
470 0.000299
471 0.000316
472 0.000320
473 0.000315
474 0.000299
475 0.000299
476 0.000312
477 0.000308
478 0.000293
479 0.000281
480 0.000276
481 0.000272
482 0.000261
483 0.000248
484 0.000241
485 0.000230
486 0.000230
487 0.000222
488 0.000229
489 0.000246
490 0.000263
491 0.000266
492 0.000280
493 0.000284
494 0.000273
495 0.000266
496 0.000264
497 0.000267
498 0.000283
499 0.000307
500 0.000331
501 0.000347
502 0.000360
503 0.000389
504 0.000404
505 0.000426
506 0.000431
507 0.000430
508 0.000434
509 0.000434
510 0.000423
511 0.000424
512 0.000422
513 0.000413
514 0.000394
515 0.000379
516 0.000371
517 0.000363
518 0.000362
519 0.000362
520 0.000358
521 0.000332
522 0.000316
523 0.000299
524 0.000270
525 0.000239
526 0.000220
527 0.000210
528 0.000200
529 0.000203
530 0.000225
531 0.000232
532 0.000245
533 0.000267
534 0.000282
535 0.000299
536 0.000304
537 0.000315
538 0.000329
539 0.000341
540 0.000357
541 0.000377
542 0.000400
543 0.000420
544 0.000436
545 0.000449
546 0.000460
547 0.000476
548 0.000490
549 0.000511
550 0.000532
551 0.000544
552 0.000547
553 0.000546
554 0.000548
555 0.000562
556 0.000563
557 0.000565
558 0.000561
559 0.000558
560 0.000539
561 0.000520
562 0.000496
563 0.000482
564 0.000455
565 0.000427
566 0.000397
567 0.000375
568 0.000365
569 0.000365
570 0.000369
571 0.000367
572 0.000378
573 0.000379
574 0.000371
575 0.000369
576 0.000365
577 0.000362
578 0.000348
579 0.000325
580 0.000312
581 0.000298
582 0.000296
583 0.000291
584 0.000295
585 0.000301
586 0.000304
587 0.000298
588 0.000295
589 0.000285
590 0.000294
591 0.000289
592 0.000294
593 0.000294
594 0.000295
595 0.000303
596 0.000311
597 0.000322
598 0.000332
599 0.000340
600 0.000343
601 0.000350
602 0.000347
603 0.000336
604 0.000327
605 0.000328
606 0.000313
607 0.000298
608 0.000273
609 0.000251
610 0.000243
611 0.000237
612 0.000233
613 0.000223
614 0.000209
615 0.000210
616 0.000204
617 0.000201
618 0.000194
619 0.000181
620 0.000169
621 0.000152
622 0.000137
623 0.000116
624 0.000110
625 0.000119
626 0.000116
627 0.000113
628 0.000115
629 0.000111
630 0.000095
631 0.000078
632 0.000074
633 0.000076
634 0.000079
635 0.000085
636 0.000082
637 0.000087
638 0.000093
639 0.000099
640 0.000101
641 0.000112
642 0.000133
643 0.000148
644 0.000153
645 0.000152
646 0.000148
647 0.000145
648 0.000151
649 0.000157
650 0.000151
651 0.000143
652 0.000146
653 0.000154
654 0.000169
655 0.000176
656 0.000194
657 0.000204
658 0.000204
659 0.000212
660 0.000218
661 0.000218
662 0.000224
663 0.000227
664 0.000231
665 0.000226
666 0.000220
667 0.000206
668 0.000206
669 0.000200
670 0.000187
671 0.000195
672 0.000188
673 0.000175
674 0.000156
675 0.000130
676 0.000108
677 0.000086
678 0.000073
679 0.000055
680 0.000037
681 0.000023
682 0.000014
683 0.000007
684 0.000017
685 0.000022
686 0.000027
687 0.000023
688 0.000038
689 0.000050
690 0.000068
691 0.000070
692 0.000075
693 0.000065
694 0.000051
695 0.000036
696 0.000031
697 0.000042
698 0.000070
699 0.000101
700 0.000130
701 0.000143
702 0.000153
703 0.000168
704 0.000173
705 0.000178
706 0.000179
707 0.000178
708 0.000174
709 0.000158
710 0.000147
711 0.000152
712 0.000145
713 0.000136
714 0.000125
715 0.000113
716 0.000092
717 0.000085
718 0.000061
719 0.000040
720 0.000023
721 0.000012
722 -0.000001
723 -0.000012
724 -0.000027
725 -0.000039
726 -0.000037
727 -0.000031
728 -0.000023
729 -0.000017
730 -0.000015
731 -0.000008
732 -0.000006
733 -0.000007
734 -0.000013
735 -0.000031
736 -0.000057
737 -0.000079
738 -0.000095
739 -0.000099
740 -0.000095
741 -0.000075
742 -0.000056
743 -0.000050
744 -0.000041
745 -0.000029
746 -0.000023
747 -0.000017
748 -0.000009
749 -0.000005
750 -0.000001
751 -0.000001
752 -0.000011
753 -0.000033
754 -0.000038
755 -0.000038
756 -0.000044
757 -0.000049
758 -0.000049
759 -0.000046
760 -0.000046
761 -0.000037
762 -0.000033
763 -0.000035
764 -0.000024
765 -0.000015
766 -0.000012
767 -0.000006
768 -0.000004
769 0.000009
770 0.000015
771 0.000026
772 0.000029
773 0.000025
774 0.000013
775 -0.000001
776 -0.000021
777 -0.000032
778 -0.000050
779 -0.000064
780 -0.000076
781 -0.000084
782 -0.000088
783 -0.000085
784 -0.000080
785 -0.000082
786 -0.000085
787 -0.000099
788 -0.000109
789 -0.000104
790 -0.000092
791 -0.000082
792 -0.000070
793 -0.000064
794 -0.000054
795 -0.000046
796 -0.000038
797 -0.000027
798 -0.000007
799 0.000008
800 0.000023
801 0.000029
802 0.000036
803 0.000038
804 0.000048
805 0.000057
806 0.000062
807 0.000064
808 0.000068
809 0.000065
