# i correlation
1 0.003145
2 0.002968
3 0.002817
4 0.002714
5 0.002632
6 0.002565
7 0.002477
8 0.002398
9 0.002301
10 0.002225
11 0.002152
12 0.002095
13 0.002054
14 0.002018
15 0.001971
16 0.001938
17 0.001932
18 0.001942
19 0.001947
20 0.001941
21 0.001927
22 0.001898
23 0.001880
24 0.001870
25 0.001855
26 0.001846
27 0.001826
28 0.001787
29 0.001756
30 0.001708
31 0.001681
32 0.001647
33 0.001607
34 0.001558
35 0.001523
36 0.001508
37 0.001501
38 0.001495
39 0.001467
40 0.001436
41 0.001407
42 0.001417
43 0.001438
44 0.001465
45 0.001476
46 0.001501
47 0.001514
48 0.001511
49 0.001495
50 0.001484
51 0.001471
52 0.001450
53 0.001422
54 0.001403
55 0.001400
56 0.001395
57 0.001384
58 0.001351
59 0.001323
60 0.001314
61 0.001313
62 0.001319
63 0.001325
64 0.001334
65 0.001326
66 0.001320
67 0.001304
68 0.001300
69 0.001297
70 0.001290
71 0.001283
72 0.001295
73 0.001310
74 0.001325
75 0.001338
76 0.001344
77 0.001330
78 0.001318
79 0.001298
80 0.001282
81 0.001271
82 0.001272
83 0.001278
84 0.001254
85 0.001228
86 0.001181
87 0.001139
88 0.001115
89 0.001115
90 0.001116
91 0.001123
92 0.001119
93 0.001127
94 0.001118
95 0.001117
96 0.001105
97 0.001082
98 0.001062
99 0.001037
100 0.001035
101 0.001030
102 0.001017
103 0.001022
104 0.001015
105 0.001005
106 0.000991
107 0.000980
108 0.000975
109 0.000970
110 0.000974
111 0.000976
112 0.000980
113 0.000967
114 0.000941
115 0.000911
116 0.000906
117 0.000926
118 0.000924
119 0.000915
120 0.000911
121 0.000905
122 0.000900
123 0.000907
124 0.000905
125 0.000924
126 0.000921
127 0.000919
128 0.000915
129 0.000918
130 0.000930
131 0.000951
132 0.000955
133 0.000939
134 0.000932
135 0.000943
136 0.000958
137 0.000955
138 0.000951
139 0.000942
140 0.000938
141 0.000939
142 0.000937
143 0.000916
144 0.000904
145 0.000882
146 0.000862
147 0.000843
148 0.000835
149 0.000825
150 0.000803
151 0.000787
152 0.000768
153 0.000756
154 0.000750
155 0.000756
156 0.000766
157 0.000754
158 0.000748
159 0.000740
160 0.000738
161 0.000748
162 0.000749
163 0.000758
164 0.000774
165 0.000785
166 0.000788
167 0.000824
168 0.000859
169 0.000881
170 0.000873
171 0.000859
172 0.000843
173 0.000843
174 0.000847
175 0.000847
176 0.000844
177 0.000843
178 0.000824
179 0.000787
180 0.000771
181 0.000776
182 0.000798
183 0.000800
184 0.000789
185 0.000762
186 0.000750
187 0.000737
188 0.000718
189 0.000707
190 0.000680
191 0.000681
192 0.000692
193 0.000695
194 0.000690
195 0.000701
196 0.000718
197 0.000716
198 0.000715
199 0.000713
200 0.000717
201 0.000715
202 0.000700
203 0.000701
204 0.000695
205 0.000696
206 0.000715
207 0.000723
208 0.000735
209 0.000751
210 0.000761
211 0.000769
212 0.000784
213 0.000810
214 0.000831
215 0.000841
216 0.000833
217 0.000828
218 0.000833
219 0.000844
220 0.000867
221 0.000882
222 0.000866
223 0.000838
224 0.000837
225 0.000835
226 0.000834
227 0.000825
228 0.000814
229 0.000823
230 0.000835
231 0.000852
232 0.000872
233 0.000893
234 0.000902
235 0.000910
236 0.000910
237 0.000915
238 0.000929
239 0.000944
240 0.000951
241 0.000957
242 0.000941
243 0.000943
244 0.000938
245 0.000943
246 0.000940
247 0.000939
248 0.000921
249 0.000892
250 0.000865
251 0.000840
252 0.000830
253 0.000830
254 0.000820
255 0.000804
256 0.000795
257 0.000790
258 0.000804
259 0.000819
260 0.000836
261 0.000843
262 0.000857
263 0.000864
264 0.000868
265 0.000881
266 0.000899
267 0.000905
268 0.000912
269 0.000909
270 0.000890
271 0.000872
272 0.000875
273 0.000869
274 0.000870
275 0.000861
276 0.000868
277 0.000866
278 0.000860
279 0.000845
280 0.000831
281 0.000824
282 0.000836
283 0.000832
284 0.000824
285 0.000820
286 0.000829
287 0.000835
288 0.000842
289 0.000841
290 0.000849
291 0.000837
292 0.000833
293 0.000834
294 0.000831
295 0.000821
296 0.000828
297 0.000801
298 0.000778
299 0.000756
300 0.000749
301 0.000737
302 0.000730
303 0.000725
304 0.000714
305 0.000696
306 0.000682
307 0.000685
308 0.000681
309 0.000689
310 0.000693
311 0.000677
312 0.000662
313 0.000658
314 0.000654
315 0.000649
316 0.000634
317 0.000618
318 0.000601
319 0.000586
320 0.000573
321 0.000560
322 0.000556
323 0.000560
324 0.000554
325 0.000550
326 0.000550
327 0.000527
328 0.000513
329 0.000499
330 0.000497
331 0.000501
332 0.000517
333 0.000519
334 0.000523
335 0.000507
336 0.000520
337 0.000529
338 0.000543
339 0.000546
340 0.000560
341 0.000568
342 0.000581
343 0.000578
344 0.000563
345 0.000561
346 0.000554
347 0.000545
348 0.000534
349 0.000531
350 0.000542
351 0.000571
352 0.000584
353 0.000579
354 0.000567
355 0.000558
356 0.000549
357 0.000549
358 0.000538
359 0.000533
360 0.000520
361 0.000510
362 0.000499
363 0.000480
364 0.000464
365 0.000464
366 0.000456
367 0.000450
368 0.000450
369 0.000461
370 0.000475
371 0.000486
372 0.000499
373 0.000521
374 0.000545
375 0.000566
376 0.000590
377 0.000612
378 0.000630
379 0.000653
380 0.000662
381 0.000652
382 0.000651
383 0.000650
384 0.000629
385 0.000619
386 0.000604
387 0.000599
388 0.000605
389 0.000604
390 0.000594
391 0.000577
392 0.000544
393 0.000511
394 0.000504
395 0.000510
396 0.000511
397 0.000517
398 0.000524
399 0.000525
400 0.000536
401 0.000566
402 0.000598
403 0.000630
404 0.000649
405 0.000664
406 0.000683
407 0.000700
408 0.000717
409 0.000723
410 0.000723
411 0.000707
412 0.000679
413 0.000662
414 0.000650
415 0.000639
416 0.000628
417 0.000617
418 0.000602
419 0.000584
420 0.000564
421 0.000563
422 0.000554
423 0.000551
424 0.000550
425 0.000555
426 0.000544
427 0.000558
428 0.000563
429 0.000563
430 0.000549
431 0.000534
432 0.000527
433 0.000544
434 0.000572
435 0.000599
436 0.000620
437 0.000634
438 0.000634
439 0.000627
440 0.000626
441 0.000630
442 0.000638
443 0.000651
444 0.000654
445 0.000663
446 0.000673
447 0.000672
448 0.000667
449 0.000673
450 0.000694
451 0.000731
452 0.000759
453 0.000776
454 0.000793
455 0.000805
456 0.000814
457 0.000817
458 0.000818
459 0.000824
460 0.000837
461 0.000830
462 0.000817
463 0.000802
464 0.000798
465 0.000792
466 0.000777
467 0.000760
468 0.000755
469 0.000744
470 0.000748
471 0.000761
472 0.000781
473 0.000802
474 0.000825
475 0.000822
476 0.000806
477 0.000795
478 0.000795
479 0.000801
480 0.000809
481 0.000816
482 0.000826
483 0.000836
484 0.000848
485 0.000857
486 0.000857
487 0.000849
488 0.000833
489 0.000826
490 0.000817
491 0.000813
492 0.000809
493 0.000805
494 0.000783
495 0.000767
496 0.000756
497 0.000746
498 0.000738
499 0.000747
500 0.000739
501 0.000738
502 0.000728
503 0.000728
504 0.000713
505 0.000694
506 0.000682
507 0.000684
508 0.000680
509 0.000663
510 0.000657
511 0.000644
512 0.000628
513 0.000611
514 0.000597
515 0.000577
516 0.000562
517 0.000548
518 0.000551
519 0.000551
520 0.000562
521 0.000568
522 0.000572
523 0.000552
524 0.000524
525 0.000498
526 0.000487
527 0.000482
528 0.000495
529 0.000508
530 0.000514
531 0.000511
532 0.000512
533 0.000517
534 0.000524
535 0.000520
536 0.000522
537 0.000522
538 0.000518
539 0.000518
540 0.000512
541 0.000513
542 0.000502
543 0.000503
544 0.000494
545 0.000481
546 0.000484
547 0.000490
548 0.000488
549 0.000495
550 0.000498
551 0.000502
552 0.000495
553 0.000489
554 0.000489
555 0.000483
556 0.000484
557 0.000478
558 0.000470
559 0.000450
560 0.000439
561 0.000427
562 0.000425
563 0.000430
564 0.000442
565 0.000440
566 0.000434
567 0.000416
568 0.000407
569 0.000397
570 0.000380
571 0.000374
572 0.000379
573 0.000370
574 0.000357
575 0.000341
576 0.000334
577 0.000335
578 0.000331
579 0.000316
580 0.000302
581 0.000290
582 0.000286
583 0.000296
584 0.000300
585 0.000299
586 0.000293
587 0.000278
588 0.000263
589 0.000262
590 0.000258
591 0.000241
592 0.000239
593 0.000225
594 0.000220
595 0.000216
596 0.000207
597 0.000202
598 0.000197
599 0.000173
600 0.000158
601 0.000148
602 0.000152
603 0.000159
604 0.000163
605 0.000160
606 0.000160
607 0.000144
608 0.000144
609 0.000152
610 0.000177
611 0.000197
612 0.000205
613 0.000210
614 0.000216
615 0.000228
616 0.000251
617 0.000259
618 0.000277
619 0.000294
620 0.000310
621 0.000334
622 0.000353
623 0.000366
624 0.000392
625 0.000402
626 0.000407
627 0.000415
628 0.000424
629 0.000432
630 0.000428
631 0.000409
632 0.000399
633 0.000394
634 0.000389
635 0.000384
636 0.000376
637 0.000364
638 0.000359
639 0.000362
640 0.000355
641 0.000343
642 0.000337
643 0.000328
644 0.000322
645 0.000318
646 0.000317
647 0.000326
648 0.000320
649 0.000322
650 0.000317
651 0.000307
652 0.000284
653 0.000264
654 0.000244
655 0.000217
656 0.000202
657 0.000193
658 0.000182
659 0.000164
660 0.000146
661 0.000125
662 0.000097
663 0.000076
664 0.000074
665 0.000066
666 0.000070
667 0.000079
668 0.000103
669 0.000119
670 0.000135
671 0.000139
672 0.000156
673 0.000171
674 0.000192
675 0.000209
676 0.000225
677 0.000230
678 0.000232
679 0.000220
680 0.000208
681 0.000203
682 0.000197
683 0.000192
684 0.000188
685 0.000196
686 0.000201
687 0.000197
688 0.000195
689 0.000190
690 0.000194
691 0.000192
692 0.000185
693 0.000187
694 0.000190
695 0.000204
696 0.000213
697 0.000223
698 0.000225
699 0.000235
700 0.000241
701 0.000249
702 0.000252
703 0.000262
704 0.000276
705 0.000287
706 0.000291
707 0.000291
708 0.000277
709 0.000253
710 0.000227
711 0.000216
712 0.000205
713 0.000197
714 0.000194
715 0.000188
716 0.000178
717 0.000175
718 0.000177
719 0.000185
720 0.000207
721 0.000228
722 0.000233
723 0.000236
724 0.000247
725 0.000265
726 0.000273
727 0.000286
728 0.000310
729 0.000329
730 0.000342
731 0.000346
732 0.000351
733 0.000361
734 0.000371
735 0.000368
736 0.000368
737 0.000351
738 0.000340
739 0.000334
740 0.000331
741 0.000333
742 0.000340
743 0.000342
744 0.000348
745 0.000350
746 0.000356
747 0.000376
748 0.000387
749 0.000401
750 0.000426
751 0.000446
752 0.000465
753 0.000482
754 0.000493
755 0.000493
756 0.000487
757 0.000486
758 0.000485
759 0.000490
760 0.000491
761 0.000486
762 0.000477
763 0.000465
764 0.000452
765 0.000446
766 0.000438
767 0.000435
768 0.000428
769 0.000418
770 0.000410
771 0.000395
772 0.000381
773 0.000368
774 0.000363
775 0.000361
776 0.000367
777 0.000373
778 0.000380
779 0.000381
780 0.000381
781 0.000387
782 0.000393
783 0.000395
784 0.000386
785 0.000381
786 0.000385
787 0.000385
788 0.000379
789 0.000369
790 0.000355
791 0.000333
792 0.000319
793 0.000316
794 0.000313
795 0.000310
796 0.000312
797 0.000311
798 0.000309
799 0.000299
800 0.000288
801 0.000277
802 0.000277
803 0.000271
804 0.000261
805 0.000247
806 0.000241
807 0.000236
808 0.000231
809 0.000222
