# i correlation
1 0.002196
2 0.002045
3 0.001932
4 0.001830
5 0.001770
6 0.001718
7 0.001663
8 0.001598
9 0.001557
10 0.001509
11 0.001475
12 0.001439
13 0.001389
14 0.001328
15 0.001284
16 0.001250
17 0.001225
18 0.001232
19 0.001261
20 0.001260
21 0.001268
22 0.001263
23 0.001256
24 0.001240
25 0.001244
26 0.001226
27 0.001220
28 0.001189
29 0.001168
30 0.001176
31 0.001168
32 0.001166
33 0.001149
34 0.001120
35 0.001079
36 0.001049
37 0.001027
38 0.001009
39 0.000986
40 0.000956
41 0.000937
42 0.000932
43 0.000930
44 0.000919
45 0.000913
46 0.000894
47 0.000879
48 0.000900
49 0.000910
50 0.000912
51 0.000940
52 0.000956
53 0.000967
54 0.000987
55 0.001012
56 0.001044
57 0.001084
58 0.001107
59 0.001121
60 0.001129
61 0.001112
62 0.001090
63 0.001090
64 0.001090
65 0.001077
66 0.001081
67 0.001074
68 0.001050
69 0.001035
70 0.001040
71 0.001026
72 0.001011
73 0.001007
74 0.001002
75 0.001001
76 0.001020
77 0.001001
78 0.000979
79 0.000975
80 0.000964
81 0.000969
82 0.000990
83 0.001009
84 0.000995
85 0.000992
86 0.000994
87 0.001004
88 0.001006
89 0.001020
90 0.001017
91 0.001001
92 0.000973
93 0.000954
94 0.000943
95 0.000929
96 0.000903
97 0.000871
98 0.000849
99 0.000825
100 0.000805
101 0.000773
102 0.000735
103 0.000700
104 0.000685
105 0.000657
106 0.000644
107 0.000639
108 0.000641
109 0.000663
110 0.000673
111 0.000677
112 0.000674
113 0.000653
114 0.000641
115 0.000663
116 0.000694
117 0.000718
118 0.000747
119 0.000769
120 0.000786
121 0.000807
122 0.000818
123 0.000836
124 0.000840
125 0.000840
126 0.000842
127 0.000837
128 0.000835
129 0.000823
130 0.000846
131 0.000870
132 0.000874
133 0.000864
134 0.000855
135 0.000838
136 0.000822
137 0.000811
138 0.000801
139 0.000794
140 0.000803
141 0.000821
142 0.000865
143 0.000891
144 0.000878
145 0.000872
146 0.000891
147 0.000891
148 0.000886
149 0.000888
150 0.000885
151 0.000881
152 0.000886
153 0.000916
154 0.000920
155 0.000900
156 0.000878
157 0.000869
158 0.000863
159 0.000857
160 0.000841
161 0.000822
162 0.000805
163 0.000789
164 0.000788
165 0.000788
166 0.000787
167 0.000767
168 0.000753
169 0.000729
170 0.000710
171 0.000702
172 0.000691
173 0.000700
174 0.000701
175 0.000704
176 0.000723
177 0.000726
178 0.000731
179 0.000742
180 0.000750
181 0.000751
182 0.000757
183 0.000776
184 0.000784
185 0.000793
186 0.000800
187 0.000808
188 0.000799
189 0.000794
190 0.000803
191 0.000811
192 0.000796
193 0.000781
194 0.000769
195 0.000738
196 0.000710
197 0.000677
198 0.000652
199 0.000637
200 0.000618
201 0.000600
202 0.000607
203 0.000603
204 0.000625
205 0.000654
206 0.000677
207 0.000692
208 0.000710
209 0.000728
210 0.000747
211 0.000774
212 0.000790
213 0.000809
214 0.000826
215 0.000832
216 0.000826
217 0.000819
218 0.000820
219 0.000823
220 0.000799
221 0.000791
222 0.000765
223 0.000740
224 0.000718
225 0.000684
226 0.000641
227 0.000616
228 0.000591
229 0.000569
230 0.000557
231 0.000550
232 0.000566
233 0.000571
234 0.000569
235 0.000575
236 0.000567
237 0.000573
238 0.000574
239 0.000578
240 0.000584
241 0.000591
242 0.000612
243 0.000632
244 0.000638
245 0.000623
246 0.000603
247 0.000599
248 0.000591
249 0.000588
250 0.000583
251 0.000577
252 0.000575
253 0.000578
254 0.000576
255 0.000557
256 0.000540
257 0.000540
258 0.000534
259 0.000520
260 0.000501
261 0.000483
262 0.000486
263 0.000505
264 0.000537
265 0.000558
266 0.000576
267 0.000576
268 0.000573
269 0.000588
270 0.000599
271 0.000608
272 0.000624
273 0.000615
274 0.000616
275 0.000623
276 0.000627
277 0.000646
278 0.000664
279 0.000673
280 0.000686
281 0.000700
282 0.000699
283 0.000687
284 0.000695
285 0.000707
286 0.000699
287 0.000693
288 0.000696
289 0.000706
290 0.000715
291 0.000740
292 0.000732
293 0.000715
294 0.000718
295 0.000719
296 0.000718
297 0.000718
298 0.000705
299 0.000703
300 0.000728
301 0.000752
302 0.000769
303 0.000767
304 0.000748
305 0.000725
306 0.000708
307 0.000706
308 0.000698
309 0.000685
310 0.000685
311 0.000676
312 0.000672
313 0.000673
314 0.000678
315 0.000671
316 0.000649
317 0.000627
318 0.000598
319 0.000575
320 0.000557
321 0.000553
322 0.000559
323 0.000569
324 0.000568
325 0.000569
326 0.000570
327 0.000563
328 0.000548
329 0.000553
330 0.000568
331 0.000561
332 0.000575
333 0.000587
334 0.000596
335 0.000594
336 0.000590
337 0.000597
338 0.000586
339 0.000591
340 0.000600
341 0.000599
342 0.000604
343 0.000586
344 0.000575
345 0.000570
346 0.000563
347 0.000568
348 0.000584
349 0.000582
350 0.000565
351 0.000569
352 0.000565
353 0.000568
354 0.000565
355 0.000566
356 0.000567
357 0.000570
358 0.000578
359 0.000585
360 0.000593
361 0.000609
362 0.000613
363 0.000603
364 0.000609
365 0.000617
366 0.000626
367 0.000638
368 0.000650
369 0.000643
370 0.000655
371 0.000646
372 0.000630
373 0.000644
374 0.000662
375 0.000669
376 0.000658
377 0.000649
378 0.000639
379 0.000620
380 0.000616
381 0.000617
382 0.000603
383 0.000586
384 0.000571
385 0.000564
386 0.000562
387 0.000561
388 0.000546
389 0.000540
390 0.000542
391 0.000542
392 0.000520
393 0.000501
394 0.000480
395 0.000471
396 0.000467
397 0.000473
398 0.000471
399 0.000470
400 0.000485
401 0.000485
402 0.000477
403 0.000462
404 0.000440
405 0.000422
406 0.000429
407 0.000435
408 0.000439
409 0.000426
410 0.000418
411 0.000417
412 0.000421
413 0.000420
414 0.000403
415 0.000374
416 0.000352
417 0.000341
418 0.000347
419 0.000357
420 0.000351
421 0.000349
422 0.000357
423 0.000375
424 0.000398
425 0.000426
426 0.000433
427 0.000441
428 0.000436
429 0.000444
430 0.000464
431 0.000501
432 0.000532
433 0.000552
434 0.000560
435 0.000548
436 0.000527
437 0.000518
438 0.000506
439 0.000476
440 0.000457
441 0.000443
442 0.000435
443 0.000443
444 0.000454
445 0.000445
446 0.000437
447 0.000422
448 0.000413
449 0.000422
450 0.000431
451 0.000439
452 0.000445
453 0.000446
454 0.000443
455 0.000437
456 0.000448
457 0.000463
458 0.000458
459 0.000448
460 0.000435
461 0.000426
462 0.000415
463 0.000397
464 0.000382
465 0.000369
466 0.000346
467 0.000328
468 0.000326
469 0.000313
470 0.000299
471 0.000292
472 0.000277
473 0.000261
474 0.000246
475 0.000234
476 0.000226
477 0.000213
478 0.000199
479 0.000191
480 0.000181
481 0.000166
482 0.000171
483 0.000174
484 0.000186
485 0.000198
486 0.000212
487 0.000219
488 0.000235
489 0.000245
490 0.000258
491 0.000269
492 0.000262
493 0.000263
494 0.000272
495 0.000280
496 0.000280
497 0.000281
498 0.000276
499 0.000263
500 0.000267
501 0.000287
502 0.000283
503 0.000270
504 0.000255
505 0.000243
506 0.000252
507 0.000268
508 0.000282
509 0.000300
510 0.000315
511 0.000307
512 0.000313
513 0.000322
514 0.000324
515 0.000329
516 0.000334
517 0.000335
518 0.000331
519 0.000350
520 0.000365
521 0.000371
522 0.000369
523 0.000371
524 0.000374
525 0.000355
526 0.000340
527 0.000323
528 0.000311
529 0.000304
530 0.000288
531 0.000283
532 0.000278
533 0.000283
534 0.000294
535 0.000295
536 0.000288
537 0.000277
538 0.000272
539 0.000266
540 0.000268
541 0.000260
542 0.000275
543 0.000289
544 0.000310
545 0.000322
546 0.000320
547 0.000308
548 0.000291
549 0.000288
550 0.000285
551 0.000290
552 0.000283
553 0.000291
554 0.000292
555 0.000290
556 0.000295
557 0.000287
558 0.000283
559 0.000268
560 0.000262
561 0.000261
562 0.000240
563 0.000217
564 0.000210
565 0.000214
566 0.000212
567 0.000220
568 0.000211
569 0.000198
570 0.000183
571 0.000166
572 0.000179
573 0.000191
574 0.000200
575 0.000203
576 0.000205
577 0.000215
578 0.000214
579 0.000218
580 0.000230
581 0.000243
582 0.000243
583 0.000259
584 0.000269
585 0.000269
586 0.000274
587 0.000264
588 0.000256
589 0.000240
590 0.000225
591 0.000221
592 0.000218
593 0.000213
594 0.000205
595 0.000204
596 0.000202
597 0.000192
598 0.000176
599 0.000157
600 0.000133
601 0.000114
602 0.000105
603 0.000099
604 0.000098
605 0.000095
606 0.000094
607 0.000081
608 0.000071
609 0.000065
610 0.000080
611 0.000083
612 0.000081
613 0.000082
614 0.000086
615 0.000092
616 0.000099
617 0.000103
618 0.000114
619 0.000127
620 0.000132
621 0.000133
622 0.000134
623 0.000129
624 0.000122
625 0.000127
626 0.000132
627 0.000133
628 0.000137
629 0.000136
630 0.000126
631 0.000126
632 0.000132
633 0.000141
634 0.000148
635 0.000150
636 0.000153
637 0.000168
638 0.000177
639 0.000185
640 0.000201
641 0.000212
642 0.000228
643 0.000241
644 0.000247
645 0.000246
646 0.000241
647 0.000246
648 0.000244
649 0.000247
650 0.000243
651 0.000238
652 0.000239
653 0.000228
654 0.000224
655 0.000228
656 0.000224
657 0.000203
658 0.000182
659 0.000172
660 0.000157
661 0.000153
662 0.000162
663 0.000166
664 0.000179
665 0.000192
666 0.000209
667 0.000222
668 0.000228
669 0.000229
670 0.000233
671 0.000234
672 0.000238
673 0.000234
674 0.000239
675 0.000250
676 0.000273
677 0.000295
678 0.000295
679 0.000286
680 0.000271
681 0.000261
682 0.000251
683 0.000245
684 0.000236
685 0.000231
686 0.000229
687 0.000219
688 0.000212
689 0.000200
690 0.000183
691 0.000174
692 0.000167
693 0.000165
694 0.000152
695 0.000149
696 0.000151
697 0.000167
698 0.000180
699 0.000190
700 0.000195
701 0.000201
702 0.000213
703 0.000226
704 0.000242
705 0.000244
706 0.000244
707 0.000253
708 0.000262
709 0.000277
710 0.000288
711 0.000297
712 0.000290
713 0.000284
714 0.000279
715 0.000282
716 0.000289
717 0.000286
718 0.000286
719 0.000284
720 0.000285
721 0.000286
722 0.000295
723 0.000303
724 0.000305
725 0.000316
726 0.000325
727 0.000329
728 0.000336
729 0.000337
730 0.000334
731 0.000332
732 0.000329
733 0.000325
734 0.000329
735 0.000330
736 0.000335
737 0.000343
738 0.000351
739 0.000348
740 0.000340
741 0.000334
742 0.000319
743 0.000305
744 0.000284
745 0.000274
746 0.000265
747 0.000254
748 0.000244
749 0.000232
750 0.000219
751 0.000210
752 0.000202
753 0.000197
754 0.000188
755 0.000177
756 0.000167
757 0.000163
758 0.000160
759 0.000164
760 0.000160
761 0.000155
762 0.000145
763 0.000139
764 0.000140
765 0.000143
766 0.000148
767 0.000149
768 0.000150
769 0.000145
770 0.000134
771 0.000125
772 0.000123
773 0.000119
774 0.000112
775 0.000103
776 0.000094
777 0.000089
778 0.000083
779 0.000082
780 0.000079
781 0.000075
782 0.000071
783 0.000060
784 0.000056
785 0.000051
786 0.000050
787 0.000052
788 0.000051
789 0.000045
790 0.000035
791 0.000035
792 0.000043
793 0.000046
794 0.000053
795 0.000054
796 0.000051
797 0.000053
798 0.000055
799 0.000059
800 0.000064
801 0.000068
802 0.000078
803 0.000080
804 0.000080
805 0.000078
806 0.000078
807 0.000081
808 0.000087
809 0.000095
