# i correlation
1 0.002530
2 0.002360
3 0.002216
4 0.002088
5 0.001998
6 0.001922
7 0.001860
8 0.001803
9 0.001749
10 0.001694
11 0.001673
12 0.001653
13 0.001637
14 0.001639
15 0.001637
16 0.001632
17 0.001620
18 0.001627
19 0.001631
20 0.001640
21 0.001644
22 0.001621
23 0.001574
24 0.001547
25 0.001535
26 0.001526
27 0.001519
28 0.001512
29 0.001509
30 0.001488
31 0.001463
32 0.001472
33 0.001490
34 0.001497
35 0.001509
36 0.001525
37 0.001534
38 0.001547
39 0.001538
40 0.001508
41 0.001491
42 0.001464
43 0.001467
44 0.001465
45 0.001463
46 0.001464
47 0.001454
48 0.001439
49 0.001423
50 0.001415
51 0.001396
52 0.001388
53 0.001395
54 0.001394
55 0.001377
56 0.001349
57 0.001348
58 0.001348
59 0.001351
60 0.001362
61 0.001362
62 0.001345
63 0.001323
64 0.001321
65 0.001346
66 0.001376
67 0.001383
68 0.001381
69 0.001374
70 0.001350
71 0.001351
72 0.001350
73 0.001332
74 0.001315
75 0.001298
76 0.001263
77 0.001254
78 0.001249
79 0.001244
80 0.001256
81 0.001253
82 0.001248
83 0.001240
84 0.001228
85 0.001201
86 0.001189
87 0.001165
88 0.001151
89 0.001139
90 0.001137
91 0.001137
92 0.001139
93 0.001142
94 0.001119
95 0.001091
96 0.001060
97 0.001034
98 0.001009
99 0.000994
100 0.000993
101 0.000984
102 0.000971
103 0.000973
104 0.000994
105 0.001002
106 0.001000
107 0.000995
108 0.000987
109 0.001010
110 0.001012
111 0.001012
112 0.001009
113 0.000983
114 0.000947
115 0.000918
116 0.000902
117 0.000893
118 0.000896
119 0.000895
120 0.000898
121 0.000897
122 0.000903
123 0.000899
124 0.000899
125 0.000902
126 0.000911
127 0.000934
128 0.000922
129 0.000926
130 0.000930
131 0.000935
132 0.000940
133 0.000934
134 0.000925
135 0.000887
136 0.000863
137 0.000827
138 0.000808
139 0.000783
140 0.000768
141 0.000760
142 0.000774
143 0.000786
144 0.000793
145 0.000816
146 0.000841
147 0.000844
148 0.000829
149 0.000813
150 0.000796
151 0.000790
152 0.000773
153 0.000754
154 0.000719
155 0.000700
156 0.000677
157 0.000664
158 0.000649
159 0.000624
160 0.000624
161 0.000617
162 0.000623
163 0.000621
164 0.000636
165 0.000646
166 0.000637
167 0.000630
168 0.000644
169 0.000654
170 0.000664
171 0.000688
172 0.000712
173 0.000715
174 0.000713
175 0.000704
176 0.000711
177 0.000735
178 0.000755
179 0.000773
180 0.000769
181 0.000753
182 0.000739
183 0.000743
184 0.000759
185 0.000755
186 0.000761
187 0.000773
188 0.000769
189 0.000752
190 0.000741
191 0.000723
192 0.000717
193 0.000722
194 0.000714
195 0.000703
196 0.000698
197 0.000702
198 0.000705
199 0.000715
200 0.000721
201 0.000715
202 0.000698
203 0.000682
204 0.000677
205 0.000682
206 0.000693
207 0.000700
208 0.000690
209 0.000676
210 0.000669
211 0.000665
212 0.000671
213 0.000677
214 0.000684
215 0.000697
216 0.000699
217 0.000690
218 0.000672
219 0.000648
220 0.000617
221 0.000612
222 0.000616
223 0.000612
224 0.000607
225 0.000601
226 0.000600
227 0.000595
228 0.000577
229 0.000563
230 0.000547
231 0.000546
232 0.000533
233 0.000520
234 0.000512
235 0.000500
236 0.000503
237 0.000515
238 0.000510
239 0.000500
240 0.000489
241 0.000473
242 0.000461
243 0.000464
244 0.000455
245 0.000456
246 0.000462
247 0.000444
248 0.000445
249 0.000448
250 0.000432
251 0.000433
252 0.000444
253 0.000447
254 0.000461
255 0.000464
256 0.000448
257 0.000436
258 0.000413
259 0.000379
260 0.000354
261 0.000336
262 0.000323
263 0.000306
264 0.000312
265 0.000330
266 0.000333
267 0.000342
268 0.000348
269 0.000375
270 0.000392
271 0.000393
272 0.000393
273 0.000394
274 0.000405
275 0.000425
276 0.000453
277 0.000479
278 0.000505
279 0.000530
280 0.000544
281 0.000550
282 0.000536
283 0.000521
284 0.000505
285 0.000469
286 0.000441
287 0.000435
288 0.000421
289 0.000427
290 0.000437
291 0.000443
292 0.000448
293 0.000441
294 0.000432
295 0.000424
296 0.000427
297 0.000425
298 0.000428
299 0.000441
300 0.000428
301 0.000404
302 0.000380
303 0.000367
304 0.000352
305 0.000348
306 0.000352
307 0.000341
308 0.000335
309 0.000336
310 0.000338
311 0.000338
312 0.000329
313 0.000325
314 0.000329
315 0.000343
316 0.000349
317 0.000366
318 0.000374
319 0.000379
320 0.000373
321 0.000361
322 0.000348
323 0.000344
324 0.000344
325 0.000349
326 0.000351
327 0.000349
328 0.000334
329 0.000321
330 0.000321
331 0.000308
332 0.000297
333 0.000305
334 0.000323
335 0.000345
336 0.000358
337 0.000363
338 0.000360
339 0.000357
340 0.000340
341 0.000327
342 0.000317
343 0.000300
344 0.000282
345 0.000285
346 0.000298
347 0.000304
348 0.000325
349 0.000341
350 0.000361
351 0.000359
352 0.000362
353 0.000370
354 0.000380
355 0.000383
356 0.000395
357 0.000414
358 0.000430
359 0.000437
360 0.000443
361 0.000468
362 0.000479
363 0.000493
364 0.000515
365 0.000535
366 0.000542
367 0.000540
368 0.000534
369 0.000515
370 0.000512
371 0.000507
372 0.000505
373 0.000488
374 0.000483
375 0.000481
376 0.000469
377 0.000455
378 0.000443
379 0.000432
380 0.000419
381 0.000414
382 0.000400
383 0.000390
384 0.000399
385 0.000412
386 0.000431
387 0.000442
388 0.000447
389 0.000439
390 0.000419
391 0.000416
392 0.000397
393 0.000384
394 0.000375
395 0.000376
396 0.000385
397 0.000378
398 0.000375
399 0.000388
400 0.000421
401 0.000454
402 0.000492
403 0.000515
404 0.000522
405 0.000529
406 0.000515
407 0.000508
408 0.000504
409 0.000498
410 0.000499
411 0.000493
412 0.000479
413 0.000469
414 0.000466
415 0.000465
416 0.000477
417 0.000479
418 0.000472
419 0.000459
420 0.000448
421 0.000443
422 0.000452
423 0.000462
424 0.000467
425 0.000476
426 0.000482
427 0.000482
428 0.000487
429 0.000481
430 0.000472
431 0.000467
432 0.000459
433 0.000453
434 0.000459
435 0.000454
436 0.000450
437 0.000443
438 0.000440
439 0.000446
440 0.000437
441 0.000447
442 0.000450
443 0.000456
444 0.000451
445 0.000447
446 0.000436
447 0.000427
448 0.000420
449 0.000418
450 0.000404
451 0.000389
452 0.000384
453 0.000381
454 0.000380
455 0.000389
456 0.000389
457 0.000403
458 0.000405
459 0.000398
460 0.000391
461 0.000393
462 0.000395
463 0.000397
464 0.000375
465 0.000338
466 0.000300
467 0.000283
468 0.000282
469 0.000283
470 0.000308
471 0.000316
472 0.000307
473 0.000299
474 0.000294
475 0.000287
476 0.000287
477 0.000301
478 0.000313
479 0.000324
480 0.000328
481 0.000324
482 0.000326
483 0.000334
484 0.000344
485 0.000351
486 0.000359
487 0.000356
488 0.000363
489 0.000363
490 0.000367
491 0.000375
492 0.000388
493 0.000388
494 0.000390
495 0.000386
496 0.000380
497 0.000380
498 0.000380
499 0.000371
500 0.000363
501 0.000348
502 0.000339
503 0.000338
504 0.000316
505 0.000304
506 0.000320
507 0.000328
508 0.000343
509 0.000337
510 0.000338
511 0.000334
512 0.000317
513 0.000309
514 0.000316
515 0.000303
516 0.000288
517 0.000278
518 0.000272
519 0.000250
520 0.000229
521 0.000212
522 0.000216
523 0.000226
524 0.000211
525 0.000190
526 0.000164
527 0.000163
528 0.000162
529 0.000168
530 0.000158
531 0.000147
532 0.000152
533 0.000156
534 0.000158
535 0.000175
536 0.000195
537 0.000197
538 0.000185
539 0.000173
540 0.000168
541 0.000157
542 0.000144
543 0.000144
544 0.000147
545 0.000151
546 0.000159
547 0.000174
548 0.000191
549 0.000213
550 0.000225
551 0.000239
552 0.000234
553 0.000230
554 0.000235
555 0.000230
556 0.000238
557 0.000236
558 0.000233
559 0.000206
560 0.000185
561 0.000178
562 0.000171
563 0.000175
564 0.000186
565 0.000195
566 0.000204
567 0.000207
568 0.000223
569 0.000234
570 0.000238
571 0.000236
572 0.000234
573 0.000229
574 0.000219
575 0.000207
576 0.000186
577 0.000158
578 0.000128
579 0.000120
580 0.000112
581 0.000098
582 0.000090
583 0.000091
584 0.000083
585 0.000069
586 0.000063
587 0.000051
588 0.000060
589 0.000075
590 0.000084
591 0.000084
592 0.000073
593 0.000058
594 0.000061
595 0.000062
596 0.000059
597 0.000052
598 0.000034
599 0.000016
600 0.000007
601 0.000003
602 0.000006
603 0.000022
604 0.000037
605 0.000034
606 0.000028
607 0.000025
608 0.000016
609 0.000010
610 -0.000008
611 -0.000020
612 -0.000024
613 -0.000028
614 -0.000037
615 -0.000020
616 -0.000012
617 0.000007
618 0.000022
619 0.000015
620 0.000008
621 -0.000012
622 -0.000023
623 -0.000017
624 -0.000014
625 -0.000016
626 -0.000025
627 -0.000032
628 -0.000039
629 -0.000041
630 -0.000049
631 -0.000058
632 -0.000061
633 -0.000058
634 -0.000058
635 -0.000060
636 -0.000066
637 -0.000056
638 -0.000062
639 -0.000057
640 -0.000043
641 -0.000028
642 -0.000016
643 -0.000015
644 -0.000018
645 -0.000023
646 -0.000041
647 -0.000062
648 -0.000073
649 -0.000089
650 -0.000090
651 -0.000093
652 -0.000097
653 -0.000099
654 -0.000104
655 -0.000114
656 -0.000111
657 -0.000108
658 -0.000108
659 -0.000113
660 -0.000118
661 -0.000113
662 -0.000112
663 -0.000104
664 -0.000104
665 -0.000104
666 -0.000112
667 -0.000127
668 -0.000143
669 -0.000148
670 -0.000154
671 -0.000172
672 -0.000190
673 -0.000210
674 -0.000216
675 -0.000219
676 -0.000225
677 -0.000227
678 -0.000212
679 -0.000205
680 -0.000186
681 -0.000177
682 -0.000176
683 -0.000172
684 -0.000166
685 -0.000165
686 -0.000163
687 -0.000158
688 -0.000167
689 -0.000178
690 -0.000187
691 -0.000195
692 -0.000198
693 -0.000203
694 -0.000204
695 -0.000201
696 -0.000194
697 -0.000185
698 -0.000182
699 -0.000176
700 -0.000166
701 -0.000161
702 -0.000163
703 -0.000168
704 -0.000176
705 -0.000186
706 -0.000195
707 -0.000195
708 -0.000193
709 -0.000197
710 -0.000199
711 -0.000204
712 -0.000201
713 -0.000195
714 -0.000198
715 -0.000194
716 -0.000186
717 -0.000180
718 -0.000175
719 -0.000175
720 -0.000175
721 -0.000175
722 -0.000169
723 -0.000166
724 -0.000162
725 -0.000155
726 -0.000154
727 -0.000150
728 -0.000144
729 -0.000138
730 -0.000138
731 -0.000147
732 -0.000149
733 -0.000141
734 -0.000130
735 -0.000115
736 -0.000108
737 -0.000098
738 -0.000093
739 -0.000095
740 -0.000086
741 -0.000074
742 -0.000070
743 -0.000070
744 -0.000076
745 -0.000082
746 -0.000085
747 -0.000099
748 -0.000116
749 -0.000123
750 -0.000130
751 -0.000126
752 -0.000123
753 -0.000123
754 -0.000115
755 -0.000116
756 -0.000120
757 -0.000121
758 -0.000124
759 -0.000128
760 -0.000123
761 -0.000110
762 -0.000092
763 -0.000080
764 -0.000078
765 -0.000082
766 -0.000079
767 -0.000078
768 -0.000071
769 -0.000068
770 -0.000064
771 -0.000059
772 -0.000057
773 -0.000047
774 -0.000044
775 -0.000037
776 -0.000037
777 -0.000042
778 -0.000045
779 -0.000039
780 -0.000036
781 -0.000035
782 -0.000033
783 -0.000037
784 -0.000046
785 -0.000059
786 -0.000065
787 -0.000058
788 -0.000049
789 -0.000033
790 -0.000017
791 -0.000011
792 -0.000011
793 -0.000011
794 -0.000008
795 0.000001
796 0.000005
797 0.000009
798 0.000004
799 -0.000007
800 -0.000018
801 -0.000031
802 -0.000049
803 -0.000060
804 -0.000073
805 -0.000080
806 -0.000092
807 -0.000098
808 -0.000102
809 -0.000098
