# i correlation
1 0.002956
2 0.002757
3 0.002598
4 0.002481
5 0.002385
6 0.002295
7 0.002199
8 0.002095
9 0.002004
10 0.001913
11 0.001836
12 0.001774
13 0.001719
14 0.001664
15 0.001612
16 0.001555
17 0.001503
18 0.001452
19 0.001427
20 0.001401
21 0.001365
22 0.001338
23 0.001321
24 0.001326
25 0.001328
26 0.001339
27 0.001351
28 0.001359
29 0.001383
30 0.001393
31 0.001385
32 0.001380
33 0.001384
34 0.001394
35 0.001400
36 0.001387
37 0.001377
38 0.001361
39 0.001353
40 0.001337
41 0.001330
42 0.001309
43 0.001271
44 0.001247
45 0.001225
46 0.001216
47 0.001208
48 0.001210
49 0.001219
50 0.001214
51 0.001197
52 0.001196
53 0.001198
54 0.001190
55 0.001154
56 0.001121
57 0.001110
58 0.001098
59 0.001063
60 0.001058
61 0.001053
62 0.001040
63 0.001035
64 0.001046
65 0.001045
66 0.001058
67 0.001056
68 0.001064
69 0.001075
70 0.001062
71 0.001062
72 0.001061
73 0.001058
74 0.001042
75 0.001018
76 0.000996
77 0.000974
78 0.000968
79 0.000973
80 0.000973
81 0.000984
82 0.001000
83 0.001024
84 0.001032
85 0.001028
86 0.001014
87 0.001019
88 0.001022
89 0.001012
90 0.001001
91 0.000980
92 0.000959
93 0.000947
94 0.000928
95 0.000926
96 0.000905
97 0.000886
98 0.000891
99 0.000899
100 0.000894
101 0.000894
102 0.000889
103 0.000879
104 0.000843
105 0.000821
106 0.000792
107 0.000768
108 0.000734
109 0.000705
110 0.000691
111 0.000692
112 0.000705
113 0.000717
114 0.000727
115 0.000744
116 0.000756
117 0.000757
118 0.000767
119 0.000776
120 0.000762
121 0.000770
122 0.000781
123 0.000784
124 0.000773
125 0.000766
126 0.000754
127 0.000754
128 0.000765
129 0.000787
130 0.000791
131 0.000787
132 0.000771
133 0.000745
134 0.000736
135 0.000734
136 0.000740
137 0.000747
138 0.000753
139 0.000762
140 0.000775
141 0.000784
142 0.000780
143 0.000775
144 0.000779
145 0.000786
146 0.000778
147 0.000769
148 0.000776
149 0.000771
150 0.000741
151 0.000711
152 0.000712
153 0.000729
154 0.000746
155 0.000771
156 0.000787
157 0.000797
158 0.000801
159 0.000799
160 0.000802
161 0.000803
162 0.000794
163 0.000796
164 0.000818
165 0.000818
166 0.000796
167 0.000785
168 0.000788
169 0.000814
170 0.000840
171 0.000846
172 0.000843
173 0.000838
174 0.000843
175 0.000837
176 0.000847
177 0.000824
178 0.000809
179 0.000801
180 0.000798
181 0.000803
182 0.000795
183 0.000787
184 0.000774
185 0.000766
186 0.000746
187 0.000740
188 0.000718
189 0.000700
190 0.000681
191 0.000652
192 0.000617
193 0.000597
194 0.000593
195 0.000579
196 0.000555
197 0.000524
198 0.000515
199 0.000487
200 0.000476
201 0.000466
202 0.000454
203 0.000432
204 0.000411
205 0.000382
206 0.000365
207 0.000353
208 0.000346
209 0.000352
210 0.000370
211 0.000390
212 0.000407
213 0.000434
214 0.000458
215 0.000473
216 0.000510
217 0.000554
218 0.000595
219 0.000599
220 0.000585
221 0.000564
222 0.000558
223 0.000567
224 0.000581
225 0.000592
226 0.000588
227 0.000589
228 0.000589
229 0.000585
230 0.000569
231 0.000559
232 0.000553
233 0.000554
234 0.000549
235 0.000544
236 0.000538
237 0.000535
238 0.000529
239 0.000523
240 0.000515
241 0.000518
242 0.000539
243 0.000561
244 0.000570
245 0.000569
246 0.000555
247 0.000557
248 0.000561
249 0.000544
250 0.000540
251 0.000548
252 0.000551
253 0.000563
254 0.000578
255 0.000588
256 0.000585
257 0.000576
258 0.000564
259 0.000559
260 0.000564
261 0.000559
262 0.000552
263 0.000537
264 0.000534
265 0.000531
266 0.000536
267 0.000549
268 0.000549
269 0.000555
270 0.000567
271 0.000587
272 0.000602
273 0.000600
274 0.000604
275 0.000591
276 0.000587
277 0.000600
278 0.000597
279 0.000589
280 0.000563
281 0.000555
282 0.000544
283 0.000545
284 0.000539
285 0.000540
286 0.000557
287 0.000556
288 0.000548
289 0.000550
290 0.000551
291 0.000551
292 0.000549
293 0.000553
294 0.000550
295 0.000554
296 0.000562
297 0.000588
298 0.000600
299 0.000609
300 0.000614
301 0.000628
302 0.000629
303 0.000631
304 0.000611
305 0.000592
306 0.000569
307 0.000554
308 0.000548
309 0.000534
310 0.000519
311 0.000528
312 0.000543
313 0.000541
314 0.000529
315 0.000532
316 0.000540
317 0.000550
318 0.000565
319 0.000569
320 0.000566
321 0.000558
322 0.000552
323 0.000541
324 0.000546
325 0.000562
326 0.000574
327 0.000585
328 0.000586
329 0.000588
330 0.000589
331 0.000598
332 0.000607
333 0.000600
334 0.000596
335 0.000599
336 0.000593
337 0.000575
338 0.000581
339 0.000580
340 0.000581
341 0.000564
342 0.000540
343 0.000525
344 0.000497
345 0.000485
346 0.000470
347 0.000476
348 0.000484
349 0.000480
350 0.000467
351 0.000447
352 0.000437
353 0.000429
354 0.000443
355 0.000462
356 0.000461
357 0.000474
358 0.000489
359 0.000510
360 0.000519
361 0.000528
362 0.000524
363 0.000517
364 0.000511
365 0.000530
366 0.000547
367 0.000558
368 0.000563
369 0.000573
370 0.000571
371 0.000564
372 0.000576
373 0.000586
374 0.000585
375 0.000554
376 0.000533
377 0.000509
378 0.000486
379 0.000462
380 0.000437
381 0.000403
382 0.000380
383 0.000364
384 0.000361
385 0.000356
386 0.000346
387 0.000342
388 0.000340
389 0.000328
390 0.000311
391 0.000297
392 0.000291
393 0.000287
394 0.000274
395 0.000257
396 0.000269
397 0.000276
398 0.000283
399 0.000293
400 0.000312
401 0.000335
402 0.000353
403 0.000364
404 0.000361
405 0.000359
406 0.000358
407 0.000349
408 0.000364
409 0.000370
410 0.000379
411 0.000379
412 0.000380
413 0.000379
414 0.000383
415 0.000393
416 0.000386
417 0.000379
418 0.000377
419 0.000374
420 0.000369
421 0.000362
422 0.000354
423 0.000349
424 0.000339
425 0.000332
426 0.000321
427 0.000321
428 0.000325
429 0.000330
430 0.000348
431 0.000368
432 0.000379
433 0.000379
434 0.000402
435 0.000407
436 0.000411
437 0.000431
438 0.000447
439 0.000447
440 0.000449
441 0.000457
442 0.000461
443 0.000460
444 0.000443
445 0.000436
446 0.000437
447 0.000425
448 0.000407
449 0.000374
450 0.000356
451 0.000348
452 0.000345
453 0.000346
454 0.000365
455 0.000375
456 0.000374
457 0.000382
458 0.000387
459 0.000397
460 0.000423
461 0.000455
462 0.000476
463 0.000487
464 0.000490
465 0.000475
466 0.000481
467 0.000486
468 0.000502
469 0.000507
470 0.000515
471 0.000534
472 0.000565
473 0.000594
474 0.000598
475 0.000601
476 0.000596
477 0.000588
478 0.000577
479 0.000572
480 0.000553
481 0.000524
482 0.000487
483 0.000457
484 0.000441
485 0.000426
486 0.000419
487 0.000427
488 0.000435
489 0.000429
490 0.000427
491 0.000428
492 0.000426
493 0.000422
494 0.000411
495 0.000415
496 0.000419
497 0.000429
498 0.000432
499 0.000428
500 0.000420
501 0.000425
502 0.000420
503 0.000435
504 0.000438
505 0.000436
506 0.000441
507 0.000444
508 0.000460
509 0.000468
510 0.000477
511 0.000483
512 0.000500
513 0.000509
514 0.000529
515 0.000559
516 0.000577
517 0.000590
518 0.000605
519 0.000611
520 0.000613
521 0.000611
522 0.000609
523 0.000599
524 0.000593
525 0.000598
526 0.000599
527 0.000602
528 0.000600
529 0.000607
530 0.000621
531 0.000614
532 0.000606
533 0.000605
534 0.000587
535 0.000569
536 0.000561
537 0.000551
538 0.000545
539 0.000543
540 0.000525
541 0.000502
542 0.000498
543 0.000486
544 0.000494
545 0.000506
546 0.000517
547 0.000529
548 0.000524
549 0.000524
550 0.000530
551 0.000532
552 0.000538
553 0.000546
554 0.000558
555 0.000572
556 0.000578
557 0.000581
558 0.000588
559 0.000599
560 0.000596
561 0.000581
562 0.000545
563 0.000517
564 0.000490
565 0.000465
566 0.000444
567 0.000414
568 0.000382
569 0.000347
570 0.000309
571 0.000274
572 0.000244
573 0.000212
574 0.000174
575 0.000141
576 0.000120
577 0.000109
578 0.000094
579 0.000087
580 0.000088
581 0.000091
582 0.000102
583 0.000118
584 0.000123
585 0.000124
586 0.000139
587 0.000146
588 0.000152
589 0.000162
590 0.000169
591 0.000171
592 0.000165
593 0.000165
594 0.000161
595 0.000160
596 0.000159
597 0.000142
598 0.000130
599 0.000127
600 0.000126
601 0.000127
602 0.000129
603 0.000126
604 0.000119
605 0.000103
606 0.000082
607 0.000064
608 0.000052
609 0.000047
610 0.000057
611 0.000067
612 0.000061
613 0.000050
614 0.000028
615 0.000024
616 0.000042
617 0.000050
618 0.000052
619 0.000069
620 0.000081
621 0.000098
622 0.000106
623 0.000099
624 0.000098
625 0.000098
626 0.000100
627 0.000105
628 0.000109
629 0.000114
630 0.000117
631 0.000119
632 0.000124
633 0.000129
634 0.000134
635 0.000146
636 0.000169
637 0.000192
638 0.000199
639 0.000194
640 0.000182
641 0.000162
642 0.000143
643 0.000128
644 0.000114
645 0.000102
646 0.000097
647 0.000090
648 0.000093
649 0.000097
650 0.000094
651 0.000087
652 0.000078
653 0.000067
654 0.000054
655 0.000056
656 0.000069
657 0.000073
658 0.000068
659 0.000056
660 0.000056
661 0.000054
662 0.000048
663 0.000036
664 0.000018
665 0.000000
666 -0.000012
667 -0.000024
668 -0.000041
669 -0.000043
670 -0.000042
671 -0.000036
672 -0.000035
673 -0.000025
674 -0.000021
675 -0.000017
676 -0.000011
677 0.000002
678 0.000002
679 0.000009
680 0.000010
681 0.000005
682 0.000014
683 0.000023
684 0.000038
685 0.000051
686 0.000057
687 0.000065
688 0.000082
689 0.000096
690 0.000094
691 0.000094
692 0.000086
693 0.000067
694 0.000056
695 0.000054
696 0.000045
697 0.000042
698 0.000035
699 0.000036
700 0.000037
701 0.000039
702 0.000036
703 0.000042
704 0.000056
705 0.000063
706 0.000072
707 0.000070
708 0.000085
709 0.000097
710 0.000094
711 0.000098
712 0.000107
713 0.000107
714 0.000118
715 0.000121
716 0.000118
717 0.000115
718 0.000121
719 0.000126
720 0.000133
721 0.000136
722 0.000127
723 0.000120
724 0.000110
725 0.000099
726 0.000097
727 0.000100
728 0.000106
729 0.000110
730 0.000107
731 0.000102
732 0.000095
733 0.000096
734 0.000098
735 0.000102
736 0.000098
737 0.000089
738 0.000085
739 0.000082
740 0.000088
741 0.000093
742 0.000089
743 0.000075
744 0.000047
745 0.000037
746 0.000033
747 0.000025
748 0.000022
749 0.000021
750 0.000021
751 0.000021
752 0.000016
753 0.000015
754 0.000004
755 0.000001
756 -0.000006
757 -0.000009
758 -0.000007
759 -0.000012
760 -0.000024
761 -0.000036
762 -0.000045
763 -0.000043
764 -0.000032
765 -0.000013
766 -0.000002
767 -0.000002
768 -0.000002
769 0.000003
770 0.000017
771 0.000036
772 0.000058
773 0.000073
774 0.000080
775 0.000092
776 0.000099
777 0.000115
778 0.000125
779 0.000121
780 0.000118
781 0.000120
782 0.000125
783 0.000125
784 0.000138
785 0.000145
786 0.000153
787 0.000158
788 0.000159
789 0.000160
790 0.000165
791 0.000173
792 0.000185
793 0.000188
794 0.000188
795 0.000191
796 0.000188
797 0.000181
798 0.000175
799 0.000176
800 0.000187
801 0.000194
802 0.000199
803 0.000196
804 0.000200
805 0.000193
806 0.000193
807 0.000193
808 0.000192
809 0.000186
