# i correlation
1 0.002227
2 0.002039
3 0.001876
4 0.001749
5 0.001636
6 0.001526
7 0.001420
8 0.001350
9 0.001292
10 0.001207
11 0.001123
12 0.001048
13 0.001004
14 0.000968
15 0.000930
16 0.000910
17 0.000895
18 0.000889
19 0.000870
20 0.000854
21 0.000841
22 0.000846
23 0.000838
24 0.000851
25 0.000872
26 0.000886
27 0.000895
28 0.000894
29 0.000879
30 0.000858
31 0.000850
32 0.000837
33 0.000830
34 0.000812
35 0.000776
36 0.000761
37 0.000768
38 0.000756
39 0.000749
40 0.000746
41 0.000746
42 0.000761
43 0.000783
44 0.000787
45 0.000813
46 0.000837
47 0.000866
48 0.000895
49 0.000933
50 0.000969
51 0.001000
52 0.000998
53 0.000994
54 0.000988
55 0.001006
56 0.001027
57 0.001047
58 0.001055
59 0.001027
60 0.000997
61 0.000963
62 0.000935
63 0.000915
64 0.000906
65 0.000911
66 0.000908
67 0.000916
68 0.000910
69 0.000895
70 0.000888
71 0.000886
72 0.000878
73 0.000861
74 0.000865
75 0.000886
76 0.000896
77 0.000887
78 0.000881
79 0.000894
80 0.000904
81 0.000878
82 0.000867
83 0.000851
84 0.000842
85 0.000822
86 0.000793
87 0.000757
88 0.000734
89 0.000718
90 0.000711
91 0.000713
92 0.000709
93 0.000724
94 0.000732
95 0.000741
96 0.000757
97 0.000760
98 0.000751
99 0.000742
100 0.000743
101 0.000747
102 0.000754
103 0.000744
104 0.000738
105 0.000734
106 0.000739
107 0.000738
108 0.000741
109 0.000761
110 0.000776
111 0.000787
112 0.000794
113 0.000803
114 0.000819
115 0.000812
116 0.000806
117 0.000793
118 0.000771
119 0.000758
120 0.000734
121 0.000714
122 0.000724
123 0.000725
124 0.000694
125 0.000677
126 0.000662
127 0.000657
128 0.000636
129 0.000606
130 0.000576
131 0.000564
132 0.000543
133 0.000528
134 0.000513
135 0.000514
136 0.000526
137 0.000541
138 0.000552
139 0.000559
140 0.000566
141 0.000551
142 0.000537
143 0.000533
144 0.000539
145 0.000539
146 0.000551
147 0.000572
148 0.000584
149 0.000607
150 0.000631
151 0.000663
152 0.000679
153 0.000693
154 0.000717
155 0.000716
156 0.000734
157 0.000733
158 0.000731
159 0.000755
160 0.000784
161 0.000799
162 0.000799
163 0.000775
164 0.000773
165 0.000789
166 0.000776
167 0.000752
168 0.000713
169 0.000675
170 0.000665
171 0.000655
172 0.000656
173 0.000654
174 0.000651
175 0.000637
176 0.000631
177 0.000598
178 0.000572
179 0.000559
180 0.000546
181 0.000536
182 0.000527
183 0.000523
184 0.000513
185 0.000506
186 0.000519
187 0.000532
188 0.000549
189 0.000564
190 0.000587
191 0.000595
192 0.000594
193 0.000586
194 0.000573
195 0.000555
196 0.000538
197 0.000522
198 0.000515
199 0.000489
200 0.000452
201 0.000420
202 0.000407
203 0.000398
204 0.000375
205 0.000345
206 0.000323
207 0.000321
208 0.000312
209 0.000326
210 0.000320
211 0.000320
212 0.000317
213 0.000317
214 0.000312
215 0.000320
216 0.000351
217 0.000389
218 0.000440
219 0.000484
220 0.000512
221 0.000515
222 0.000556
223 0.000600
224 0.000628
225 0.000657
226 0.000674
227 0.000687
228 0.000691
229 0.000703
230 0.000692
231 0.000706
232 0.000723
233 0.000729
234 0.000705
235 0.000669
236 0.000636
237 0.000621
238 0.000601
239 0.000574
240 0.000545
241 0.000512
242 0.000487
243 0.000459
244 0.000435
245 0.000431
246 0.000439
247 0.000446
248 0.000445
249 0.000439
250 0.000442
251 0.000450
252 0.000451
253 0.000447
254 0.000442
255 0.000437
256 0.000433
257 0.000419
258 0.000412
259 0.000415
260 0.000416
261 0.000398
262 0.000363
263 0.000342
264 0.000306
265 0.000287
266 0.000275
267 0.000262
268 0.000240
269 0.000236
270 0.000238
271 0.000245
272 0.000239
273 0.000247
274 0.000262
275 0.000274
276 0.000303
277 0.000327
278 0.000340
279 0.000343
280 0.000326
281 0.000316
282 0.000314
283 0.000323
284 0.000327
285 0.000324
286 0.000307
287 0.000316
288 0.000317
289 0.000308
290 0.000297
291 0.000288
292 0.000276
293 0.000270
294 0.000247
295 0.000224
296 0.000206
297 0.000203
298 0.000224
299 0.000244
300 0.000251
301 0.000258
302 0.000273
303 0.000294
304 0.000315
305 0.000321
306 0.000328
307 0.000340
308 0.000365
309 0.000390
310 0.000415
311 0.000429
312 0.000436
313 0.000442
314 0.000435
315 0.000435
316 0.000454
317 0.000467
318 0.000463
319 0.000438
320 0.000409
321 0.000382
322 0.000348
323 0.000308
324 0.000281
325 0.000272
326 0.000276
327 0.000273
328 0.000276
329 0.000270
330 0.000275
331 0.000279
332 0.000286
333 0.000290
334 0.000302
335 0.000327
336 0.000342
337 0.000350
338 0.000354
339 0.000348
340 0.000334
341 0.000324
342 0.000325
343 0.000316
344 0.000317
345 0.000316
346 0.000302
347 0.000285
348 0.000278
349 0.000275
350 0.000257
351 0.000230
352 0.000195
353 0.000178
354 0.000173
355 0.000171
356 0.000160
357 0.000152
358 0.000143
359 0.000141
360 0.000138
361 0.000113
362 0.000112
363 0.000119
364 0.000111
365 0.000097
366 0.000080
367 0.000066
368 0.000056
369 0.000075
370 0.000091
371 0.000104
372 0.000100
373 0.000099
374 0.000099
375 0.000096
376 0.000097
377 0.000091
378 0.000095
379 0.000105
380 0.000107
381 0.000106
382 0.000115
383 0.000130
384 0.000144
385 0.000159
386 0.000172
387 0.000189
388 0.000202
389 0.000207
390 0.000208
391 0.000206
392 0.000204
393 0.000219
394 0.000238
395 0.000248
396 0.000263
397 0.000279
398 0.000272
399 0.000273
400 0.000272
401 0.000250
402 0.000227
403 0.000195
404 0.000181
405 0.000170
406 0.000166
407 0.000164
408 0.000156
409 0.000158
410 0.000163
411 0.000167
412 0.000187
413 0.000212
414 0.000237
415 0.000254
416 0.000266
417 0.000271
418 0.000271
419 0.000265
420 0.000278
421 0.000297
422 0.000309
423 0.000295
424 0.000284
425 0.000282
426 0.000274
427 0.000267
428 0.000254
429 0.000231
430 0.000211
431 0.000192
432 0.000155
433 0.000125
434 0.000099
435 0.000085
436 0.000083
437 0.000083
438 0.000089
439 0.000091
440 0.000073
441 0.000047
442 0.000034
443 0.000019
444 0.000015
445 0.000035
446 0.000059
447 0.000090
448 0.000105
449 0.000128
450 0.000146
451 0.000167
452 0.000183
453 0.000194
454 0.000207
455 0.000225
456 0.000223
457 0.000222
458 0.000208
459 0.000179
460 0.000145
461 0.000124
462 0.000111
463 0.000108
464 0.000125
465 0.000133
466 0.000132
467 0.000136
468 0.000136
469 0.000143
470 0.000154
471 0.000174
472 0.000195
473 0.000200
474 0.000201
475 0.000194
476 0.000192
477 0.000184
478 0.000179
479 0.000179
480 0.000176
481 0.000174
482 0.000175
483 0.000171
484 0.000166
485 0.000165
486 0.000160
487 0.000136
488 0.000116
489 0.000106
490 0.000102
491 0.000093
492 0.000089
493 0.000093
494 0.000094
495 0.000105
496 0.000127
497 0.000156
498 0.000183
499 0.000193
500 0.000199
501 0.000204
502 0.000209
503 0.000214
504 0.000215
505 0.000212
506 0.000201
507 0.000195
508 0.000183
509 0.000176
510 0.000166
511 0.000163
512 0.000142
513 0.000133
514 0.000130
515 0.000125
516 0.000115
517 0.000101
518 0.000087
519 0.000079
520 0.000066
521 0.000058
522 0.000061
523 0.000053
524 0.000048
525 0.000037
526 0.000033
527 0.000035
528 0.000032
529 0.000048
530 0.000078
531 0.000115
532 0.000145
533 0.000162
534 0.000173
535 0.000192
536 0.000226
537 0.000236
538 0.000237
539 0.000232
540 0.000229
541 0.000235
542 0.000233
543 0.000224
544 0.000216
545 0.000202
546 0.000188
547 0.000182
548 0.000191
549 0.000197
550 0.000206
551 0.000215
552 0.000214
553 0.000216
554 0.000221
555 0.000217
556 0.000207
557 0.000184
558 0.000174
559 0.000162
560 0.000163
561 0.000166
562 0.000180
563 0.000188
564 0.000204
565 0.000219
566 0.000233
567 0.000239
568 0.000241
569 0.000238
570 0.000231
571 0.000217
572 0.000208
573 0.000213
574 0.000218
575 0.000219
576 0.000218
577 0.000215
578 0.000211
579 0.000200
580 0.000190
581 0.000189
582 0.000200
583 0.000203
584 0.000194
585 0.000181
586 0.000174
587 0.000176
588 0.000175
589 0.000173
590 0.000165
591 0.000159
592 0.000157
593 0.000153
594 0.000148
595 0.000143
596 0.000139
597 0.000132
598 0.000121
599 0.000119
600 0.000109
601 0.000112
602 0.000104
603 0.000106
604 0.000117
605 0.000121
606 0.000109
607 0.000098
608 0.000091
609 0.000093
610 0.000096
611 0.000113
612 0.000129
613 0.000152
614 0.000163
615 0.000168
616 0.000170
617 0.000168
618 0.000177
619 0.000191
620 0.000202
621 0.000217
622 0.000225
623 0.000235
624 0.000240
625 0.000238
626 0.000239
627 0.000236
628 0.000238
629 0.000241
630 0.000247
631 0.000249
632 0.000252
633 0.000265
634 0.000266
635 0.000252
636 0.000244
637 0.000239
638 0.000237
639 0.000220
640 0.000205
641 0.000190
642 0.000179
643 0.000169
644 0.000163
645 0.000164
646 0.000175
647 0.000189
648 0.000195
649 0.000187
650 0.000178
651 0.000152
652 0.000135
653 0.000127
654 0.000129
655 0.000131
656 0.000139
657 0.000144
658 0.000160
659 0.000164
660 0.000161
661 0.000166
662 0.000164
663 0.000156
664 0.000160
665 0.000158
666 0.000143
667 0.000125
668 0.000109
669 0.000102
670 0.000106
671 0.000108
672 0.000108
673 0.000111
674 0.000120
675 0.000127
676 0.000132
677 0.000124
678 0.000114
679 0.000108
680 0.000108
681 0.000110
682 0.000095
683 0.000084
684 0.000074
685 0.000058
686 0.000048
687 0.000056
688 0.000062
689 0.000078
690 0.000085
691 0.000078
692 0.000068
693 0.000059
694 0.000047
695 0.000043
696 0.000031
697 0.000029
698 0.000029
699 0.000026
700 0.000012
701 0.000006
702 -0.000007
703 -0.000013
704 -0.000010
705 0.000001
706 0.000010
707 0.000024
708 0.000035
709 0.000045
710 0.000043
711 0.000031
712 0.000026
713 0.000030
714 0.000039
715 0.000049
716 0.000054
717 0.000051
718 0.000051
719 0.000034
720 0.000017
721 0.000003
722 -0.000001
723 0.000001
724 0.000013
725 0.000024
726 0.000040
727 0.000055
728 0.000068
729 0.000079
730 0.000093
731 0.000106
732 0.000123
733 0.000130
734 0.000131
735 0.000129
736 0.000120
737 0.000105
738 0.000102
739 0.000092
740 0.000086
741 0.000069
742 0.000052
743 0.000040
744 0.000040
745 0.000037
746 0.000031
747 0.000020
748 0.000011
749 0.000004
750 -0.000014
751 -0.000037
752 -0.000048
753 -0.000055
754 -0.000056
755 -0.000048
756 -0.000041
757 -0.000028
758 -0.000021
759 -0.000026
760 -0.000034
761 -0.000041
762 -0.000044
763 -0.000036
764 -0.000026
765 -0.000020
766 -0.000019
767 -0.000018
768 -0.000023
769 -0.000024
770 -0.000027
771 -0.000027
772 -0.000028
773 -0.000024
774 -0.000022
775 -0.000015
776 -0.000023
777 -0.000032
778 -0.000045
779 -0.000060
780 -0.000066
781 -0.000074
782 -0.000077
783 -0.000060
784 -0.000040
785 -0.000021
786 -0.000004
787 0.000015
788 0.000027
789 0.000041
790 0.000045
791 0.000046
792 0.000048
793 0.000053
794 0.000052
795 0.000053
796 0.000045
797 0.000036
798 0.000023
799 0.000011
800 0.000005
801 0.000006
802 0.000014
803 0.000018
804 0.000020
805 0.000017
806 0.000015
807 0.000009
808 0.000004
809 0.000007
