# i correlation
1 0.002165
2 0.001984
3 0.001846
4 0.001727
5 0.001647
6 0.001602
7 0.001568
8 0.001539
9 0.001520
10 0.001488
11 0.001443
12 0.001413
13 0.001386
14 0.001339
15 0.001318
16 0.001305
17 0.001290
18 0.001288
19 0.001281
20 0.001265
21 0.001245
22 0.001247
23 0.001245
24 0.001232
25 0.001201
26 0.001187
27 0.001194
28 0.001197
29 0.001186
30 0.001186
31 0.001192
32 0.001201
33 0.001208
34 0.001207
35 0.001204
36 0.001197
37 0.001187
38 0.001182
39 0.001202
40 0.001209
41 0.001230
42 0.001249
43 0.001250
44 0.001240
45 0.001248
46 0.001236
47 0.001215
48 0.001196
49 0.001164
50 0.001153
51 0.001150
52 0.001147
53 0.001151
54 0.001156
55 0.001162
56 0.001152
57 0.001133
58 0.001120
59 0.001105
60 0.001096
61 0.001109
62 0.001111
63 0.001115
64 0.001119
65 0.001116
66 0.001106
67 0.001101
68 0.001086
69 0.001074
70 0.001088
71 0.001085
72 0.001091
73 0.001093
74 0.001096
75 0.001086
76 0.001078
77 0.001050
78 0.001005
79 0.000989
80 0.000993
81 0.000997
82 0.000994
83 0.000979
84 0.000975
85 0.000977
86 0.000962
87 0.000950
88 0.000949
89 0.000955
90 0.000970
91 0.000954
92 0.000947
93 0.000935
94 0.000938
95 0.000954
96 0.000966
97 0.000966
98 0.000945
99 0.000926
100 0.000901
101 0.000890
102 0.000904
103 0.000926
104 0.000930
105 0.000925
106 0.000911
107 0.000895
108 0.000895
109 0.000911
110 0.000929
111 0.000951
112 0.000988
113 0.001007
114 0.001002
115 0.000984
116 0.000971
117 0.000960
118 0.000953
119 0.000953
120 0.000942
121 0.000934
122 0.000925
123 0.000920
124 0.000919
125 0.000900
126 0.000887
127 0.000884
128 0.000887
129 0.000876
130 0.000848
131 0.000830
132 0.000812
133 0.000791
134 0.000755
135 0.000723
136 0.000711
137 0.000691
138 0.000681
139 0.000671
140 0.000673
141 0.000680
142 0.000691
143 0.000698
144 0.000695
145 0.000706
146 0.000728
147 0.000734
148 0.000728
149 0.000703
150 0.000677
151 0.000672
152 0.000655
153 0.000642
154 0.000648
155 0.000660
156 0.000646
157 0.000640
158 0.000635
159 0.000618
160 0.000618
161 0.000584
162 0.000544
163 0.000528
164 0.000526
165 0.000535
166 0.000559
167 0.000605
168 0.000626
169 0.000635
170 0.000646
171 0.000654
172 0.000644
173 0.000642
174 0.000632
175 0.000627
176 0.000609
177 0.000610
178 0.000618
179 0.000604
180 0.000575
181 0.000553
182 0.000550
183 0.000546
184 0.000561
185 0.000576
186 0.000596
187 0.000619
188 0.000613
189 0.000590
190 0.000575
191 0.000560
192 0.000552
193 0.000551
194 0.000554
195 0.000563
196 0.000570
197 0.000591
198 0.000597
199 0.000613
200 0.000640
201 0.000646
202 0.000645
203 0.000617
204 0.000585
205 0.000566
206 0.000555
207 0.000554
208 0.000567
209 0.000587
210 0.000623
211 0.000613
212 0.000601
213 0.000605
214 0.000589
215 0.000595
216 0.000615
217 0.000621
218 0.000635
219 0.000640
220 0.000651
221 0.000652
222 0.000647
223 0.000652
224 0.000642
225 0.000631
226 0.000628
227 0.000613
228 0.000602
229 0.000604
230 0.000626
231 0.000642
232 0.000663
233 0.000664
234 0.000651
235 0.000629
236 0.000625
237 0.000647
238 0.000660
239 0.000679
240 0.000698
241 0.000700
242 0.000713
243 0.000718
244 0.000708
245 0.000691
246 0.000651
247 0.000630
248 0.000635
249 0.000659
250 0.000692
251 0.000712
252 0.000723
253 0.000721
254 0.000722
255 0.000720
256 0.000719
257 0.000724
258 0.000730
259 0.000730
260 0.000738
261 0.000738
262 0.000718
263 0.000711
264 0.000699
265 0.000683
266 0.000670
267 0.000665
268 0.000662
269 0.000655
270 0.000646
271 0.000642
272 0.000659
273 0.000668
274 0.000674
275 0.000688
276 0.000710
277 0.000714
278 0.000709
279 0.000691
280 0.000674
281 0.000667
282 0.000672
283 0.000688
284 0.000696
285 0.000686
286 0.000660
287 0.000648
288 0.000611
289 0.000583
290 0.000577
291 0.000584
292 0.000593
293 0.000596
294 0.000613
295 0.000622
296 0.000644
297 0.000672
298 0.000677
299 0.000669
300 0.000656
301 0.000627
302 0.000600
303 0.000583
304 0.000569
305 0.000572
306 0.000582
307 0.000573
308 0.000539
309 0.000522
310 0.000498
311 0.000493
312 0.000497
313 0.000527
314 0.000561
315 0.000587
316 0.000592
317 0.000572
318 0.000565
319 0.000577
320 0.000592
321 0.000601
322 0.000603
323 0.000605
324 0.000614
325 0.000613
326 0.000606
327 0.000609
328 0.000624
329 0.000652
330 0.000653
331 0.000649
332 0.000646
333 0.000638
334 0.000615
335 0.000604
336 0.000584
337 0.000586
338 0.000609
339 0.000631
340 0.000632
341 0.000630
342 0.000636
343 0.000616
344 0.000602
345 0.000594
346 0.000578
347 0.000576
348 0.000579
349 0.000562
350 0.000543
351 0.000531
352 0.000531
353 0.000528
354 0.000519
355 0.000540
356 0.000557
357 0.000571
358 0.000566
359 0.000561
360 0.000547
361 0.000537
362 0.000530
363 0.000530
364 0.000538
365 0.000531
366 0.000540
367 0.000560
368 0.000581
369 0.000581
370 0.000589
371 0.000599
372 0.000605
373 0.000606
374 0.000603
375 0.000597
376 0.000585
377 0.000586
378 0.000568
379 0.000563
380 0.000560
381 0.000547
382 0.000527
383 0.000522
384 0.000503
385 0.000498
386 0.000515
387 0.000524
388 0.000529
389 0.000521
390 0.000512
391 0.000498
392 0.000484
393 0.000464
394 0.000461
395 0.000471
396 0.000478
397 0.000485
398 0.000468
399 0.000458
400 0.000454
401 0.000440
402 0.000416
403 0.000401
404 0.000394
405 0.000380
406 0.000363
407 0.000352
408 0.000364
409 0.000397
410 0.000422
411 0.000424
412 0.000417
413 0.000395
414 0.000362
415 0.000331
416 0.000318
417 0.000309
418 0.000322
419 0.000332
420 0.000334
421 0.000325
422 0.000320
423 0.000331
424 0.000327
425 0.000311
426 0.000306
427 0.000317
428 0.000332
429 0.000342
430 0.000351
431 0.000360
432 0.000373
433 0.000375
434 0.000355
435 0.000329
436 0.000312
437 0.000301
438 0.000289
439 0.000289
440 0.000292
441 0.000297
442 0.000305
443 0.000310
444 0.000319
445 0.000311
446 0.000295
447 0.000284
448 0.000258
449 0.000234
450 0.000235
451 0.000255
452 0.000275
453 0.000281
454 0.000274
455 0.000260
456 0.000238
457 0.000222
458 0.000208
459 0.000183
460 0.000175
461 0.000170
462 0.000167
463 0.000159
464 0.000148
465 0.000142
466 0.000136
467 0.000131
468 0.000123
469 0.000131
470 0.000148
471 0.000170
472 0.000171
473 0.000172
474 0.000179
475 0.000172
476 0.000170
477 0.000159
478 0.000134
479 0.000114
480 0.000130
481 0.000146
482 0.000158
483 0.000169
484 0.000184
485 0.000198
486 0.000216
487 0.000222
488 0.000216
489 0.000215
490 0.000204
491 0.000198
492 0.000195
493 0.000209
494 0.000227
495 0.000223
496 0.000226
497 0.000235
498 0.000245
499 0.000268
500 0.000285
501 0.000272
502 0.000259
503 0.000243
504 0.000225
505 0.000213
506 0.000214
507 0.000222
508 0.000230
509 0.000231
510 0.000227
511 0.000211
512 0.000194
513 0.000187
514 0.000185
515 0.000187
516 0.000200
517 0.000183
518 0.000149
519 0.000119
520 0.000091
521 0.000071
522 0.000064
523 0.000065
524 0.000065
525 0.000065
526 0.000077
527 0.000087
528 0.000095
529 0.000095
530 0.000090
531 0.000087
532 0.000106
533 0.000106
534 0.000113
535 0.000128
536 0.000130
537 0.000132
538 0.000129
539 0.000126
540 0.000119
541 0.000129
542 0.000137
543 0.000142
544 0.000140
545 0.000132
546 0.000121
547 0.000113
548 0.000110
549 0.000089
550 0.000086
551 0.000091
552 0.000087
553 0.000076
554 0.000070
555 0.000081
556 0.000092
557 0.000101
558 0.000100
559 0.000104
560 0.000109
561 0.000116
562 0.000112
563 0.000110
564 0.000110
565 0.000107
566 0.000101
567 0.000101
568 0.000101
569 0.000106
570 0.000106
571 0.000118
572 0.000129
573 0.000137
574 0.000147
575 0.000156
576 0.000162
577 0.000168
578 0.000170
579 0.000177
580 0.000181
581 0.000186
582 0.000181
583 0.000183
584 0.000176
585 0.000145
586 0.000113
587 0.000096
588 0.000082
589 0.000089
590 0.000095
591 0.000096
592 0.000094
593 0.000094
594 0.000080
595 0.000072
596 0.000080
597 0.000088
598 0.000098
599 0.000124
600 0.000148
601 0.000164
602 0.000176
603 0.000160
604 0.000156
605 0.000157
606 0.000166
607 0.000166
608 0.000172
609 0.000179
610 0.000185
611 0.000206
612 0.000217
613 0.000223
614 0.000226
615 0.000222
616 0.000215
617 0.000228
618 0.000240
619 0.000252
620 0.000267
621 0.000265
622 0.000276
623 0.000279
624 0.000274
625 0.000271
626 0.000273
627 0.000288
628 0.000314
629 0.000330
630 0.000333
631 0.000321
632 0.000310
633 0.000289
634 0.000272
635 0.000255
636 0.000241
637 0.000225
638 0.000216
639 0.000214
640 0.000211
641 0.000210
642 0.000209
643 0.000210
644 0.000212
645 0.000216
646 0.000212
647 0.000223
648 0.000228
649 0.000231
650 0.000220
651 0.000218
652 0.000220
653 0.000227
654 0.000235
655 0.000236
656 0.000240
657 0.000241
658 0.000236
659 0.000236
660 0.000237
661 0.000241
662 0.000243
663 0.000245
664 0.000248
665 0.000241
666 0.000232
667 0.000226
668 0.000220
669 0.000222
670 0.000228
671 0.000238
672 0.000233
673 0.000242
674 0.000242
675 0.000232
676 0.000227
677 0.000225
678 0.000208
679 0.000196
680 0.000182
681 0.000181
682 0.000180
683 0.000183
684 0.000201
685 0.000198
686 0.000204
687 0.000209
688 0.000196
689 0.000186
690 0.000175
691 0.000167
692 0.000170
693 0.000179
694 0.000186
695 0.000195
696 0.000199
697 0.000196
698 0.000183
699 0.000173
700 0.000153
701 0.000140
702 0.000136
703 0.000140
704 0.000145
705 0.000144
706 0.000136
707 0.000138
708 0.000142
709 0.000145
710 0.000158
711 0.000157
712 0.000157
713 0.000153
714 0.000154
715 0.000158
716 0.000159
717 0.000157
718 0.000148
719 0.000149
720 0.000153
721 0.000148
722 0.000145
723 0.000154
724 0.000168
725 0.000179
726 0.000190
727 0.000195
728 0.000190
729 0.000196
730 0.000201
731 0.000198
732 0.000209
733 0.000213
734 0.000215
735 0.000213
736 0.000201
737 0.000184
738 0.000181
739 0.000182
740 0.000180
741 0.000176
742 0.000182
743 0.000185
744 0.000189
745 0.000185
746 0.000181
747 0.000183
748 0.000190
749 0.000190
750 0.000193
751 0.000198
752 0.000201
753 0.000206
754 0.000208
755 0.000201
756 0.000198
757 0.000194
758 0.000195
759 0.000208
760 0.000211
761 0.000208
762 0.000190
763 0.000175
764 0.000155
765 0.000151
766 0.000162
767 0.000170
768 0.000173
769 0.000181
770 0.000171
771 0.000171
772 0.000169
773 0.000156
774 0.000150
775 0.000143
776 0.000138
777 0.000139
778 0.000142
779 0.000145
780 0.000144
781 0.000133
782 0.000115
783 0.000106
784 0.000098
785 0.000089
786 0.000083
787 0.000079
788 0.000071
789 0.000070
790 0.000071
791 0.000068
792 0.000066
793 0.000062
794 0.000059
795 0.000059
796 0.000059
797 0.000053
798 0.000041
799 0.000045
800 0.000051
801 0.000062
802 0.000063
803 0.000056
804 0.000051
805 0.000047
806 0.000045
807 0.000044
808 0.000042
809 0.000040
