# i correlation
1 0.001510
2 0.001358
3 0.001229
4 0.001139
5 0.001078
6 0.001018
7 0.000985
8 0.000952
9 0.000930
10 0.000896
11 0.000871
12 0.000863
13 0.000838
14 0.000813
15 0.000782
16 0.000769
17 0.000766
18 0.000768
19 0.000765
20 0.000761
21 0.000734
22 0.000696
23 0.000661
24 0.000650
25 0.000665
26 0.000672
27 0.000676
28 0.000680
29 0.000691
30 0.000717
31 0.000723
32 0.000733
33 0.000737
34 0.000716
35 0.000705
36 0.000696
37 0.000692
38 0.000686
39 0.000662
40 0.000647
41 0.000635
42 0.000637
43 0.000632
44 0.000625
45 0.000626
46 0.000626
47 0.000622
48 0.000617
49 0.000605
50 0.000608
51 0.000595
52 0.000586
53 0.000565
54 0.000566
55 0.000563
56 0.000559
57 0.000553
58 0.000548
59 0.000528
60 0.000535
61 0.000547
62 0.000549
63 0.000560
64 0.000569
65 0.000576
66 0.000565
67 0.000570
68 0.000577
69 0.000588
70 0.000600
71 0.000588
72 0.000573
73 0.000564
74 0.000574
75 0.000586
76 0.000589
77 0.000589
78 0.000579
79 0.000570
80 0.000564
81 0.000564
82 0.000581
83 0.000580
84 0.000575
85 0.000545
86 0.000525
87 0.000516
88 0.000504
89 0.000474
90 0.000442
91 0.000432
92 0.000437
93 0.000455
94 0.000471
95 0.000484
96 0.000505
97 0.000517
98 0.000514
99 0.000512
100 0.000497
101 0.000495
102 0.000509
103 0.000522
104 0.000547
105 0.000579
106 0.000599
107 0.000617
108 0.000620
109 0.000610
110 0.000605
111 0.000587
112 0.000579
113 0.000589
114 0.000601
115 0.000612
116 0.000603
117 0.000608
118 0.000592
119 0.000576
120 0.000543
121 0.000518
122 0.000512
123 0.000504
124 0.000508
125 0.000516
126 0.000523
127 0.000534
128 0.000529
129 0.000527
130 0.000526
131 0.000528
132 0.000518
133 0.000486
134 0.000491
135 0.000506
136 0.000515
137 0.000510
138 0.000503
139 0.000492
140 0.000486
141 0.000466
142 0.000465
143 0.000484
144 0.000494
145 0.000505
146 0.000518
147 0.000540
148 0.000542
149 0.000542
150 0.000529
151 0.000526
152 0.000539
153 0.000535
154 0.000531
155 0.000530
156 0.000517
157 0.000522
158 0.000516
159 0.000525
160 0.000540
161 0.000561
162 0.000569
163 0.000577
164 0.000584
165 0.000567
166 0.000527
167 0.000505
168 0.000467
169 0.000450
170 0.000438
171 0.000428
172 0.000440
173 0.000440
174 0.000436
175 0.000431
176 0.000429
177 0.000431
178 0.000431
179 0.000444
180 0.000449
181 0.000452
182 0.000445
183 0.000428
184 0.000427
185 0.000415
186 0.000404
187 0.000392
188 0.000384
189 0.000381
190 0.000391
191 0.000384
192 0.000388
193 0.000394
194 0.000389
195 0.000363
196 0.000340
197 0.000338
198 0.000338
199 0.000345
200 0.000348
201 0.000362
202 0.000343
203 0.000336
204 0.000316
205 0.000289
206 0.000265
207 0.000252
208 0.000220
209 0.000216
210 0.000213
211 0.000225
212 0.000233
213 0.000236
214 0.000247
215 0.000248
216 0.000242
217 0.000233
218 0.000229
219 0.000242
220 0.000249
221 0.000253
222 0.000258
223 0.000261
224 0.000260
225 0.000288
226 0.000292
227 0.000306
228 0.000320
229 0.000328
230 0.000344
231 0.000365
232 0.000379
233 0.000395
234 0.000425
235 0.000427
236 0.000429
237 0.000413
238 0.000377
239 0.000363
240 0.000355
241 0.000353
242 0.000366
243 0.000353
244 0.000349
245 0.000358
246 0.000359
247 0.000364
248 0.000363
249 0.000346
250 0.000315
251 0.000301
252 0.000276
253 0.000284
254 0.000283
255 0.000281
256 0.000283
257 0.000279
258 0.000272
259 0.000274
260 0.000290
261 0.000308
262 0.000321
263 0.000304
264 0.000291
265 0.000289
266 0.000292
267 0.000301
268 0.000307
269 0.000313
270 0.000306
271 0.000301
272 0.000299
273 0.000294
274 0.000294
275 0.000294
276 0.000284
277 0.000290
278 0.000299
279 0.000293
280 0.000272
281 0.000257
282 0.000254
283 0.000246
284 0.000236
285 0.000235
286 0.000241
287 0.000255
288 0.000254
289 0.000261
290 0.000270
291 0.000270
292 0.000276
293 0.000275
294 0.000291
295 0.000318
296 0.000335
297 0.000350
298 0.000365
299 0.000379
300 0.000367
301 0.000357
302 0.000349
303 0.000339
304 0.000327
305 0.000310
306 0.000289
307 0.000282
308 0.000276
309 0.000261
310 0.000249
311 0.000247
312 0.000244
313 0.000220
314 0.000203
315 0.000176
316 0.000174
317 0.000176
318 0.000181
319 0.000183
320 0.000193
321 0.000195
322 0.000199
323 0.000187
324 0.000189
325 0.000194
326 0.000195
327 0.000199
328 0.000214
329 0.000236
330 0.000249
331 0.000241
332 0.000225
333 0.000209
334 0.000187
335 0.000171
336 0.000154
337 0.000153
338 0.000158
339 0.000177
340 0.000177
341 0.000185
342 0.000189
343 0.000184
344 0.000179
345 0.000158
346 0.000143
347 0.000148
348 0.000145
349 0.000141
350 0.000134
351 0.000132
352 0.000136
353 0.000140
354 0.000136
355 0.000126
356 0.000121
357 0.000128
358 0.000139
359 0.000142
360 0.000136
361 0.000142
362 0.000155
363 0.000158
364 0.000174
365 0.000179
366 0.000186
367 0.000167
368 0.000159
369 0.000149
370 0.000151
371 0.000159
372 0.000193
373 0.000208
374 0.000217
375 0.000209
376 0.000210
377 0.000229
378 0.000231
379 0.000241
380 0.000245
381 0.000251
382 0.000252
383 0.000245
384 0.000237
385 0.000231
386 0.000234
387 0.000228
388 0.000213
389 0.000210
390 0.000207
391 0.000233
392 0.000256
393 0.000268
394 0.000274
395 0.000282
396 0.000278
397 0.000283
398 0.000278
399 0.000280
400 0.000285
401 0.000282
402 0.000284
403 0.000297
404 0.000320
405 0.000333
406 0.000340
407 0.000339
408 0.000334
409 0.000355
410 0.000356
411 0.000356
412 0.000370
413 0.000389
414 0.000398
415 0.000397
416 0.000386
417 0.000386
418 0.000386
419 0.000373
420 0.000357
421 0.000349
422 0.000345
423 0.000344
424 0.000354
425 0.000363
426 0.000370
427 0.000375
428 0.000367
429 0.000362
430 0.000354
431 0.000347
432 0.000351
433 0.000368
434 0.000395
435 0.000421
436 0.000432
437 0.000441
438 0.000446
439 0.000447
440 0.000434
441 0.000427
442 0.000411
443 0.000401
444 0.000379
445 0.000375
446 0.000396
447 0.000415
448 0.000422
449 0.000412
450 0.000406
451 0.000400
452 0.000385
453 0.000357
454 0.000350
455 0.000344
456 0.000350
457 0.000355
458 0.000347
459 0.000354
460 0.000352
461 0.000347
462 0.000326
463 0.000317
464 0.000305
465 0.000297
466 0.000298
467 0.000295
468 0.000293
469 0.000294
470 0.000291
471 0.000298
472 0.000283
473 0.000280
474 0.000270
475 0.000278
476 0.000293
477 0.000289
478 0.000300
479 0.000314
480 0.000303
481 0.000296
482 0.000287
483 0.000287
484 0.000290
485 0.000287
486 0.000277
487 0.000277
488 0.000270
489 0.000272
490 0.000268
491 0.000272
492 0.000274
493 0.000275
494 0.000279
495 0.000272
496 0.000279
497 0.000270
498 0.000250
499 0.000234
500 0.000215
501 0.000222
502 0.000220
503 0.000215
504 0.000213
505 0.000206
506 0.000213
507 0.000204
508 0.000213
509 0.000229
510 0.000237
511 0.000248
512 0.000253
513 0.000252
514 0.000242
515 0.000239
516 0.000234
517 0.000242
518 0.000238
519 0.000237
520 0.000237
521 0.000263
522 0.000280
523 0.000297
524 0.000321
525 0.000339
526 0.000357
527 0.000373
528 0.000382
529 0.000403
530 0.000406
531 0.000408
532 0.000399
533 0.000388
534 0.000385
535 0.000377
536 0.000377
537 0.000369
538 0.000357
539 0.000365
540 0.000372
541 0.000388
542 0.000392
543 0.000401
544 0.000411
545 0.000412
546 0.000408
547 0.000394
548 0.000392
549 0.000380
550 0.000368
551 0.000359
552 0.000349
553 0.000345
554 0.000343
555 0.000346
556 0.000352
557 0.000352
558 0.000350
559 0.000349
560 0.000357
561 0.000368
562 0.000372
563 0.000367
564 0.000372
565 0.000377
566 0.000385
567 0.000395
568 0.000378
569 0.000366
570 0.000351
571 0.000332
572 0.000324
573 0.000340
574 0.000349
575 0.000353
576 0.000360
577 0.000363
578 0.000370
579 0.000366
580 0.000351
581 0.000337
582 0.000330
583 0.000326
584 0.000315
585 0.000306
586 0.000310
587 0.000307
588 0.000297
589 0.000295
590 0.000301
591 0.000313
592 0.000324
593 0.000341
594 0.000356
595 0.000367
596 0.000363
597 0.000368
598 0.000379
599 0.000390
600 0.000400
601 0.000387
602 0.000374
603 0.000362
604 0.000349
605 0.000335
606 0.000329
607 0.000332
608 0.000337
609 0.000331
610 0.000327
611 0.000333
612 0.000335
613 0.000333
614 0.000324
615 0.000309
616 0.000295
617 0.000279
618 0.000279
619 0.000274
620 0.000276
621 0.000269
622 0.000259
623 0.000261
624 0.000268
625 0.000285
626 0.000292
627 0.000296
628 0.000303
629 0.000296
630 0.000297
631 0.000292
632 0.000295
633 0.000295
634 0.000289
635 0.000276
636 0.000269
637 0.000270
638 0.000272
639 0.000284
640 0.000299
641 0.000304
642 0.000302
643 0.000300
644 0.000308
645 0.000296
646 0.000291
647 0.000278
648 0.000281
649 0.000286
650 0.000282
651 0.000277
652 0.000262
653 0.000254
654 0.000251
655 0.000249
656 0.000245
657 0.000235
658 0.000229
659 0.000219
660 0.000225
661 0.000221
662 0.000215
663 0.000213
664 0.000208
665 0.000200
666 0.000199
667 0.000192
668 0.000190
669 0.000198
670 0.000215
671 0.000231
672 0.000239
673 0.000248
674 0.000263
675 0.000277
676 0.000295
677 0.000297
678 0.000299
679 0.000292
680 0.000289
681 0.000291
682 0.000304
683 0.000303
684 0.000299
685 0.000292
686 0.000292
687 0.000288
688 0.000292
689 0.000291
690 0.000295
691 0.000298
692 0.000294
693 0.000281
694 0.000275
695 0.000273
696 0.000274
697 0.000269
698 0.000257
699 0.000245
700 0.000242
701 0.000245
702 0.000247
703 0.000247
704 0.000246
705 0.000248
706 0.000252
707 0.000254
708 0.000257
709 0.000261
710 0.000262
711 0.000261
712 0.000263
713 0.000265
714 0.000264
715 0.000257
716 0.000251
717 0.000241
718 0.000231
719 0.000218
720 0.000213
721 0.000211
722 0.000205
723 0.000196
724 0.000193
725 0.000192
726 0.000192
727 0.000190
728 0.000183
729 0.000168
730 0.000154
731 0.000137
732 0.000123
733 0.000113
734 0.000106
735 0.000097
736 0.000091
737 0.000087
738 0.000095
739 0.000093
740 0.000086
741 0.000071
742 0.000065
743 0.000067
744 0.000064
745 0.000068
746 0.000072
747 0.000073
748 0.000074
749 0.000071
750 0.000068
751 0.000063
752 0.000061
753 0.000066
754 0.000076
755 0.000089
756 0.000093
757 0.000102
758 0.000111
759 0.000119
760 0.000124
761 0.000122
762 0.000120
763 0.000119
764 0.000122
765 0.000116
766 0.000110
767 0.000101
768 0.000095
769 0.000091
770 0.000092
771 0.000097
772 0.000099
773 0.000102
774 0.000104
775 0.000103
776 0.000102
777 0.000100
778 0.000097
779 0.000094
780 0.000089
781 0.000088
782 0.000081
783 0.000078
784 0.000078
785 0.000080
786 0.000079
787 0.000081
788 0.000081
789 0.000082
790 0.000085
791 0.000086
792 0.000081
793 0.000070
794 0.000064
795 0.000059
796 0.000060
797 0.000063
798 0.000071
799 0.000070
800 0.000064
801 0.000062
802 0.000055
803 0.000050
804 0.000050
805 0.000051
806 0.000051
807 0.000046
808 0.000045
809 0.000050
