# i correlation
1 0.003111
2 0.002951
3 0.002819
4 0.002713
5 0.002621
6 0.002551
7 0.002492
8 0.002426
9 0.002351
10 0.002288
11 0.002238
12 0.002195
13 0.002140
14 0.002076
15 0.002003
16 0.001962
17 0.001932
18 0.001886
19 0.001832
20 0.001769
21 0.001709
22 0.001669
23 0.001662
24 0.001658
25 0.001661
26 0.001653
27 0.001646
28 0.001648
29 0.001653
30 0.001652
31 0.001642
32 0.001628
33 0.001606
34 0.001590
35 0.001586
36 0.001596
37 0.001611
38 0.001605
39 0.001595
40 0.001588
41 0.001588
42 0.001565
43 0.001554
44 0.001527
45 0.001505
46 0.001473
47 0.001470
48 0.001447
49 0.001446
50 0.001436
51 0.001426
52 0.001394
53 0.001370
54 0.001361
55 0.001340
56 0.001300
57 0.001271
58 0.001249
59 0.001228
60 0.001209
61 0.001198
62 0.001179
63 0.001170
64 0.001162
65 0.001134
66 0.001114
67 0.001088
68 0.001073
69 0.001061
70 0.001062
71 0.001048
72 0.001062
73 0.001085
74 0.001127
75 0.001155
76 0.001191
77 0.001231
78 0.001271
79 0.001308
80 0.001332
81 0.001347
82 0.001345
83 0.001319
84 0.001291
85 0.001249
86 0.001232
87 0.001224
88 0.001213
89 0.001187
90 0.001187
91 0.001173
92 0.001177
93 0.001181
94 0.001174
95 0.001154
96 0.001135
97 0.001118
98 0.001097
99 0.001061
100 0.001048
101 0.001040
102 0.001036
103 0.001041
104 0.001046
105 0.001071
106 0.001096
107 0.001117
108 0.001137
109 0.001151
110 0.001156
111 0.001172
112 0.001153
113 0.001160
114 0.001148
115 0.001122
116 0.001129
117 0.001152
118 0.001165
119 0.001164
120 0.001146
121 0.001145
122 0.001120
123 0.001096
124 0.001085
125 0.001066
126 0.001034
127 0.001024
128 0.001023
129 0.001005
130 0.000997
131 0.000994
132 0.000989
133 0.000987
134 0.000990
135 0.001000
136 0.001020
137 0.001041
138 0.001036
139 0.001028
140 0.001017
141 0.001031
142 0.001033
143 0.001030
144 0.001018
145 0.001012
146 0.001021
147 0.001023
148 0.001040
149 0.001057
150 0.001072
151 0.001091
152 0.001094
153 0.001102
154 0.001117
155 0.001134
156 0.001128
157 0.001139
158 0.001152
159 0.001176
160 0.001201
161 0.001195
162 0.001189
163 0.001166
164 0.001141
165 0.001131
166 0.001122
167 0.001142
168 0.001156
169 0.001148
170 0.001146
171 0.001155
172 0.001163
173 0.001146
174 0.001132
175 0.001099
176 0.001069
177 0.001048
178 0.001032
179 0.001044
180 0.001059
181 0.001074
182 0.001075
183 0.001062
184 0.001032
185 0.001027
186 0.001030
187 0.001049
188 0.001071
189 0.001080
190 0.001096
191 0.001115
192 0.001117
193 0.001124
194 0.001124
195 0.001129
196 0.001141
197 0.001153
198 0.001169
199 0.001177
200 0.001190
201 0.001191
202 0.001194
203 0.001182
204 0.001178
205 0.001180
206 0.001168
207 0.001147
208 0.001110
209 0.001095
210 0.001086
211 0.001100
212 0.001098
213 0.001102
214 0.001090
215 0.001086
216 0.001059
217 0.001048
218 0.001039
219 0.001049
220 0.001057
221 0.001050
222 0.001033
223 0.001023
224 0.001011
225 0.000995
226 0.000968
227 0.000941
228 0.000913
229 0.000903
230 0.000915
231 0.000907
232 0.000892
233 0.000879
234 0.000864
235 0.000844
236 0.000821
237 0.000799
238 0.000801
239 0.000796
240 0.000788
241 0.000809
242 0.000806
243 0.000789
244 0.000776
245 0.000766
246 0.000756
247 0.000746
248 0.000742
249 0.000758
250 0.000761
251 0.000759
252 0.000741
253 0.000733
254 0.000716
255 0.000708
256 0.000705
257 0.000706
258 0.000705
259 0.000700
260 0.000703
261 0.000694
262 0.000701
263 0.000682
264 0.000661
265 0.000627
266 0.000618
267 0.000605
268 0.000599
269 0.000598
270 0.000609
271 0.000610
272 0.000604
273 0.000599
274 0.000597
275 0.000596
276 0.000592
277 0.000581
278 0.000589
279 0.000589
280 0.000588
281 0.000594
282 0.000596
283 0.000601
284 0.000603
285 0.000624
286 0.000635
287 0.000632
288 0.000650
289 0.000662
290 0.000665
291 0.000646
292 0.000632
293 0.000621
294 0.000604
295 0.000587
296 0.000589
297 0.000580
298 0.000582
299 0.000585
300 0.000586
301 0.000581
302 0.000576
303 0.000564
304 0.000557
305 0.000556
306 0.000540
307 0.000539
308 0.000542
309 0.000538
310 0.000522
311 0.000496
312 0.000473
313 0.000470
314 0.000466
315 0.000473
316 0.000477
317 0.000499
318 0.000499
319 0.000493
320 0.000491
321 0.000499
322 0.000520
323 0.000537
324 0.000539
325 0.000540
326 0.000531
327 0.000522
328 0.000522
329 0.000528
330 0.000542
331 0.000559
332 0.000571
333 0.000586
334 0.000596
335 0.000595
336 0.000612
337 0.000624
338 0.000626
339 0.000651
340 0.000648
341 0.000647
342 0.000636
343 0.000630
344 0.000611
345 0.000575
346 0.000557
347 0.000550
348 0.000546
349 0.000538
350 0.000535
351 0.000527
352 0.000527
353 0.000520
354 0.000506
355 0.000481
356 0.000470
357 0.000455
358 0.000443
359 0.000430
360 0.000432
361 0.000421
362 0.000423
363 0.000427
364 0.000450
365 0.000458
366 0.000470
367 0.000478
368 0.000490
369 0.000490
370 0.000488
371 0.000483
372 0.000487
373 0.000478
374 0.000468
375 0.000459
376 0.000459
377 0.000461
378 0.000469
379 0.000473
380 0.000494
381 0.000498
382 0.000494
383 0.000487
384 0.000476
385 0.000464
386 0.000454
387 0.000448
388 0.000448
389 0.000439
390 0.000432
391 0.000429
392 0.000438
393 0.000448
394 0.000457
395 0.000457
396 0.000460
397 0.000457
398 0.000456
399 0.000459
400 0.000464
401 0.000463
402 0.000464
403 0.000467
404 0.000464
405 0.000465
406 0.000465
407 0.000463
408 0.000441
409 0.000430
410 0.000411
411 0.000400
412 0.000410
413 0.000421
414 0.000417
415 0.000431
416 0.000429
417 0.000445
418 0.000465
419 0.000464
420 0.000466
421 0.000474
422 0.000482
423 0.000480
424 0.000475
425 0.000471
426 0.000474
427 0.000462
428 0.000446
429 0.000447
430 0.000456
431 0.000461
432 0.000467
433 0.000463
434 0.000461
435 0.000446
436 0.000431
437 0.000407
438 0.000395
439 0.000376
440 0.000370
441 0.000387
442 0.000395
443 0.000417
444 0.000444
445 0.000462
446 0.000459
447 0.000443
448 0.000431
449 0.000416
450 0.000414
451 0.000392
452 0.000361
453 0.000339
454 0.000317
455 0.000296
456 0.000272
457 0.000251
458 0.000234
459 0.000213
460 0.000196
461 0.000177
462 0.000157
463 0.000128
464 0.000092
465 0.000043
466 0.000019
467 0.000002
468 -0.000011
469 -0.000018
470 -0.000020
471 -0.000026
472 -0.000031
473 -0.000016
474 -0.000012
475 0.000007
476 0.000023
477 0.000042
478 0.000046
479 0.000055
480 0.000079
481 0.000107
482 0.000132
483 0.000141
484 0.000143
485 0.000156
486 0.000166
487 0.000167
488 0.000164
489 0.000161
490 0.000155
491 0.000143
492 0.000121
493 0.000107
494 0.000087
495 0.000065
496 0.000054
497 0.000039
498 0.000029
499 0.000030
500 0.000017
501 -0.000007
502 -0.000022
503 -0.000036
504 -0.000041
505 -0.000043
506 -0.000062
507 -0.000084
508 -0.000105
509 -0.000123
510 -0.000121
511 -0.000105
512 -0.000103
513 -0.000092
514 -0.000102
515 -0.000106
516 -0.000107
517 -0.000112
518 -0.000107
519 -0.000102
520 -0.000092
521 -0.000087
522 -0.000074
523 -0.000046
524 -0.000015
525 -0.000002
526 0.000013
527 0.000035
528 0.000067
529 0.000099
530 0.000128
531 0.000157
532 0.000167
533 0.000163
534 0.000161
535 0.000172
536 0.000190
537 0.000202
538 0.000212
539 0.000219
540 0.000223
541 0.000231
542 0.000228
543 0.000227
544 0.000209
545 0.000186
546 0.000169
547 0.000159
548 0.000150
549 0.000145
550 0.000139
551 0.000126
552 0.000114
553 0.000107
554 0.000122
555 0.000126
556 0.000130
557 0.000133
558 0.000139
559 0.000151
560 0.000166
561 0.000178
562 0.000186
563 0.000207
564 0.000220
565 0.000214
566 0.000222
567 0.000235
568 0.000244
569 0.000254
570 0.000248
571 0.000246
572 0.000236
573 0.000223
574 0.000213
575 0.000208
576 0.000188
577 0.000180
578 0.000171
579 0.000174
580 0.000174
581 0.000165
582 0.000156
583 0.000146
584 0.000134
585 0.000130
586 0.000129
587 0.000141
588 0.000143
589 0.000129
590 0.000112
591 0.000103
592 0.000094
593 0.000099
594 0.000107
595 0.000113
596 0.000111
597 0.000107
598 0.000111
599 0.000103
600 0.000093
601 0.000086
602 0.000076
603 0.000087
604 0.000098
605 0.000128
606 0.000142
607 0.000152
608 0.000147
609 0.000147
610 0.000165
611 0.000184
612 0.000190
613 0.000197
614 0.000193
615 0.000182
616 0.000174
617 0.000175
618 0.000177
619 0.000177
620 0.000170
621 0.000166
622 0.000177
623 0.000194
624 0.000217
625 0.000212
626 0.000209
627 0.000194
628 0.000185
629 0.000172
630 0.000161
631 0.000149
632 0.000145
633 0.000125
634 0.000120
635 0.000111
636 0.000111
637 0.000108
638 0.000109
639 0.000110
640 0.000114
641 0.000122
642 0.000121
643 0.000118
644 0.000108
645 0.000103
646 0.000089
647 0.000080
648 0.000082
649 0.000080
650 0.000083
651 0.000071
652 0.000063
653 0.000049
654 0.000043
655 0.000020
656 0.000008
657 -0.000001
658 -0.000026
659 -0.000043
660 -0.000056
661 -0.000068
662 -0.000088
663 -0.000106
664 -0.000111
665 -0.000118
666 -0.000123
667 -0.000129
668 -0.000128
669 -0.000137
670 -0.000144
671 -0.000145
672 -0.000156
673 -0.000160
674 -0.000168
675 -0.000170
676 -0.000182
677 -0.000186
678 -0.000197
679 -0.000204
680 -0.000203
681 -0.000206
682 -0.000203
683 -0.000190
684 -0.000177
685 -0.000158
686 -0.000145
687 -0.000138
688 -0.000137
689 -0.000137
690 -0.000127
691 -0.000115
692 -0.000112
693 -0.000108
694 -0.000109
695 -0.000109
696 -0.000106
697 -0.000101
698 -0.000097
699 -0.000091
700 -0.000079
701 -0.000060
702 -0.000044
703 -0.000029
704 -0.000007
705 -0.000004
706 0.000002
707 0.000010
708 0.000014
709 0.000008
710 0.000004
711 0.000009
712 0.000006
713 -0.000004
714 -0.000007
715 -0.000012
716 -0.000003
717 0.000007
718 0.000026
719 0.000042
720 0.000059
721 0.000065
722 0.000076
723 0.000082
724 0.000101
725 0.000107
726 0.000117
727 0.000115
728 0.000119
729 0.000127
730 0.000144
731 0.000166
732 0.000187
733 0.000196
734 0.000208
735 0.000225
736 0.000238
737 0.000260
738 0.000267
739 0.000273
740 0.000274
741 0.000276
742 0.000289
743 0.000296
744 0.000306
745 0.000314
746 0.000315
747 0.000316
748 0.000321
749 0.000333
750 0.000335
751 0.000330
752 0.000316
753 0.000311
754 0.000303
755 0.000299
756 0.000295
757 0.000286
758 0.000275
759 0.000266
760 0.000261
761 0.000268
762 0.000280
763 0.000280
764 0.000274
765 0.000284
766 0.000285
767 0.000287
768 0.000283
769 0.000275
770 0.000265
771 0.000259
772 0.000258
773 0.000257
774 0.000253
775 0.000247
776 0.000238
777 0.000240
778 0.000256
779 0.000268
780 0.000279
781 0.000287
782 0.000294
783 0.000301
784 0.000311
785 0.000314
786 0.000312
787 0.000306
788 0.000291
789 0.000279
790 0.000267
791 0.000262
792 0.000255
793 0.000242
794 0.000236
795 0.000226
796 0.000221
797 0.000211
798 0.000215
799 0.000212
800 0.000209
801 0.000204
802 0.000197
803 0.000189
804 0.000182
805 0.000176
806 0.000159
807 0.000147
808 0.000143
809 0.000141
