# i correlation
1 0.002665
2 0.002475
3 0.002341
4 0.002232
5 0.002133
6 0.002070
7 0.002020
8 0.002002
9 0.001982
10 0.001944
11 0.001906
12 0.001849
13 0.001815
14 0.001773
15 0.001735
16 0.001715
17 0.001697
18 0.001695
19 0.001687
20 0.001659
21 0.001631
22 0.001589
23 0.001566
24 0.001544
25 0.001524
26 0.001488
27 0.001469
28 0.001460
29 0.001459
30 0.001456
31 0.001474
32 0.001496
33 0.001491
34 0.001490
35 0.001476
36 0.001461
37 0.001474
38 0.001501
39 0.001524
40 0.001549
41 0.001555
42 0.001553
43 0.001548
44 0.001532
45 0.001512
46 0.001487
47 0.001480
48 0.001501
49 0.001501
50 0.001507
51 0.001510
52 0.001504
53 0.001509
54 0.001511
55 0.001497
56 0.001487
57 0.001462
58 0.001430
59 0.001405
60 0.001371
61 0.001339
62 0.001330
63 0.001313
64 0.001303
65 0.001304
66 0.001285
67 0.001272
68 0.001267
69 0.001268
70 0.001278
71 0.001286
72 0.001292
73 0.001301
74 0.001304
75 0.001287
76 0.001284
77 0.001263
78 0.001236
79 0.001225
80 0.001230
81 0.001224
82 0.001216
83 0.001211
84 0.001192
85 0.001190
86 0.001188
87 0.001185
88 0.001187
89 0.001214
90 0.001241
91 0.001255
92 0.001273
93 0.001281
94 0.001281
95 0.001258
96 0.001252
97 0.001259
98 0.001263
99 0.001259
100 0.001246
101 0.001239
102 0.001219
103 0.001207
104 0.001205
105 0.001217
106 0.001206
107 0.001203
108 0.001199
109 0.001177
110 0.001163
111 0.001124
112 0.001094
113 0.001074
114 0.001056
115 0.001053
116 0.001048
117 0.001046
118 0.001053
119 0.001052
120 0.001055
121 0.001064
122 0.001049
123 0.001045
124 0.001046
125 0.001029
126 0.001021
127 0.001028
128 0.001038
129 0.001036
130 0.001038
131 0.001040
132 0.001025
133 0.001001
134 0.000988
135 0.000983
136 0.000974
137 0.000971
138 0.000979
139 0.000999
140 0.001016
141 0.001038
142 0.001064
143 0.001087
144 0.001081
145 0.001087
146 0.001102
147 0.001121
148 0.001151
149 0.001166
150 0.001156
151 0.001131
152 0.001106
153 0.001091
154 0.001065
155 0.001057
156 0.001074
157 0.001074
158 0.001096
159 0.001110
160 0.001110
161 0.001108
162 0.001108
163 0.001105
164 0.001105
165 0.001097
166 0.001105
167 0.001094
168 0.001096
169 0.001111
170 0.001115
171 0.001102
172 0.001092
173 0.001066
174 0.001048
175 0.001031
176 0.001014
177 0.000997
178 0.000984
179 0.000980
180 0.000982
181 0.000987
182 0.000969
183 0.000957
184 0.000954
185 0.000955
186 0.000962
187 0.000980
188 0.000995
189 0.001010
190 0.001022
191 0.001022
192 0.001018
193 0.001026
194 0.001025
195 0.001005
196 0.000989
197 0.001001
198 0.001016
199 0.001032
200 0.001042
201 0.001057
202 0.001064
203 0.001065
204 0.001068
205 0.001048
206 0.001035
207 0.001023
208 0.001013
209 0.001002
210 0.000991
211 0.000990
212 0.001008
213 0.001022
214 0.001014
215 0.001004
216 0.000979
217 0.000973
218 0.000975
219 0.000972
220 0.000975
221 0.000978
222 0.000978
223 0.000976
224 0.000993
225 0.001011
226 0.001008
227 0.000980
228 0.000958
229 0.000934
230 0.000903
231 0.000877
232 0.000863
233 0.000842
234 0.000808
235 0.000778
236 0.000762
237 0.000755
238 0.000759
239 0.000776
240 0.000800
241 0.000825
242 0.000830
243 0.000823
244 0.000822
245 0.000834
246 0.000840
247 0.000840
248 0.000842
249 0.000848
250 0.000879
251 0.000897
252 0.000887
253 0.000886
254 0.000879
255 0.000871
256 0.000880
257 0.000910
258 0.000944
259 0.000979
260 0.001000
261 0.001022
262 0.001027
263 0.001043
264 0.001050
265 0.001042
266 0.001050
267 0.001044
268 0.001026
269 0.001026
270 0.001024
271 0.001013
272 0.000989
273 0.000961
274 0.000948
275 0.000923
276 0.000899
277 0.000880
278 0.000853
279 0.000854
280 0.000844
281 0.000828
282 0.000813
283 0.000793
284 0.000777
285 0.000773
286 0.000761
287 0.000746
288 0.000730
289 0.000722
290 0.000726
291 0.000740
292 0.000750
293 0.000745
294 0.000755
295 0.000773
296 0.000774
297 0.000784
298 0.000805
299 0.000808
300 0.000811
301 0.000809
302 0.000813
303 0.000813
304 0.000807
305 0.000798
306 0.000799
307 0.000793
308 0.000785
309 0.000782
310 0.000760
311 0.000755
312 0.000745
313 0.000747
314 0.000757
315 0.000764
316 0.000771
317 0.000783
318 0.000775
319 0.000763
320 0.000740
321 0.000718
322 0.000705
323 0.000691
324 0.000697
325 0.000701
326 0.000687
327 0.000676
328 0.000665
329 0.000659
330 0.000661
331 0.000652
332 0.000653
333 0.000665
334 0.000694
335 0.000716
336 0.000731
337 0.000736
338 0.000748
339 0.000757
340 0.000777
341 0.000763
342 0.000750
343 0.000743
344 0.000735
345 0.000735
346 0.000747
347 0.000763
348 0.000780
349 0.000811
350 0.000832
351 0.000842
352 0.000836
353 0.000830
354 0.000828
355 0.000827
356 0.000834
357 0.000836
358 0.000827
359 0.000831
360 0.000847
361 0.000842
362 0.000832
363 0.000827
364 0.000822
365 0.000822
366 0.000826
367 0.000830
368 0.000853
369 0.000856
370 0.000849
371 0.000852
372 0.000854
373 0.000848
374 0.000831
375 0.000801
376 0.000774
377 0.000752
378 0.000727
379 0.000709
380 0.000700
381 0.000692
382 0.000675
383 0.000653
384 0.000648
385 0.000632
386 0.000605
387 0.000598
388 0.000612
389 0.000629
390 0.000645
391 0.000655
392 0.000669
393 0.000686
394 0.000681
395 0.000663
396 0.000649
397 0.000649
398 0.000655
399 0.000659
400 0.000661
401 0.000659
402 0.000664
403 0.000664
404 0.000654
405 0.000643
406 0.000645
407 0.000635
408 0.000627
409 0.000637
410 0.000658
411 0.000673
412 0.000680
413 0.000682
414 0.000685
415 0.000693
416 0.000684
417 0.000672
418 0.000664
419 0.000671
420 0.000664
421 0.000657
422 0.000673
423 0.000689
424 0.000697
425 0.000701
426 0.000701
427 0.000703
428 0.000708
429 0.000716
430 0.000724
431 0.000726
432 0.000737
433 0.000745
434 0.000751
435 0.000747
436 0.000726
437 0.000715
438 0.000717
439 0.000710
440 0.000699
441 0.000696
442 0.000691
443 0.000688
444 0.000669
445 0.000665
446 0.000658
447 0.000654
448 0.000638
449 0.000626
450 0.000614
451 0.000621
452 0.000624
453 0.000627
454 0.000622
455 0.000618
456 0.000607
457 0.000608
458 0.000619
459 0.000625
460 0.000644
461 0.000641
462 0.000644
463 0.000657
464 0.000668
465 0.000667
466 0.000677
467 0.000677
468 0.000662
469 0.000650
470 0.000652
471 0.000653
472 0.000664
473 0.000680
474 0.000679
475 0.000680
476 0.000677
477 0.000665
478 0.000664
479 0.000657
480 0.000660
481 0.000664
482 0.000671
483 0.000696
484 0.000713
485 0.000716
486 0.000716
487 0.000718
488 0.000712
489 0.000721
490 0.000724
491 0.000739
492 0.000737
493 0.000725
494 0.000720
495 0.000716
496 0.000711
497 0.000713
498 0.000709
499 0.000702
500 0.000696
501 0.000691
502 0.000677
503 0.000686
504 0.000695
505 0.000701
506 0.000705
507 0.000716
508 0.000727
509 0.000731
510 0.000741
511 0.000741
512 0.000750
513 0.000746
514 0.000748
515 0.000746
516 0.000760
517 0.000768
518 0.000773
519 0.000786
520 0.000800
521 0.000815
522 0.000827
523 0.000835
524 0.000835
525 0.000831
526 0.000830
527 0.000835
528 0.000840
529 0.000847
530 0.000851
531 0.000849
532 0.000844
533 0.000827
534 0.000811
535 0.000804
536 0.000794
537 0.000791
538 0.000797
539 0.000797
540 0.000794
541 0.000777
542 0.000772
543 0.000775
544 0.000765
545 0.000753
546 0.000742
547 0.000729
548 0.000723
549 0.000723
550 0.000710
551 0.000708
552 0.000704
553 0.000713
554 0.000718
555 0.000704
556 0.000688
557 0.000679
558 0.000675
559 0.000677
560 0.000683
561 0.000704
562 0.000727
563 0.000737
564 0.000740
565 0.000743
566 0.000739
567 0.000732
568 0.000723
569 0.000712
570 0.000707
571 0.000699
572 0.000700
573 0.000680
574 0.000667
575 0.000657
576 0.000638
577 0.000630
578 0.000629
579 0.000617
580 0.000610
581 0.000612
582 0.000602
583 0.000597
584 0.000576
585 0.000554
586 0.000542
587 0.000518
588 0.000507
589 0.000488
590 0.000482
591 0.000473
592 0.000469
593 0.000476
594 0.000487
595 0.000488
596 0.000497
597 0.000512
598 0.000508
599 0.000501
600 0.000498
601 0.000512
602 0.000516
603 0.000515
604 0.000518
605 0.000516
606 0.000511
607 0.000491
608 0.000473
609 0.000470
610 0.000477
611 0.000493
612 0.000510
613 0.000521
614 0.000523
615 0.000526
616 0.000528
617 0.000527
618 0.000522
619 0.000526
620 0.000511
621 0.000501
622 0.000504
623 0.000505
624 0.000498
625 0.000501
626 0.000506
627 0.000496
628 0.000487
629 0.000472
630 0.000466
631 0.000459
632 0.000452
633 0.000433
634 0.000427
635 0.000421
636 0.000418
637 0.000415
638 0.000411
639 0.000411
640 0.000413
641 0.000409
642 0.000400
643 0.000390
644 0.000378
645 0.000367
646 0.000353
647 0.000338
648 0.000329
649 0.000331
650 0.000342
651 0.000361
652 0.000377
653 0.000394
654 0.000409
655 0.000416
656 0.000409
657 0.000395
658 0.000376
659 0.000370
660 0.000372
661 0.000361
662 0.000350
663 0.000349
664 0.000354
665 0.000360
666 0.000369
667 0.000371
668 0.000372
669 0.000368
670 0.000377
671 0.000372
672 0.000359
673 0.000359
674 0.000364
675 0.000358
676 0.000349
677 0.000337
678 0.000327
679 0.000327
680 0.000324
681 0.000304
682 0.000296
683 0.000291
684 0.000296
685 0.000296
686 0.000292
687 0.000292
688 0.000302
689 0.000306
690 0.000308
691 0.000314
692 0.000318
693 0.000330
694 0.000337
695 0.000337
696 0.000343
697 0.000346
698 0.000348
699 0.000352
700 0.000352
701 0.000356
702 0.000367
703 0.000367
704 0.000362
705 0.000361
706 0.000363
707 0.000361
708 0.000369
709 0.000378
710 0.000390
711 0.000411
712 0.000414
713 0.000409
714 0.000402
715 0.000385
716 0.000365
717 0.000358
718 0.000350
719 0.000343
720 0.000346
721 0.000346
722 0.000352
723 0.000355
724 0.000362
725 0.000361
726 0.000352
727 0.000338
728 0.000325
729 0.000313
730 0.000312
731 0.000309
732 0.000308
733 0.000306
734 0.000299
735 0.000283
736 0.000272
737 0.000260
738 0.000250
739 0.000245
740 0.000245
741 0.000247
742 0.000253
743 0.000256
744 0.000258
745 0.000255
746 0.000248
747 0.000251
748 0.000244
749 0.000236
750 0.000238
751 0.000236
752 0.000231
753 0.000224
754 0.000217
755 0.000210
756 0.000202
757 0.000196
758 0.000206
759 0.000205
760 0.000209
761 0.000217
762 0.000223
763 0.000216
764 0.000216
765 0.000215
766 0.000218
767 0.000219
768 0.000220
769 0.000220
770 0.000226
771 0.000231
772 0.000236
773 0.000247
774 0.000249
775 0.000249
776 0.000244
777 0.000237
778 0.000229
779 0.000233
780 0.000235
781 0.000248
782 0.000258
783 0.000267
784 0.000269
785 0.000272
786 0.000268
787 0.000268
788 0.000258
789 0.000253
790 0.000251
791 0.000251
792 0.000256
793 0.000256
794 0.000263
795 0.000272
796 0.000273
797 0.000270
798 0.000276
799 0.000270
800 0.000276
801 0.000278
802 0.000275
803 0.000279
804 0.000283
805 0.000274
806 0.000260
807 0.000243
808 0.000225
809 0.000204
