# i correlation
1 0.002898
2 0.002712
3 0.002529
4 0.002364
5 0.002255
6 0.002167
7 0.002084
8 0.002009
9 0.001945
10 0.001880
11 0.001810
12 0.001744
13 0.001701
14 0.001659
15 0.001633
16 0.001596
17 0.001557
18 0.001518
19 0.001470
20 0.001407
21 0.001352
22 0.001297
23 0.001263
24 0.001234
25 0.001211
26 0.001197
27 0.001193
28 0.001179
29 0.001160
30 0.001164
31 0.001158
32 0.001161
33 0.001173
34 0.001196
35 0.001193
36 0.001213
37 0.001252
38 0.001295
39 0.001305
40 0.001313
41 0.001322
42 0.001325
43 0.001315
44 0.001287
45 0.001254
46 0.001233
47 0.001232
48 0.001220
49 0.001228
50 0.001243
51 0.001252
52 0.001278
53 0.001304
54 0.001312
55 0.001320
56 0.001315
57 0.001332
58 0.001335
59 0.001321
60 0.001308
61 0.001281
62 0.001260
63 0.001235
64 0.001220
65 0.001196
66 0.001176
67 0.001148
68 0.001115
69 0.001068
70 0.001041
71 0.001025
72 0.000991
73 0.000954
74 0.000919
75 0.000888
76 0.000886
77 0.000881
78 0.000875
79 0.000880
80 0.000884
81 0.000906
82 0.000915
83 0.000938
84 0.000942
85 0.000942
86 0.000940
87 0.000938
88 0.000951
89 0.000949
90 0.000951
91 0.000974
92 0.000984
93 0.000980
94 0.000990
95 0.000998
96 0.001010
97 0.001008
98 0.001018
99 0.001011
100 0.000993
101 0.000973
102 0.000936
103 0.000895
104 0.000877
105 0.000869
106 0.000871
107 0.000867
108 0.000859
109 0.000843
110 0.000814
111 0.000790
112 0.000768
113 0.000740
114 0.000721
115 0.000712
116 0.000698
117 0.000699
118 0.000706
119 0.000726
120 0.000752
121 0.000758
122 0.000754
123 0.000742
124 0.000727
125 0.000732
126 0.000730
127 0.000723
128 0.000709
129 0.000703
130 0.000709
131 0.000722
132 0.000742
133 0.000754
134 0.000762
135 0.000777
136 0.000794
137 0.000805
138 0.000835
139 0.000845
140 0.000839
141 0.000848
142 0.000844
143 0.000855
144 0.000862
145 0.000875
146 0.000886
147 0.000901
148 0.000912
149 0.000925
150 0.000938
151 0.000941
152 0.000922
153 0.000907
154 0.000887
155 0.000862
156 0.000839
157 0.000838
158 0.000852
159 0.000869
160 0.000868
161 0.000851
162 0.000826
163 0.000795
164 0.000775
165 0.000761
166 0.000757
167 0.000760
168 0.000763
169 0.000760
170 0.000754
171 0.000754
172 0.000758
173 0.000754
174 0.000751
175 0.000749
176 0.000737
177 0.000754
178 0.000775
179 0.000775
180 0.000791
181 0.000801
182 0.000824
183 0.000842
184 0.000850
185 0.000853
186 0.000845
187 0.000853
188 0.000854
189 0.000838
190 0.000823
191 0.000805
192 0.000796
193 0.000785
194 0.000743
195 0.000706
196 0.000687
197 0.000689
198 0.000683
199 0.000668
200 0.000660
201 0.000621
202 0.000581
203 0.000549
204 0.000515
205 0.000481
206 0.000451
207 0.000412
208 0.000377
209 0.000354
210 0.000332
211 0.000320
212 0.000320
213 0.000334
214 0.000368
215 0.000414
216 0.000450
217 0.000470
218 0.000477
219 0.000455
220 0.000431
221 0.000409
222 0.000385
223 0.000389
224 0.000414
225 0.000436
226 0.000466
227 0.000489
228 0.000506
229 0.000506
230 0.000540
231 0.000573
232 0.000611
233 0.000644
234 0.000689
235 0.000724
236 0.000740
237 0.000760
238 0.000758
239 0.000754
240 0.000762
241 0.000769
242 0.000774
243 0.000750
244 0.000728
245 0.000707
246 0.000684
247 0.000664
248 0.000640
249 0.000618
250 0.000599
251 0.000598
252 0.000591
253 0.000582
254 0.000585
255 0.000578
256 0.000557
257 0.000546
258 0.000519
259 0.000489
260 0.000444
261 0.000383
262 0.000333
263 0.000288
264 0.000269
265 0.000255
266 0.000261
267 0.000269
268 0.000277
269 0.000297
270 0.000317
271 0.000330
272 0.000340
273 0.000361
274 0.000388
275 0.000412
276 0.000426
277 0.000437
278 0.000448
279 0.000458
280 0.000466
281 0.000461
282 0.000462
283 0.000455
284 0.000452
285 0.000454
286 0.000454
287 0.000452
288 0.000465
289 0.000487
290 0.000491
291 0.000507
292 0.000511
293 0.000510
294 0.000525
295 0.000536
296 0.000551
297 0.000569
298 0.000583
299 0.000592
300 0.000588
301 0.000572
302 0.000556
303 0.000530
304 0.000510
305 0.000491
306 0.000486
307 0.000493
308 0.000507
309 0.000526
310 0.000529
311 0.000526
312 0.000530
313 0.000525
314 0.000491
315 0.000462
316 0.000457
317 0.000468
318 0.000491
319 0.000519
320 0.000526
321 0.000527
322 0.000525
323 0.000525
324 0.000542
325 0.000576
326 0.000613
327 0.000626
328 0.000626
329 0.000613
330 0.000598
331 0.000586
332 0.000616
333 0.000642
334 0.000665
335 0.000708
336 0.000754
337 0.000808
338 0.000852
339 0.000868
340 0.000877
341 0.000872
342 0.000863
343 0.000851
344 0.000819
345 0.000786
346 0.000762
347 0.000754
348 0.000730
349 0.000710
350 0.000705
351 0.000703
352 0.000700
353 0.000698
354 0.000687
355 0.000682
356 0.000651
357 0.000622
358 0.000587
359 0.000559
360 0.000556
361 0.000525
362 0.000499
363 0.000480
364 0.000456
365 0.000431
366 0.000420
367 0.000395
368 0.000370
369 0.000359
370 0.000350
371 0.000356
372 0.000351
373 0.000368
374 0.000389
375 0.000417
376 0.000431
377 0.000443
378 0.000458
379 0.000479
380 0.000495
381 0.000485
382 0.000468
383 0.000455
384 0.000451
385 0.000474
386 0.000467
387 0.000468
388 0.000463
389 0.000470
390 0.000504
391 0.000524
392 0.000551
393 0.000564
394 0.000569
395 0.000562
396 0.000565
397 0.000563
398 0.000569
399 0.000549
400 0.000534
401 0.000519
402 0.000502
403 0.000482
404 0.000465
405 0.000446
406 0.000432
407 0.000418
408 0.000434
409 0.000459
410 0.000469
411 0.000481
412 0.000480
413 0.000490
414 0.000482
415 0.000487
416 0.000495
417 0.000518
418 0.000550
419 0.000583
420 0.000600
421 0.000608
422 0.000593
423 0.000588
424 0.000592
425 0.000580
426 0.000563
427 0.000542
428 0.000538
429 0.000523
430 0.000513
431 0.000507
432 0.000508
433 0.000491
434 0.000484
435 0.000467
436 0.000442
437 0.000412
438 0.000381
439 0.000351
440 0.000324
441 0.000290
442 0.000260
443 0.000234
444 0.000206
445 0.000187
446 0.000168
447 0.000161
448 0.000154
449 0.000158
450 0.000166
451 0.000191
452 0.000206
453 0.000195
454 0.000184
455 0.000187
456 0.000191
457 0.000201
458 0.000226
459 0.000243
460 0.000249
461 0.000263
462 0.000271
463 0.000270
464 0.000265
465 0.000252
466 0.000254
467 0.000258
468 0.000275
469 0.000292
470 0.000316
471 0.000335
472 0.000357
473 0.000375
474 0.000390
475 0.000415
476 0.000437
477 0.000465
478 0.000481
479 0.000497
480 0.000495
481 0.000492
482 0.000490
483 0.000490
484 0.000499
485 0.000521
486 0.000545
487 0.000558
488 0.000559
489 0.000558
490 0.000556
491 0.000557
492 0.000573
493 0.000567
494 0.000550
495 0.000516
496 0.000481
497 0.000455
498 0.000427
499 0.000414
500 0.000398
501 0.000367
502 0.000326
503 0.000265
504 0.000228
505 0.000208
506 0.000195
507 0.000203
508 0.000203
509 0.000211
510 0.000216
511 0.000224
512 0.000230
513 0.000235
514 0.000245
515 0.000261
516 0.000281
517 0.000309
518 0.000329
519 0.000355
520 0.000377
521 0.000381
522 0.000390
523 0.000406
524 0.000414
525 0.000421
526 0.000432
527 0.000436
528 0.000436
529 0.000443
530 0.000442
531 0.000427
532 0.000406
533 0.000397
534 0.000396
535 0.000405
536 0.000405
537 0.000407
538 0.000404
539 0.000399
540 0.000394
541 0.000390
542 0.000388
543 0.000393
544 0.000392
545 0.000380
546 0.000369
547 0.000351
548 0.000323
549 0.000297
550 0.000274
551 0.000271
552 0.000275
553 0.000279
554 0.000275
555 0.000260
556 0.000242
557 0.000240
558 0.000237
559 0.000226
560 0.000225
561 0.000219
562 0.000221
563 0.000231
564 0.000240
565 0.000236
566 0.000236
567 0.000247
568 0.000252
569 0.000265
570 0.000281
571 0.000298
572 0.000315
573 0.000332
574 0.000326
575 0.000329
576 0.000351
577 0.000374
578 0.000408
579 0.000432
580 0.000449
581 0.000446
582 0.000439
583 0.000440
584 0.000430
585 0.000422
586 0.000413
587 0.000404
588 0.000389
589 0.000373
590 0.000361
591 0.000353
592 0.000332
593 0.000314
594 0.000293
595 0.000271
596 0.000252
597 0.000238
598 0.000217
599 0.000199
600 0.000167
601 0.000146
602 0.000126
603 0.000109
604 0.000095
605 0.000089
606 0.000099
607 0.000105
608 0.000118
609 0.000120
610 0.000120
611 0.000114
612 0.000115
613 0.000114
614 0.000119
615 0.000113
616 0.000102
617 0.000106
618 0.000104
619 0.000096
620 0.000092
621 0.000088
622 0.000088
623 0.000085
624 0.000096
625 0.000097
626 0.000098
627 0.000103
628 0.000100
629 0.000105
630 0.000116
631 0.000111
632 0.000111
633 0.000111
634 0.000109
635 0.000117
636 0.000126
637 0.000125
638 0.000126
639 0.000122
640 0.000116
641 0.000102
642 0.000078
643 0.000063
644 0.000056
645 0.000067
646 0.000078
647 0.000085
648 0.000097
649 0.000114
650 0.000132
651 0.000149
652 0.000153
653 0.000144
654 0.000141
655 0.000141
656 0.000140
657 0.000139
658 0.000133
659 0.000138
660 0.000146
661 0.000150
662 0.000151
663 0.000144
664 0.000145
665 0.000155
666 0.000168
667 0.000186
668 0.000201
669 0.000203
670 0.000202
671 0.000196
672 0.000189
673 0.000182
674 0.000176
675 0.000175
676 0.000183
677 0.000188
678 0.000192
679 0.000203
680 0.000188
681 0.000162
682 0.000147
683 0.000118
684 0.000108
685 0.000102
686 0.000083
687 0.000076
688 0.000066
689 0.000060
690 0.000054
691 0.000049
692 0.000050
693 0.000048
694 0.000038
695 0.000021
696 -0.000009
697 -0.000026
698 -0.000033
699 -0.000035
700 -0.000035
701 -0.000043
702 -0.000047
703 -0.000045
704 -0.000042
705 -0.000033
706 -0.000024
707 -0.000015
708 -0.000018
709 -0.000019
710 -0.000011
711 -0.000002
712 0.000012
713 0.000018
714 0.000021
715 0.000019
716 0.000023
717 0.000038
718 0.000053
719 0.000053
720 0.000047
721 0.000030
722 0.000026
723 0.000020
724 0.000013
725 0.000005
726 0.000006
727 -0.000004
728 -0.000010
729 -0.000009
730 -0.000014
731 -0.000011
732 -0.000005
733 -0.000007
734 -0.000002
735 0.000006
736 0.000003
737 0.000005
738 -0.000005
739 -0.000014
740 -0.000030
741 -0.000049
742 -0.000069
743 -0.000088
744 -0.000092
745 -0.000091
746 -0.000091
747 -0.000085
748 -0.000082
749 -0.000077
750 -0.000066
751 -0.000064
752 -0.000066
753 -0.000067
754 -0.000074
755 -0.000075
756 -0.000069
757 -0.000065
758 -0.000056
759 -0.000050
760 -0.000040
761 -0.000020
762 -0.000021
763 -0.000009
764 0.000007
765 0.000022
766 0.000036
767 0.000049
768 0.000055
769 0.000059
770 0.000062
771 0.000068
772 0.000071
773 0.000073
774 0.000073
775 0.000077
776 0.000088
777 0.000096
778 0.000090
779 0.000083
780 0.000060
781 0.000042
782 0.000027
783 0.000014
784 0.000000
785 -0.000020
786 -0.000038
787 -0.000050
788 -0.000059
789 -0.000064
790 -0.000067
791 -0.000068
792 -0.000073
793 -0.000078
794 -0.000080
795 -0.000080
796 -0.000081
797 -0.000081
798 -0.000078
799 -0.000071
800 -0.000071
801 -0.000074
802 -0.000077
803 -0.000081
804 -0.000079
805 -0.000069
806 -0.000064
807 -0.000057
808 -0.000049
809 -0.000036
