# i correlation
1 0.002416
2 0.002272
3 0.002177
4 0.002075
5 0.001980
6 0.001893
7 0.001821
8 0.001771
9 0.001712
10 0.001664
11 0.001622
12 0.001593
13 0.001560
14 0.001533
15 0.001515
16 0.001485
17 0.001451
18 0.001429
19 0.001422
20 0.001406
21 0.001386
22 0.001388
23 0.001383
24 0.001379
25 0.001377
26 0.001384
27 0.001399
28 0.001411
29 0.001409
30 0.001389
31 0.001373
32 0.001366
33 0.001351
34 0.001334
35 0.001336
36 0.001336
37 0.001338
38 0.001338
39 0.001342
40 0.001360
41 0.001359
42 0.001353
43 0.001345
44 0.001346
45 0.001357
46 0.001355
47 0.001359
48 0.001368
49 0.001374
50 0.001379
51 0.001398
52 0.001403
53 0.001395
54 0.001403
55 0.001416
56 0.001399
57 0.001394
58 0.001394
59 0.001393
60 0.001386
61 0.001363
62 0.001349
63 0.001339
64 0.001317
65 0.001303
66 0.001289
67 0.001273
68 0.001249
69 0.001242
70 0.001235
71 0.001222
72 0.001215
73 0.001232
74 0.001233
75 0.001226
76 0.001211
77 0.001209
78 0.001210
79 0.001214
80 0.001218
81 0.001222
82 0.001214
83 0.001210
84 0.001216
85 0.001226
86 0.001235
87 0.001229
88 0.001221
89 0.001204
90 0.001176
91 0.001141
92 0.001127
93 0.001119
94 0.001103
95 0.001109
96 0.001091
97 0.001101
98 0.001101
99 0.001091
100 0.001083
101 0.001049
102 0.001038
103 0.001038
104 0.001025
105 0.001027
106 0.001025
107 0.001033
108 0.001025
109 0.001017
110 0.001034
111 0.001046
112 0.001053
113 0.001046
114 0.001054
115 0.001061
116 0.001050
117 0.001054
118 0.001042
119 0.001026
120 0.001007
121 0.001021
122 0.001032
123 0.001026
124 0.001014
125 0.001002
126 0.000987
127 0.000978
128 0.000987
129 0.000992
130 0.001000
131 0.001000
132 0.001005
133 0.001036
134 0.001044
135 0.001037
136 0.001032
137 0.001041
138 0.001045
139 0.001037
140 0.001024
141 0.001000
142 0.000990
143 0.000987
144 0.000978
145 0.000973
146 0.000948
147 0.000947
148 0.000929
149 0.000912
150 0.000909
151 0.000899
152 0.000874
153 0.000860
154 0.000852
155 0.000841
156 0.000818
157 0.000826
158 0.000831
159 0.000835
160 0.000833
161 0.000839
162 0.000855
163 0.000857
164 0.000864
165 0.000867
166 0.000878
167 0.000874
168 0.000852
169 0.000840
170 0.000838
171 0.000815
172 0.000811
173 0.000806
174 0.000790
175 0.000755
176 0.000740
177 0.000741
178 0.000729
179 0.000729
180 0.000735
181 0.000753
182 0.000778
183 0.000796
184 0.000832
185 0.000861
186 0.000863
187 0.000869
188 0.000868
189 0.000856
190 0.000856
191 0.000859
192 0.000864
193 0.000859
194 0.000849
195 0.000868
196 0.000883
197 0.000881
198 0.000873
199 0.000852
200 0.000833
201 0.000794
202 0.000777
203 0.000750
204 0.000712
205 0.000704
206 0.000697
207 0.000683
208 0.000672
209 0.000681
210 0.000678
211 0.000671
212 0.000667
213 0.000650
214 0.000652
215 0.000647
216 0.000626
217 0.000633
218 0.000648
219 0.000659
220 0.000667
221 0.000683
222 0.000705
223 0.000714
224 0.000739
225 0.000748
226 0.000750
227 0.000757
228 0.000779
229 0.000792
230 0.000795
231 0.000795
232 0.000784
233 0.000789
234 0.000779
235 0.000759
236 0.000751
237 0.000735
238 0.000726
239 0.000719
240 0.000708
241 0.000687
242 0.000680
243 0.000669
244 0.000673
245 0.000675
246 0.000671
247 0.000684
248 0.000687
249 0.000683
250 0.000711
251 0.000727
252 0.000742
253 0.000744
254 0.000751
255 0.000761
256 0.000769
257 0.000765
258 0.000762
259 0.000757
260 0.000746
261 0.000734
262 0.000732
263 0.000720
264 0.000715
265 0.000712
266 0.000715
267 0.000704
268 0.000693
269 0.000694
270 0.000707
271 0.000737
272 0.000754
273 0.000772
274 0.000786
275 0.000782
276 0.000793
277 0.000790
278 0.000784
279 0.000786
280 0.000791
281 0.000779
282 0.000782
283 0.000767
284 0.000762
285 0.000740
286 0.000694
287 0.000657
288 0.000640
289 0.000609
290 0.000583
291 0.000572
292 0.000565
293 0.000565
294 0.000575
295 0.000590
296 0.000586
297 0.000581
298 0.000582
299 0.000580
300 0.000577
301 0.000570
302 0.000564
303 0.000570
304 0.000580
305 0.000585
306 0.000593
307 0.000626
308 0.000642
309 0.000656
310 0.000675
311 0.000674
312 0.000683
313 0.000699
314 0.000701
315 0.000705
316 0.000711
317 0.000734
318 0.000730
319 0.000724
320 0.000720
321 0.000724
322 0.000708
323 0.000694
324 0.000683
325 0.000684
326 0.000681
327 0.000673
328 0.000669
329 0.000678
330 0.000666
331 0.000664
332 0.000657
333 0.000645
334 0.000636
335 0.000622
336 0.000628
337 0.000609
338 0.000582
339 0.000577
340 0.000570
341 0.000553
342 0.000542
343 0.000534
344 0.000536
345 0.000555
346 0.000566
347 0.000574
348 0.000575
349 0.000589
350 0.000600
351 0.000596
352 0.000599
353 0.000613
354 0.000613
355 0.000617
356 0.000605
357 0.000612
358 0.000621
359 0.000622
360 0.000621
361 0.000624
362 0.000624
363 0.000616
364 0.000605
365 0.000581
366 0.000560
367 0.000547
368 0.000544
369 0.000550
370 0.000545
371 0.000532
372 0.000531
373 0.000529
374 0.000516
375 0.000505
376 0.000497
377 0.000495
378 0.000495
379 0.000493
380 0.000497
381 0.000509
382 0.000510
383 0.000508
384 0.000500
385 0.000487
386 0.000490
387 0.000502
388 0.000508
389 0.000514
390 0.000518
391 0.000520
392 0.000522
393 0.000520
394 0.000522
395 0.000525
396 0.000505
397 0.000498
398 0.000490
399 0.000483
400 0.000459
401 0.000442
402 0.000436
403 0.000428
404 0.000419
405 0.000422
406 0.000421
407 0.000423
408 0.000418
409 0.000422
410 0.000431
411 0.000438
412 0.000439
413 0.000438
414 0.000436
415 0.000437
416 0.000441
417 0.000450
418 0.000460
419 0.000460
420 0.000455
421 0.000455
422 0.000452
423 0.000429
424 0.000412
425 0.000394
426 0.000396
427 0.000391
428 0.000389
429 0.000392
430 0.000376
431 0.000363
432 0.000353
433 0.000347
434 0.000336
435 0.000332
436 0.000333
437 0.000327
438 0.000332
439 0.000331
440 0.000333
441 0.000336
442 0.000347
443 0.000354
444 0.000365
445 0.000359
446 0.000355
447 0.000365
448 0.000375
449 0.000367
450 0.000383
451 0.000380
452 0.000377
453 0.000379
454 0.000369
455 0.000363
456 0.000349
457 0.000355
458 0.000363
459 0.000354
460 0.000352
461 0.000356
462 0.000364
463 0.000363
464 0.000370
465 0.000372
466 0.000375
467 0.000387
468 0.000395
469 0.000402
470 0.000399
471 0.000377
472 0.000367
473 0.000343
474 0.000332
475 0.000320
476 0.000307
477 0.000285
478 0.000267
479 0.000260
480 0.000279
481 0.000276
482 0.000266
483 0.000260
484 0.000257
485 0.000249
486 0.000232
487 0.000221
488 0.000217
489 0.000204
490 0.000201
491 0.000202
492 0.000212
493 0.000220
494 0.000225
495 0.000239
496 0.000238
497 0.000242
498 0.000234
499 0.000219
500 0.000217
501 0.000217
502 0.000223
503 0.000232
504 0.000237
505 0.000237
506 0.000245
507 0.000252
508 0.000256
509 0.000268
510 0.000285
511 0.000285
512 0.000296
513 0.000300
514 0.000289
515 0.000284
516 0.000295
517 0.000297
518 0.000276
519 0.000274
520 0.000268
521 0.000270
522 0.000273
523 0.000275
524 0.000280
525 0.000278
526 0.000275
527 0.000279
528 0.000276
529 0.000272
530 0.000262
531 0.000262
532 0.000273
533 0.000269
534 0.000269
535 0.000275
536 0.000276
537 0.000268
538 0.000262
539 0.000251
540 0.000238
541 0.000234
542 0.000223
543 0.000210
544 0.000204
545 0.000205
546 0.000202
547 0.000209
548 0.000220
549 0.000220
550 0.000230
551 0.000241
552 0.000235
553 0.000228
554 0.000228
555 0.000243
556 0.000247
557 0.000240
558 0.000231
559 0.000223
560 0.000216
561 0.000213
562 0.000206
563 0.000198
564 0.000195
565 0.000195
566 0.000184
567 0.000191
568 0.000188
569 0.000179
570 0.000165
571 0.000160
572 0.000155
573 0.000151
574 0.000158
575 0.000175
576 0.000183
577 0.000192
578 0.000195
579 0.000197
580 0.000195
581 0.000197
582 0.000205
583 0.000222
584 0.000216
585 0.000201
586 0.000201
587 0.000202
588 0.000188
589 0.000182
590 0.000194
591 0.000206
592 0.000215
593 0.000203
594 0.000185
595 0.000190
596 0.000169
597 0.000154
598 0.000146
599 0.000131
600 0.000127
601 0.000127
602 0.000150
603 0.000168
604 0.000169
605 0.000185
606 0.000193
607 0.000209
608 0.000228
609 0.000235
610 0.000240
611 0.000254
612 0.000261
613 0.000258
614 0.000255
615 0.000239
616 0.000231
617 0.000228
618 0.000221
619 0.000221
620 0.000230
621 0.000239
622 0.000251
623 0.000259
624 0.000269
625 0.000274
626 0.000270
627 0.000270
628 0.000267
629 0.000259
630 0.000254
631 0.000256
632 0.000257
633 0.000253
634 0.000260
635 0.000265
636 0.000264
637 0.000265
638 0.000259
639 0.000249
640 0.000249
641 0.000248
642 0.000242
643 0.000231
644 0.000219
645 0.000214
646 0.000208
647 0.000200
648 0.000195
649 0.000199
650 0.000202
651 0.000198
652 0.000198
653 0.000205
654 0.000201
655 0.000188
656 0.000167
657 0.000159
658 0.000146
659 0.000141
660 0.000147
661 0.000150
662 0.000167
663 0.000176
664 0.000175
665 0.000182
666 0.000184
667 0.000189
668 0.000195
669 0.000202
670 0.000211
671 0.000218
672 0.000228
673 0.000232
674 0.000239
675 0.000252
676 0.000257
677 0.000267
678 0.000272
679 0.000267
680 0.000266
681 0.000267
682 0.000259
683 0.000249
684 0.000227
685 0.000209
686 0.000197
687 0.000178
688 0.000170
689 0.000171
690 0.000168
691 0.000159
692 0.000154
693 0.000149
694 0.000140
695 0.000136
696 0.000124
697 0.000120
698 0.000120
699 0.000117
700 0.000120
701 0.000113
702 0.000112
703 0.000105
704 0.000102
705 0.000098
706 0.000099
707 0.000089
708 0.000083
709 0.000075
710 0.000064
711 0.000044
712 0.000037
713 0.000027
714 0.000020
715 0.000019
716 0.000017
717 0.000009
718 0.000006
719 0.000006
720 0.000008
721 0.000015
722 0.000018
723 0.000016
724 0.000022
725 0.000027
726 0.000032
727 0.000024
728 0.000030
729 0.000034
730 0.000032
731 0.000030
732 0.000029
733 0.000032
734 0.000037
735 0.000041
736 0.000040
737 0.000039
738 0.000042
739 0.000041
740 0.000049
741 0.000057
742 0.000055
743 0.000054
744 0.000051
745 0.000053
746 0.000051
747 0.000049
748 0.000059
749 0.000063
750 0.000060
751 0.000053
752 0.000051
753 0.000045
754 0.000035
755 0.000025
756 0.000023
757 0.000018
758 0.000010
759 0.000004
760 0.000001
761 0.000003
762 -0.000000
763 -0.000007
764 -0.000005
765 0.000001
766 -0.000003
767 0.000000
768 0.000004
769 0.000007
770 0.000009
771 0.000000
772 -0.000002
773 -0.000004
774 -0.000000
775 0.000008
776 0.000016
777 0.000024
778 0.000026
779 0.000031
780 0.000036
781 0.000036
782 0.000027
783 0.000030
784 0.000035
785 0.000033
786 0.000033
787 0.000037
788 0.000035
789 0.000043
790 0.000052
791 0.000053
792 0.000061
793 0.000065
794 0.000062
795 0.000063
796 0.000059
797 0.000059
798 0.000061
799 0.000059
800 0.000057
801 0.000063
802 0.000060
803 0.000061
804 0.000067
805 0.000072
806 0.000073
807 0.000079
808 0.000076
809 0.000075
