# i correlation
1 0.002452
2 0.002299
3 0.002172
4 0.002061
5 0.001982
6 0.001921
7 0.001858
8 0.001816
9 0.001785
10 0.001758
11 0.001730
12 0.001730
13 0.001715
14 0.001695
15 0.001702
16 0.001680
17 0.001668
18 0.001651
19 0.001643
20 0.001631
21 0.001610
22 0.001583
23 0.001574
24 0.001568
25 0.001574
26 0.001574
27 0.001586
28 0.001611
29 0.001623
30 0.001637
31 0.001632
32 0.001607
33 0.001590
34 0.001569
35 0.001559
36 0.001535
37 0.001508
38 0.001483
39 0.001467
40 0.001454
41 0.001432
42 0.001404
43 0.001371
44 0.001347
45 0.001328
46 0.001294
47 0.001276
48 0.001270
49 0.001254
50 0.001260
51 0.001266
52 0.001259
53 0.001251
54 0.001255
55 0.001254
56 0.001265
57 0.001281
58 0.001277
59 0.001256
60 0.001260
61 0.001265
62 0.001263
63 0.001270
64 0.001282
65 0.001277
66 0.001265
67 0.001242
68 0.001231
69 0.001233
70 0.001227
71 0.001209
72 0.001184
73 0.001171
74 0.001144
75 0.001138
76 0.001139
77 0.001116
78 0.001118
79 0.001114
80 0.001085
81 0.001094
82 0.001105
83 0.001099
84 0.001090
85 0.001079
86 0.001058
87 0.001055
88 0.001048
89 0.001034
90 0.001020
91 0.001005
92 0.001002
93 0.001004
94 0.001010
95 0.000988
96 0.000978
97 0.000978
98 0.000981
99 0.000978
100 0.000970
101 0.000952
102 0.000953
103 0.000951
104 0.000944
105 0.000960
106 0.000976
107 0.000979
108 0.000965
109 0.000965
110 0.000956
111 0.000948
112 0.000941
113 0.000928
114 0.000915
115 0.000903
116 0.000880
117 0.000854
118 0.000845
119 0.000837
120 0.000831
121 0.000826
122 0.000832
123 0.000825
124 0.000829
125 0.000818
126 0.000810
127 0.000811
128 0.000809
129 0.000806
130 0.000799
131 0.000778
132 0.000768
133 0.000784
134 0.000778
135 0.000777
136 0.000774
137 0.000765
138 0.000747
139 0.000761
140 0.000749
141 0.000746
142 0.000754
143 0.000760
144 0.000773
145 0.000789
146 0.000791
147 0.000787
148 0.000793
149 0.000803
150 0.000815
151 0.000829
152 0.000839
153 0.000844
154 0.000855
155 0.000849
156 0.000843
157 0.000838
158 0.000828
159 0.000806
160 0.000802
161 0.000809
162 0.000822
163 0.000835
164 0.000844
165 0.000835
166 0.000835
167 0.000835
168 0.000832
169 0.000832
170 0.000829
171 0.000802
172 0.000789
173 0.000795
174 0.000804
175 0.000828
176 0.000846
177 0.000835
178 0.000827
179 0.000832
180 0.000822
181 0.000818
182 0.000817
183 0.000825
184 0.000834
185 0.000845
186 0.000838
187 0.000832
188 0.000832
189 0.000840
190 0.000842
191 0.000842
192 0.000837
193 0.000847
194 0.000856
195 0.000856
196 0.000832
197 0.000810
198 0.000790
199 0.000768
200 0.000758
201 0.000743
202 0.000732
203 0.000736
204 0.000746
205 0.000757
206 0.000765
207 0.000767
208 0.000790
209 0.000812
210 0.000827
211 0.000837
212 0.000866
213 0.000876
214 0.000891
215 0.000893
216 0.000890
217 0.000898
218 0.000911
219 0.000914
220 0.000915
221 0.000914
222 0.000898
223 0.000894
224 0.000896
225 0.000896
226 0.000889
227 0.000883
228 0.000855
229 0.000829
230 0.000817
231 0.000799
232 0.000794
233 0.000807
234 0.000810
235 0.000818
236 0.000837
237 0.000846
238 0.000864
239 0.000885
240 0.000907
241 0.000913
242 0.000928
243 0.000937
244 0.000945
245 0.000961
246 0.000964
247 0.000943
248 0.000948
249 0.000950
250 0.000940
251 0.000951
252 0.000969
253 0.000956
254 0.000935
255 0.000924
256 0.000910
257 0.000905
258 0.000892
259 0.000858
260 0.000836
261 0.000829
262 0.000806
263 0.000803
264 0.000799
265 0.000785
266 0.000788
267 0.000794
268 0.000803
269 0.000824
270 0.000847
271 0.000848
272 0.000861
273 0.000876
274 0.000868
275 0.000856
276 0.000859
277 0.000857
278 0.000867
279 0.000872
280 0.000858
281 0.000877
282 0.000885
283 0.000903
284 0.000893
285 0.000874
286 0.000856
287 0.000843
288 0.000839
289 0.000825
290 0.000808
291 0.000800
292 0.000789
293 0.000798
294 0.000812
295 0.000823
296 0.000838
297 0.000840
298 0.000845
299 0.000842
300 0.000847
301 0.000853
302 0.000870
303 0.000877
304 0.000863
305 0.000845
306 0.000842
307 0.000831
308 0.000840
309 0.000856
310 0.000847
311 0.000846
312 0.000839
313 0.000837
314 0.000847
315 0.000847
316 0.000830
317 0.000833
318 0.000844
319 0.000850
320 0.000841
321 0.000843
322 0.000832
323 0.000837
324 0.000842
325 0.000826
326 0.000812
327 0.000809
328 0.000809
329 0.000805
330 0.000814
331 0.000811
332 0.000813
333 0.000816
334 0.000829
335 0.000823
336 0.000817
337 0.000819
338 0.000816
339 0.000817
340 0.000805
341 0.000789
342 0.000787
343 0.000790
344 0.000805
345 0.000827
346 0.000840
347 0.000839
348 0.000845
349 0.000857
350 0.000852
351 0.000849
352 0.000848
353 0.000831
354 0.000829
355 0.000818
356 0.000800
357 0.000794
358 0.000802
359 0.000806
360 0.000798
361 0.000763
362 0.000747
363 0.000733
364 0.000729
365 0.000736
366 0.000744
367 0.000736
368 0.000728
369 0.000719
370 0.000712
371 0.000705
372 0.000704
373 0.000702
374 0.000694
375 0.000698
376 0.000692
377 0.000694
378 0.000697
379 0.000696
380 0.000692
381 0.000685
382 0.000670
383 0.000645
384 0.000626
385 0.000624
386 0.000609
387 0.000595
388 0.000607
389 0.000599
390 0.000599
391 0.000591
392 0.000585
393 0.000580
394 0.000576
395 0.000561
396 0.000552
397 0.000540
398 0.000529
399 0.000508
400 0.000500
401 0.000488
402 0.000486
403 0.000487
404 0.000472
405 0.000474
406 0.000494
407 0.000513
408 0.000524
409 0.000534
410 0.000531
411 0.000520
412 0.000513
413 0.000514
414 0.000508
415 0.000513
416 0.000514
417 0.000511
418 0.000514
419 0.000518
420 0.000524
421 0.000525
422 0.000524
423 0.000524
424 0.000528
425 0.000521
426 0.000515
427 0.000510
428 0.000508
429 0.000500
430 0.000507
431 0.000514
432 0.000509
433 0.000507
434 0.000496
435 0.000481
436 0.000477
437 0.000471
438 0.000465
439 0.000466
440 0.000462
441 0.000461
442 0.000456
443 0.000453
444 0.000451
445 0.000449
446 0.000455
447 0.000455
448 0.000452
449 0.000449
450 0.000442
451 0.000445
452 0.000459
453 0.000477
454 0.000494
455 0.000490
456 0.000503
457 0.000506
458 0.000511
459 0.000509
460 0.000506
461 0.000489
462 0.000475
463 0.000474
464 0.000489
465 0.000488
466 0.000487
467 0.000481
468 0.000468
469 0.000453
470 0.000446
471 0.000446
472 0.000450
473 0.000444
474 0.000424
475 0.000406
476 0.000403
477 0.000399
478 0.000407
479 0.000420
480 0.000426
481 0.000440
482 0.000457
483 0.000465
484 0.000488
485 0.000502
486 0.000501
487 0.000514
488 0.000530
489 0.000522
490 0.000511
491 0.000517
492 0.000508
493 0.000514
494 0.000527
495 0.000531
496 0.000540
497 0.000548
498 0.000541
499 0.000535
500 0.000524
501 0.000514
502 0.000506
503 0.000505
504 0.000500
505 0.000484
506 0.000471
507 0.000465
508 0.000463
509 0.000462
510 0.000466
511 0.000465
512 0.000475
513 0.000489
514 0.000493
515 0.000500
516 0.000493
517 0.000483
518 0.000479
519 0.000474
520 0.000474
521 0.000491
522 0.000513
523 0.000526
524 0.000531
525 0.000531
526 0.000509
527 0.000495
528 0.000480
529 0.000475
530 0.000470
531 0.000464
532 0.000453
533 0.000448
534 0.000447
535 0.000454
536 0.000453
537 0.000450
538 0.000451
539 0.000454
540 0.000451
541 0.000453
542 0.000469
543 0.000477
544 0.000474
545 0.000471
546 0.000475
547 0.000473
548 0.000477
549 0.000477
550 0.000469
551 0.000474
552 0.000481
553 0.000475
554 0.000476
555 0.000460
556 0.000435
557 0.000421
558 0.000412
559 0.000413
560 0.000418
561 0.000414
562 0.000406
563 0.000408
564 0.000408
565 0.000408
566 0.000417
567 0.000437
568 0.000440
569 0.000458
570 0.000468
571 0.000471
572 0.000473
573 0.000455
574 0.000433
575 0.000424
576 0.000421
577 0.000410
578 0.000404
579 0.000403
580 0.000400
581 0.000407
582 0.000415
583 0.000425
584 0.000430
585 0.000429
586 0.000444
587 0.000463
588 0.000467
589 0.000466
590 0.000470
591 0.000480
592 0.000479
593 0.000478
594 0.000474
595 0.000465
596 0.000471
597 0.000469
598 0.000481
599 0.000488
600 0.000514
601 0.000521
602 0.000534
603 0.000534
604 0.000539
605 0.000545
606 0.000550
607 0.000550
608 0.000535
609 0.000520
610 0.000512
611 0.000512
612 0.000502
613 0.000485
614 0.000470
615 0.000472
616 0.000470
617 0.000474
618 0.000475
619 0.000478
620 0.000478
621 0.000486
622 0.000482
623 0.000478
624 0.000476
625 0.000466
626 0.000451
627 0.000444
628 0.000445
629 0.000442
630 0.000453
631 0.000459
632 0.000470
633 0.000479
634 0.000473
635 0.000469
636 0.000469
637 0.000464
638 0.000463
639 0.000462
640 0.000462
641 0.000462
642 0.000449
643 0.000441
644 0.000440
645 0.000441
646 0.000449
647 0.000455
648 0.000466
649 0.000474
650 0.000482
651 0.000488
652 0.000498
653 0.000501
654 0.000505
655 0.000499
656 0.000492
657 0.000479
658 0.000475
659 0.000472
660 0.000474
661 0.000482
662 0.000476
663 0.000469
664 0.000462
665 0.000451
666 0.000448
667 0.000447
668 0.000442
669 0.000449
670 0.000443
671 0.000442
672 0.000444
673 0.000447
674 0.000450
675 0.000452
676 0.000464
677 0.000465
678 0.000458
679 0.000451
680 0.000432
681 0.000425
682 0.000410
683 0.000397
684 0.000383
685 0.000363
686 0.000346
687 0.000338
688 0.000335
689 0.000345
690 0.000352
691 0.000357
692 0.000358
693 0.000357
694 0.000351
695 0.000332
696 0.000327
697 0.000324
698 0.000326
699 0.000325
700 0.000319
701 0.000306
702 0.000300
703 0.000291
704 0.000285
705 0.000282
706 0.000273
707 0.000253
708 0.000245
709 0.000245
710 0.000241
711 0.000236
712 0.000230
713 0.000227
714 0.000230
715 0.000227
716 0.000221
717 0.000217
718 0.000205
719 0.000183
720 0.000168
721 0.000154
722 0.000151
723 0.000139
724 0.000125
725 0.000116
726 0.000107
727 0.000105
728 0.000102
729 0.000106
730 0.000103
731 0.000097
732 0.000088
733 0.000080
734 0.000075
735 0.000066
736 0.000053
737 0.000062
738 0.000055
739 0.000054
740 0.000050
741 0.000042
742 0.000036
743 0.000031
744 0.000028
745 0.000029
746 0.000023
747 0.000011
748 0.000004
749 -0.000008
750 -0.000021
751 -0.000031
752 -0.000038
753 -0.000044
754 -0.000040
755 -0.000033
756 -0.000027
757 -0.000020
758 -0.000013
759 -0.000016
760 -0.000011
761 -0.000012
762 -0.000009
763 -0.000002
764 -0.000002
765 0.000007
766 0.000021
767 0.000032
768 0.000042
769 0.000038
770 0.000032
771 0.000022
772 0.000008
773 0.000001
774 -0.000002
775 0.000001
776 -0.000001
777 -0.000003
778 -0.000012
779 -0.000020
780 -0.000032
781 -0.000040
782 -0.000045
783 -0.000050
784 -0.000056
785 -0.000058
786 -0.000057
787 -0.000050
788 -0.000051
789 -0.000056
790 -0.000059
791 -0.000060
792 -0.000064
793 -0.000066
794 -0.000067
795 -0.000063
796 -0.000053
797 -0.000052
798 -0.000050
799 -0.000055
800 -0.000062
801 -0.000074
802 -0.000083
803 -0.000084
804 -0.000078
805 -0.000064
806 -0.000053
807 -0.000051
808 -0.000044
809 -0.000055
