# i correlation
1 0.002427
2 0.002252
3 0.002108
4 0.001987
5 0.001876
6 0.001768
7 0.001679
8 0.001595
9 0.001513
10 0.001431
11 0.001354
12 0.001291
13 0.001215
14 0.001160
15 0.001131
16 0.001101
17 0.001068
18 0.001044
19 0.001031
20 0.001020
21 0.001028
22 0.001054
23 0.001088
24 0.001137
25 0.001181
26 0.001213
27 0.001229
28 0.001248
29 0.001250
30 0.001279
31 0.001288
32 0.001278
33 0.001276
34 0.001289
35 0.001296
36 0.001290
37 0.001294
38 0.001285
39 0.001273
40 0.001257
41 0.001207
42 0.001177
43 0.001138
44 0.001107
45 0.001080
46 0.001051
47 0.001023
48 0.001010
49 0.000977
50 0.000951
51 0.000943
52 0.000947
53 0.000928
54 0.000897
55 0.000873
56 0.000849
57 0.000837
58 0.000820
59 0.000814
60 0.000805
61 0.000811
62 0.000806
63 0.000797
64 0.000799
65 0.000799
66 0.000788
67 0.000778
68 0.000781
69 0.000776
70 0.000776
71 0.000776
72 0.000784
73 0.000787
74 0.000785
75 0.000765
76 0.000789
77 0.000818
78 0.000841
79 0.000861
80 0.000843
81 0.000825
82 0.000823
83 0.000824
84 0.000811
85 0.000779
86 0.000762
87 0.000763
88 0.000732
89 0.000718
90 0.000694
91 0.000671
92 0.000666
93 0.000653
94 0.000653
95 0.000646
96 0.000633
97 0.000645
98 0.000642
99 0.000657
100 0.000691
101 0.000696
102 0.000731
103 0.000762
104 0.000789
105 0.000791
106 0.000783
107 0.000759
108 0.000728
109 0.000720
110 0.000691
111 0.000658
112 0.000623
113 0.000593
114 0.000568
115 0.000555
116 0.000540
117 0.000542
118 0.000546
119 0.000554
120 0.000554
121 0.000548
122 0.000553
123 0.000548
124 0.000558
125 0.000575
126 0.000589
127 0.000609
128 0.000605
129 0.000620
130 0.000654
131 0.000688
132 0.000690
133 0.000685
134 0.000689
135 0.000703
136 0.000702
137 0.000698
138 0.000677
139 0.000669
140 0.000646
141 0.000624
142 0.000619
143 0.000597
144 0.000576
145 0.000571
146 0.000553
147 0.000527
148 0.000506
149 0.000480
150 0.000456
151 0.000436
152 0.000428
153 0.000410
154 0.000412
155 0.000430
156 0.000444
157 0.000483
158 0.000515
159 0.000535
160 0.000549
161 0.000576
162 0.000579
163 0.000579
164 0.000559
165 0.000521
166 0.000503
167 0.000486
168 0.000464
169 0.000462
170 0.000474
171 0.000492
172 0.000492
173 0.000478
174 0.000454
175 0.000425
176 0.000412
177 0.000386
178 0.000352
179 0.000338
180 0.000310
181 0.000317
182 0.000327
183 0.000347
184 0.000347
185 0.000351
186 0.000363
187 0.000382
188 0.000389
189 0.000384
190 0.000366
191 0.000358
192 0.000363
193 0.000362
194 0.000366
195 0.000365
196 0.000358
197 0.000368
198 0.000375
199 0.000394
200 0.000412
201 0.000433
202 0.000438
203 0.000451
204 0.000467
205 0.000468
206 0.000489
207 0.000506
208 0.000524
209 0.000573
210 0.000589
211 0.000584
212 0.000569
213 0.000568
214 0.000571
215 0.000539
216 0.000499
217 0.000457
218 0.000426
219 0.000405
220 0.000370
221 0.000349
222 0.000348
223 0.000355
224 0.000350
225 0.000347
226 0.000322
227 0.000304
228 0.000283
229 0.000272
230 0.000258
231 0.000253
232 0.000238
233 0.000220
234 0.000227
235 0.000241
236 0.000259
237 0.000301
238 0.000329
239 0.000371
240 0.000410
241 0.000429
242 0.000437
243 0.000437
244 0.000458
245 0.000481
246 0.000514
247 0.000543
248 0.000544
249 0.000557
250 0.000562
251 0.000584
252 0.000580
253 0.000564
254 0.000556
255 0.000551
256 0.000539
257 0.000500
258 0.000474
259 0.000454
260 0.000437
261 0.000419
262 0.000409
263 0.000413
264 0.000409
265 0.000410
266 0.000405
267 0.000393
268 0.000362
269 0.000342
270 0.000342
271 0.000342
272 0.000332
273 0.000325
274 0.000327
275 0.000347
276 0.000367
277 0.000381
278 0.000383
279 0.000394
280 0.000395
281 0.000400
282 0.000405
283 0.000406
284 0.000412
285 0.000423
286 0.000442
287 0.000466
288 0.000493
289 0.000503
290 0.000531
291 0.000554
292 0.000557
293 0.000554
294 0.000552
295 0.000546
296 0.000547
297 0.000541
298 0.000538
299 0.000521
300 0.000505
301 0.000503
302 0.000496
303 0.000503
304 0.000503
305 0.000479
306 0.000462
307 0.000450
308 0.000440
309 0.000433
310 0.000418
311 0.000402
312 0.000404
313 0.000416
314 0.000419
315 0.000415
316 0.000412
317 0.000410
318 0.000415
319 0.000413
320 0.000383
321 0.000351
322 0.000326
323 0.000305
324 0.000302
325 0.000288
326 0.000276
327 0.000274
328 0.000276
329 0.000290
330 0.000308
331 0.000343
332 0.000359
333 0.000367
334 0.000386
335 0.000394
336 0.000402
337 0.000399
338 0.000418
339 0.000432
340 0.000441
341 0.000459
342 0.000476
343 0.000500
344 0.000500
345 0.000496
346 0.000497
347 0.000487
348 0.000486
349 0.000480
350 0.000463
351 0.000433
352 0.000406
353 0.000393
354 0.000364
355 0.000341
356 0.000326
357 0.000315
358 0.000308
359 0.000293
360 0.000272
361 0.000254
362 0.000245
363 0.000229
364 0.000234
365 0.000224
366 0.000216
367 0.000219
368 0.000204
369 0.000208
370 0.000206
371 0.000223
372 0.000237
373 0.000246
374 0.000246
375 0.000249
376 0.000256
377 0.000268
378 0.000277
379 0.000288
380 0.000297
381 0.000314
382 0.000330
383 0.000346
384 0.000337
385 0.000351
386 0.000353
387 0.000350
388 0.000337
389 0.000313
390 0.000291
391 0.000277
392 0.000246
393 0.000219
394 0.000190
395 0.000173
396 0.000177
397 0.000182
398 0.000178
399 0.000155
400 0.000129
401 0.000120
402 0.000096
403 0.000073
404 0.000049
405 0.000022
406 0.000005
407 -0.000002
408 0.000003
409 0.000013
410 0.000030
411 0.000037
412 0.000051
413 0.000067
414 0.000080
415 0.000095
416 0.000110
417 0.000113
418 0.000130
419 0.000139
420 0.000137
421 0.000151
422 0.000162
423 0.000172
424 0.000173
425 0.000173
426 0.000167
427 0.000158
428 0.000141
429 0.000117
430 0.000083
431 0.000059
432 0.000040
433 0.000031
434 0.000029
435 0.000026
436 0.000026
437 0.000019
438 0.000015
439 0.000015
440 0.000015
441 0.000016
442 0.000011
443 0.000023
444 0.000037
445 0.000045
446 0.000056
447 0.000053
448 0.000072
449 0.000090
450 0.000103
451 0.000122
452 0.000125
453 0.000136
454 0.000134
455 0.000130
456 0.000134
457 0.000139
458 0.000154
459 0.000156
460 0.000161
461 0.000176
462 0.000184
463 0.000184
464 0.000198
465 0.000204
466 0.000207
467 0.000196
468 0.000182
469 0.000184
470 0.000166
471 0.000142
472 0.000108
473 0.000085
474 0.000084
475 0.000082
476 0.000087
477 0.000078
478 0.000065
479 0.000049
480 0.000041
481 0.000033
482 0.000034
483 0.000041
484 0.000041
485 0.000051
486 0.000055
487 0.000054
488 0.000077
489 0.000088
490 0.000104
491 0.000121
492 0.000144
493 0.000171
494 0.000192
495 0.000219
496 0.000233
497 0.000238
498 0.000243
499 0.000237
500 0.000246
501 0.000266
502 0.000282
503 0.000283
504 0.000286
505 0.000294
506 0.000279
507 0.000259
508 0.000227
509 0.000185
510 0.000159
511 0.000134
512 0.000120
513 0.000108
514 0.000093
515 0.000061
516 0.000046
517 0.000032
518 0.000024
519 0.000012
520 -0.000002
521 -0.000004
522 0.000012
523 0.000023
524 0.000024
525 0.000025
526 0.000026
527 0.000057
528 0.000091
529 0.000107
530 0.000125
531 0.000138
532 0.000131
533 0.000122
534 0.000111
535 0.000112
536 0.000113
537 0.000095
538 0.000098
539 0.000093
540 0.000108
541 0.000111
542 0.000112
543 0.000111
544 0.000103
545 0.000102
546 0.000099
547 0.000104
548 0.000111
549 0.000101
550 0.000096
551 0.000080
552 0.000068
553 0.000061
554 0.000059
555 0.000056
556 0.000048
557 0.000042
558 0.000049
559 0.000046
560 0.000037
561 0.000037
562 0.000038
563 0.000026
564 0.000029
565 0.000023
566 0.000033
567 0.000043
568 0.000059
569 0.000077
570 0.000104
571 0.000123
572 0.000137
573 0.000164
574 0.000179
575 0.000186
576 0.000187
577 0.000179
578 0.000187
579 0.000193
580 0.000211
581 0.000214
582 0.000228
583 0.000228
584 0.000229
585 0.000243
586 0.000255
587 0.000266
588 0.000281
589 0.000289
590 0.000284
591 0.000280
592 0.000286
593 0.000279
594 0.000273
595 0.000280
596 0.000281
597 0.000287
598 0.000293
599 0.000302
600 0.000308
601 0.000321
602 0.000332
603 0.000340
604 0.000358
605 0.000373
606 0.000371
607 0.000371
608 0.000376
609 0.000370
610 0.000368
611 0.000362
612 0.000356
613 0.000345
614 0.000326
615 0.000291
616 0.000255
617 0.000233
618 0.000215
619 0.000204
620 0.000197
621 0.000189
622 0.000194
623 0.000192
624 0.000186
625 0.000180
626 0.000181
627 0.000209
628 0.000237
629 0.000262
630 0.000286
631 0.000309
632 0.000337
633 0.000357
634 0.000373
635 0.000384
636 0.000379
637 0.000381
638 0.000388
639 0.000376
640 0.000367
641 0.000351
642 0.000329
643 0.000303
644 0.000282
645 0.000256
646 0.000236
647 0.000223
648 0.000211
649 0.000198
650 0.000199
651 0.000186
652 0.000191
653 0.000202
654 0.000204
655 0.000198
656 0.000200
657 0.000215
658 0.000231
659 0.000245
660 0.000245
661 0.000242
662 0.000244
663 0.000243
664 0.000235
665 0.000247
666 0.000262
667 0.000275
668 0.000285
669 0.000289
670 0.000289
671 0.000280
672 0.000270
673 0.000268
674 0.000260
675 0.000258
676 0.000257
677 0.000257
678 0.000253
679 0.000238
680 0.000225
681 0.000221
682 0.000218
683 0.000213
684 0.000216
685 0.000223
686 0.000230
687 0.000232
688 0.000251
689 0.000276
690 0.000288
691 0.000305
692 0.000319
693 0.000322
694 0.000313
695 0.000305
696 0.000290
697 0.000289
698 0.000284
699 0.000279
700 0.000274
701 0.000265
702 0.000253
703 0.000240
704 0.000230
705 0.000236
706 0.000242
707 0.000244
708 0.000240
709 0.000233
710 0.000231
711 0.000241
712 0.000248
713 0.000249
714 0.000257
715 0.000262
716 0.000274
717 0.000290
718 0.000283
719 0.000272
720 0.000254
721 0.000243
722 0.000234
723 0.000225
724 0.000214
725 0.000199
726 0.000174
727 0.000164
728 0.000163
729 0.000168
730 0.000179
731 0.000188
732 0.000190
733 0.000188
734 0.000181
735 0.000172
736 0.000168
737 0.000173
738 0.000163
739 0.000166
740 0.000172
741 0.000179
742 0.000181
743 0.000166
744 0.000161
745 0.000151
746 0.000141
747 0.000137
748 0.000120
749 0.000106
750 0.000101
751 0.000095
752 0.000097
753 0.000094
754 0.000094
755 0.000082
756 0.000071
757 0.000061
758 0.000051
759 0.000053
760 0.000050
761 0.000055
762 0.000059
763 0.000064
764 0.000062
765 0.000066
766 0.000057
767 0.000054
768 0.000058
769 0.000065
770 0.000074
771 0.000077
772 0.000072
773 0.000058
774 0.000044
775 0.000031
776 0.000029
777 0.000026
778 0.000017
779 0.000013
780 0.000006
781 -0.000006
782 -0.000014
783 -0.000024
784 -0.000029
785 -0.000040
786 -0.000051
787 -0.000051
788 -0.000054
789 -0.000044
790 -0.000047
791 -0.000046
792 -0.000039
793 -0.000032
794 -0.000024
795 -0.000008
796 -0.000000
797 -0.000004
798 0.000002
799 0.000007
800 0.000008
801 0.000015
802 0.000008
803 -0.000005
804 -0.000017
805 -0.000029
806 -0.000047
807 -0.000064
808 -0.000078
809 -0.000094
