# i correlation
1 0.002660
2 0.002509
3 0.002395
4 0.002275
5 0.002188
6 0.002088
7 0.001989
8 0.001914
9 0.001848
10 0.001791
11 0.001745
12 0.001724
13 0.001720
14 0.001711
15 0.001707
16 0.001687
17 0.001658
18 0.001639
19 0.001647
20 0.001647
21 0.001645
22 0.001642
23 0.001640
24 0.001626
25 0.001617
26 0.001615
27 0.001610
28 0.001625
29 0.001608
30 0.001583
31 0.001559
32 0.001538
33 0.001530
34 0.001535
35 0.001537
36 0.001535
37 0.001509
38 0.001496
39 0.001465
40 0.001431
41 0.001414
42 0.001394
43 0.001372
44 0.001369
45 0.001346
46 0.001331
47 0.001339
48 0.001347
49 0.001354
50 0.001358
51 0.001346
52 0.001336
53 0.001341
54 0.001342
55 0.001337
56 0.001344
57 0.001347
58 0.001323
59 0.001299
60 0.001285
61 0.001275
62 0.001262
63 0.001247
64 0.001239
65 0.001225
66 0.001236
67 0.001225
68 0.001220
69 0.001224
70 0.001224
71 0.001233
72 0.001248
73 0.001247
74 0.001255
75 0.001248
76 0.001248
77 0.001252
78 0.001239
79 0.001241
80 0.001245
81 0.001245
82 0.001240
83 0.001236
84 0.001243
85 0.001264
86 0.001283
87 0.001296
88 0.001308
89 0.001326
90 0.001344
91 0.001343
92 0.001332
93 0.001314
94 0.001299
95 0.001303
96 0.001285
97 0.001260
98 0.001229
99 0.001186
100 0.001170
101 0.001165
102 0.001163
103 0.001157
104 0.001149
105 0.001153
106 0.001161
107 0.001171
108 0.001183
109 0.001193
110 0.001233
111 0.001239
112 0.001233
113 0.001235
114 0.001212
115 0.001189
116 0.001174
117 0.001165
118 0.001156
119 0.001145
120 0.001126
121 0.001109
122 0.001100
123 0.001107
124 0.001117
125 0.001148
126 0.001170
127 0.001176
128 0.001170
129 0.001170
130 0.001170
131 0.001192
132 0.001203
133 0.001206
134 0.001192
135 0.001184
136 0.001169
137 0.001134
138 0.001107
139 0.001070
140 0.001056
141 0.001033
142 0.001007
143 0.000991
144 0.000981
145 0.000985
146 0.000991
147 0.001006
148 0.001018
149 0.001011
150 0.001003
151 0.001003
152 0.001003
153 0.001006
154 0.001010
155 0.001019
156 0.001019
157 0.001020
158 0.001010
159 0.001021
160 0.001055
161 0.001079
162 0.001094
163 0.001113
164 0.001134
165 0.001134
166 0.001138
167 0.001142
168 0.001128
169 0.001115
170 0.001106
171 0.001082
172 0.001050
173 0.001029
174 0.001025
175 0.001018
176 0.001014
177 0.000997
178 0.000995
179 0.000995
180 0.000990
181 0.000981
182 0.000977
183 0.000982
184 0.000970
185 0.000963
186 0.000951
187 0.000943
188 0.000932
189 0.000942
190 0.000945
191 0.000938
192 0.000939
193 0.000935
194 0.000931
195 0.000914
196 0.000910
197 0.000921
198 0.000926
199 0.000950
200 0.000957
201 0.000977
202 0.000993
203 0.000997
204 0.001004
205 0.001011
206 0.001005
207 0.000976
208 0.000961
209 0.000941
210 0.000908
211 0.000879
212 0.000854
213 0.000829
214 0.000816
215 0.000802
216 0.000805
217 0.000805
218 0.000822
219 0.000835
220 0.000858
221 0.000884
222 0.000904
223 0.000910
224 0.000918
225 0.000914
226 0.000908
227 0.000913
228 0.000905
229 0.000902
230 0.000897
231 0.000876
232 0.000846
233 0.000843
234 0.000825
235 0.000817
236 0.000809
237 0.000805
238 0.000809
239 0.000801
240 0.000795
241 0.000797
242 0.000810
243 0.000829
244 0.000847
245 0.000854
246 0.000866
247 0.000869
248 0.000872
249 0.000882
250 0.000882
251 0.000878
252 0.000874
253 0.000871
254 0.000879
255 0.000883
256 0.000906
257 0.000928
258 0.000950
259 0.000964
260 0.000956
261 0.000940
262 0.000926
263 0.000898
264 0.000862
265 0.000830
266 0.000803
267 0.000786
268 0.000777
269 0.000769
270 0.000760
271 0.000754
272 0.000763
273 0.000779
274 0.000778
275 0.000778
276 0.000776
277 0.000781
278 0.000791
279 0.000789
280 0.000789
281 0.000785
282 0.000781
283 0.000780
284 0.000785
285 0.000785
286 0.000791
287 0.000795
288 0.000785
289 0.000761
290 0.000736
291 0.000736
292 0.000744
293 0.000745
294 0.000746
295 0.000752
296 0.000752
297 0.000752
298 0.000739
299 0.000726
300 0.000717
301 0.000720
302 0.000703
303 0.000703
304 0.000704
305 0.000687
306 0.000687
307 0.000687
308 0.000684
309 0.000682
310 0.000694
311 0.000713
312 0.000731
313 0.000712
314 0.000711
315 0.000727
316 0.000737
317 0.000741
318 0.000743
319 0.000743
320 0.000735
321 0.000731
322 0.000724
323 0.000717
324 0.000722
325 0.000741
326 0.000754
327 0.000758
328 0.000771
329 0.000788
330 0.000826
331 0.000867
332 0.000880
333 0.000890
334 0.000901
335 0.000892
336 0.000886
337 0.000865
338 0.000842
339 0.000827
340 0.000803
341 0.000788
342 0.000765
343 0.000745
344 0.000744
345 0.000739
346 0.000738
347 0.000742
348 0.000739
349 0.000747
350 0.000758
351 0.000759
352 0.000754
353 0.000776
354 0.000796
355 0.000795
356 0.000810
357 0.000829
358 0.000851
359 0.000878
360 0.000888
361 0.000893
362 0.000881
363 0.000876
364 0.000873
365 0.000881
366 0.000880
367 0.000874
368 0.000865
369 0.000865
370 0.000855
371 0.000828
372 0.000811
373 0.000785
374 0.000754
375 0.000732
376 0.000698
377 0.000664
378 0.000651
379 0.000627
380 0.000619
381 0.000623
382 0.000629
383 0.000633
384 0.000642
385 0.000657
386 0.000673
387 0.000677
388 0.000683
389 0.000681
390 0.000666
391 0.000669
392 0.000657
393 0.000642
394 0.000630
395 0.000619
396 0.000595
397 0.000577
398 0.000565
399 0.000538
400 0.000509
401 0.000490
402 0.000474
403 0.000454
404 0.000437
405 0.000425
406 0.000422
407 0.000438
408 0.000441
409 0.000439
410 0.000445
411 0.000439
412 0.000426
413 0.000431
414 0.000430
415 0.000421
416 0.000412
417 0.000402
418 0.000399
419 0.000397
420 0.000397
421 0.000410
422 0.000426
423 0.000440
424 0.000444
425 0.000439
426 0.000436
427 0.000439
428 0.000435
429 0.000423
430 0.000423
431 0.000412
432 0.000404
433 0.000389
434 0.000367
435 0.000359
436 0.000364
437 0.000361
438 0.000364
439 0.000371
440 0.000365
441 0.000379
442 0.000386
443 0.000404
444 0.000426
445 0.000429
446 0.000451
447 0.000464
448 0.000473
449 0.000476
450 0.000465
451 0.000474
452 0.000474
453 0.000451
454 0.000433
455 0.000413
456 0.000400
457 0.000404
458 0.000404
459 0.000398
460 0.000397
461 0.000405
462 0.000408
463 0.000413
464 0.000426
465 0.000421
466 0.000418
467 0.000426
468 0.000422
469 0.000405
470 0.000380
471 0.000364
472 0.000362
473 0.000347
474 0.000344
475 0.000345
476 0.000347
477 0.000353
478 0.000355
479 0.000354
480 0.000339
481 0.000329
482 0.000332
483 0.000323
484 0.000312
485 0.000310
486 0.000317
487 0.000320
488 0.000310
489 0.000305
490 0.000301
491 0.000314
492 0.000334
493 0.000358
494 0.000372
495 0.000384
496 0.000393
497 0.000398
498 0.000397
499 0.000388
500 0.000370
501 0.000355
502 0.000337
503 0.000320
504 0.000313
505 0.000307
506 0.000292
507 0.000270
508 0.000262
509 0.000247
510 0.000248
511 0.000247
512 0.000241
513 0.000253
514 0.000262
515 0.000263
516 0.000260
517 0.000265
518 0.000287
519 0.000285
520 0.000291
521 0.000297
522 0.000288
523 0.000294
524 0.000296
525 0.000296
526 0.000296
527 0.000293
528 0.000285
529 0.000279
530 0.000278
531 0.000287
532 0.000301
533 0.000321
534 0.000338
535 0.000356
536 0.000376
537 0.000378
538 0.000384
539 0.000392
540 0.000401
541 0.000409
542 0.000412
543 0.000401
544 0.000384
545 0.000364
546 0.000348
547 0.000327
548 0.000318
549 0.000307
550 0.000302
551 0.000302
552 0.000298
553 0.000301
554 0.000319
555 0.000336
556 0.000341
557 0.000349
558 0.000358
559 0.000376
560 0.000384
561 0.000397
562 0.000414
563 0.000425
564 0.000446
565 0.000454
566 0.000448
567 0.000448
568 0.000441
569 0.000430
570 0.000431
571 0.000428
572 0.000420
573 0.000400
574 0.000402
575 0.000401
576 0.000395
577 0.000396
578 0.000392
579 0.000388
580 0.000391
581 0.000382
582 0.000368
583 0.000364
584 0.000367
585 0.000375
586 0.000365
587 0.000365
588 0.000368
589 0.000371
590 0.000374
591 0.000372
592 0.000379
593 0.000374
594 0.000366
595 0.000347
596 0.000326
597 0.000309
598 0.000301
599 0.000292
600 0.000278
601 0.000250
602 0.000233
603 0.000225
604 0.000220
605 0.000212
606 0.000210
607 0.000205
608 0.000205
609 0.000201
610 0.000195
611 0.000200
612 0.000211
613 0.000223
614 0.000230
615 0.000237
616 0.000239
617 0.000232
618 0.000231
619 0.000231
620 0.000229
621 0.000229
622 0.000230
623 0.000227
624 0.000231
625 0.000236
626 0.000240
627 0.000250
628 0.000271
629 0.000287
630 0.000294
631 0.000302
632 0.000303
633 0.000296
634 0.000289
635 0.000279
636 0.000271
637 0.000262
638 0.000240
639 0.000218
640 0.000206
641 0.000195
642 0.000195
643 0.000198
644 0.000197
645 0.000202
646 0.000216
647 0.000220
648 0.000229
649 0.000232
650 0.000240
651 0.000256
652 0.000265
653 0.000275
654 0.000284
655 0.000285
656 0.000291
657 0.000291
658 0.000279
659 0.000265
660 0.000258
661 0.000259
662 0.000250
663 0.000228
664 0.000212
665 0.000205
666 0.000208
667 0.000211
668 0.000205
669 0.000212
670 0.000222
671 0.000228
672 0.000229
673 0.000236
674 0.000227
675 0.000223
676 0.000227
677 0.000222
678 0.000214
679 0.000208
680 0.000202
681 0.000196
682 0.000191
683 0.000181
684 0.000189
685 0.000192
686 0.000192
687 0.000197
688 0.000203
689 0.000212
690 0.000228
691 0.000225
692 0.000220
693 0.000225
694 0.000230
695 0.000245
696 0.000247
697 0.000250
698 0.000255
699 0.000254
700 0.000259
701 0.000257
702 0.000257
703 0.000260
704 0.000252
705 0.000256
706 0.000245
707 0.000236
708 0.000240
709 0.000239
710 0.000248
711 0.000251
712 0.000242
713 0.000229
714 0.000226
715 0.000221
716 0.000217
717 0.000224
718 0.000231
719 0.000237
720 0.000248
721 0.000250
722 0.000256
723 0.000271
724 0.000283
725 0.000296
726 0.000303
727 0.000294
728 0.000281
729 0.000267
730 0.000248
731 0.000234
732 0.000219
733 0.000205
734 0.000193
735 0.000180
736 0.000169
737 0.000160
738 0.000155
739 0.000157
740 0.000160
741 0.000165
742 0.000172
743 0.000174
744 0.000178
745 0.000185
746 0.000192
747 0.000201
748 0.000199
749 0.000191
750 0.000175
751 0.000170
752 0.000167
753 0.000158
754 0.000159
755 0.000160
756 0.000167
757 0.000158
758 0.000150
759 0.000143
760 0.000138
761 0.000143
762 0.000149
763 0.000149
764 0.000146
765 0.000136
766 0.000128
767 0.000120
768 0.000103
769 0.000096
770 0.000086
771 0.000076
772 0.000065
773 0.000054
774 0.000042
775 0.000027
776 0.000013
777 0.000008
778 0.000003
779 0.000005
780 0.000012
781 0.000009
782 0.000006
783 0.000005
784 0.000002
785 -0.000005
786 -0.000003
787 -0.000006
788 -0.000009
789 -0.000006
790 0.000003
791 0.000002
792 0.000005
793 0.000007
794 0.000005
795 0.000007
796 -0.000001
797 -0.000001
798 -0.000004
799 -0.000016
800 -0.000016
801 -0.000019
802 -0.000022
803 -0.000021
804 -0.000021
805 -0.000013
806 -0.000012
807 -0.000010
808 -0.000005
809 0.000002
