# i correlation
1 0.002957
2 0.002780
3 0.002634
4 0.002510
5 0.002404
6 0.002301
7 0.002233
8 0.002181
9 0.002148
10 0.002129
11 0.002100
12 0.002059
13 0.002027
14 0.001984
15 0.001947
16 0.001901
17 0.001870
18 0.001857
19 0.001843
20 0.001827
21 0.001812
22 0.001776
23 0.001738
24 0.001693
25 0.001661
26 0.001630
27 0.001601
28 0.001588
29 0.001567
30 0.001577
31 0.001591
32 0.001617
33 0.001642
34 0.001645
35 0.001661
36 0.001674
37 0.001672
38 0.001647
39 0.001615
40 0.001591
41 0.001564
42 0.001540
43 0.001549
44 0.001537
45 0.001526
46 0.001532
47 0.001537
48 0.001525
49 0.001515
50 0.001487
51 0.001439
52 0.001398
53 0.001360
54 0.001350
55 0.001348
56 0.001361
57 0.001383
58 0.001398
59 0.001390
60 0.001347
61 0.001332
62 0.001318
63 0.001329
64 0.001359
65 0.001385
66 0.001386
67 0.001381
68 0.001395
69 0.001406
70 0.001397
71 0.001390
72 0.001384
73 0.001382
74 0.001377
75 0.001394
76 0.001409
77 0.001424
78 0.001416
79 0.001389
80 0.001356
81 0.001312
82 0.001286
83 0.001269
84 0.001257
85 0.001245
86 0.001240
87 0.001240
88 0.001210
89 0.001193
90 0.001168
91 0.001170
92 0.001142
93 0.001114
94 0.001100
95 0.001080
96 0.001071
97 0.001049
98 0.001029
99 0.000998
100 0.000985
101 0.000991
102 0.001005
103 0.001012
104 0.001024
105 0.001018
106 0.000994
107 0.000973
108 0.000959
109 0.000953
110 0.000931
111 0.000895
112 0.000876
113 0.000857
114 0.000846
115 0.000849
116 0.000826
117 0.000799
118 0.000777
119 0.000766
120 0.000767
121 0.000754
122 0.000754
123 0.000765
124 0.000772
125 0.000768
126 0.000770
127 0.000761
128 0.000756
129 0.000745
130 0.000733
131 0.000709
132 0.000695
133 0.000707
134 0.000731
135 0.000743
136 0.000742
137 0.000734
138 0.000725
139 0.000721
140 0.000734
141 0.000733
142 0.000725
143 0.000720
144 0.000719
145 0.000700
146 0.000684
147 0.000659
148 0.000646
149 0.000613
150 0.000598
151 0.000586
152 0.000571
153 0.000565
154 0.000564
155 0.000553
156 0.000537
157 0.000520
158 0.000520
159 0.000533
160 0.000535
161 0.000550
162 0.000539
163 0.000528
164 0.000496
165 0.000464
166 0.000461
167 0.000469
168 0.000472
169 0.000483
170 0.000478
171 0.000478
172 0.000473
173 0.000479
174 0.000490
175 0.000487
176 0.000477
177 0.000461
178 0.000476
179 0.000483
180 0.000497
181 0.000506
182 0.000503
183 0.000516
184 0.000528
185 0.000528
186 0.000513
187 0.000523
188 0.000527
189 0.000523
190 0.000518
191 0.000520
192 0.000521
193 0.000530
194 0.000528
195 0.000504
196 0.000477
197 0.000441
198 0.000423
199 0.000415
200 0.000421
201 0.000420
202 0.000411
203 0.000412
204 0.000416
205 0.000409
206 0.000394
207 0.000388
208 0.000376
209 0.000365
210 0.000353
211 0.000339
212 0.000323
213 0.000314
214 0.000297
215 0.000299
216 0.000313
217 0.000336
218 0.000347
219 0.000367
220 0.000393
221 0.000415
222 0.000416
223 0.000404
224 0.000417
225 0.000422
226 0.000413
227 0.000404
228 0.000393
229 0.000366
230 0.000352
231 0.000344
232 0.000331
233 0.000324
234 0.000314
235 0.000310
236 0.000309
237 0.000320
238 0.000329
239 0.000332
240 0.000323
241 0.000301
242 0.000283
243 0.000277
244 0.000281
245 0.000260
246 0.000234
247 0.000211
248 0.000218
249 0.000214
250 0.000223
251 0.000225
252 0.000248
253 0.000268
254 0.000289
255 0.000307
256 0.000320
257 0.000350
258 0.000382
259 0.000407
260 0.000438
261 0.000468
262 0.000494
263 0.000524
264 0.000562
265 0.000623
266 0.000658
267 0.000689
268 0.000714
269 0.000735
270 0.000753
271 0.000770
272 0.000781
273 0.000779
274 0.000778
275 0.000762
276 0.000754
277 0.000722
278 0.000706
279 0.000690
280 0.000681
281 0.000674
282 0.000655
283 0.000651
284 0.000639
285 0.000632
286 0.000623
287 0.000621
288 0.000596
289 0.000591
290 0.000575
291 0.000556
292 0.000540
293 0.000536
294 0.000545
295 0.000558
296 0.000569
297 0.000571
298 0.000573
299 0.000571
300 0.000554
301 0.000544
302 0.000541
303 0.000550
304 0.000551
305 0.000539
306 0.000523
307 0.000524
308 0.000543
309 0.000560
310 0.000562
311 0.000556
312 0.000556
313 0.000559
314 0.000559
315 0.000566
316 0.000570
317 0.000572
318 0.000560
319 0.000556
320 0.000558
321 0.000570
322 0.000576
323 0.000581
324 0.000582
325 0.000585
326 0.000582
327 0.000576
328 0.000580
329 0.000601
330 0.000638
331 0.000672
332 0.000687
333 0.000697
334 0.000712
335 0.000738
336 0.000755
337 0.000756
338 0.000751
339 0.000747
340 0.000756
341 0.000758
342 0.000766
343 0.000767
344 0.000781
345 0.000789
346 0.000790
347 0.000776
348 0.000775
349 0.000759
350 0.000742
351 0.000733
352 0.000728
353 0.000720
354 0.000722
355 0.000708
356 0.000697
357 0.000693
358 0.000709
359 0.000716
360 0.000705
361 0.000705
362 0.000711
363 0.000732
364 0.000735
365 0.000731
366 0.000719
367 0.000728
368 0.000736
369 0.000738
370 0.000729
371 0.000725
372 0.000741
373 0.000757
374 0.000781
375 0.000781
376 0.000791
377 0.000796
378 0.000815
379 0.000818
380 0.000824
381 0.000831
382 0.000833
383 0.000820
384 0.000816
385 0.000817
386 0.000795
387 0.000786
388 0.000768
389 0.000744
390 0.000725
391 0.000711
392 0.000707
393 0.000699
394 0.000712
395 0.000730
396 0.000718
397 0.000702
398 0.000694
399 0.000700
400 0.000713
401 0.000729
402 0.000742
403 0.000748
404 0.000767
405 0.000788
406 0.000805
407 0.000815
408 0.000823
409 0.000840
410 0.000845
411 0.000860
412 0.000874
413 0.000893
414 0.000895
415 0.000895
416 0.000889
417 0.000885
418 0.000875
419 0.000864
420 0.000860
421 0.000845
422 0.000826
423 0.000799
424 0.000784
425 0.000767
426 0.000745
427 0.000735
428 0.000728
429 0.000716
430 0.000705
431 0.000703
432 0.000694
433 0.000684
434 0.000669
435 0.000652
436 0.000632
437 0.000623
438 0.000607
439 0.000584
440 0.000564
441 0.000564
442 0.000567
443 0.000570
444 0.000574
445 0.000569
446 0.000556
447 0.000545
448 0.000549
449 0.000567
450 0.000579
451 0.000589
452 0.000613
453 0.000629
454 0.000636
455 0.000617
456 0.000600
457 0.000576
458 0.000563
459 0.000562
460 0.000556
461 0.000558
462 0.000557
463 0.000562
464 0.000566
465 0.000583
466 0.000568
467 0.000542
468 0.000528
469 0.000518
470 0.000507
471 0.000504
472 0.000504
473 0.000494
474 0.000500
475 0.000489
476 0.000473
477 0.000469
478 0.000467
479 0.000468
480 0.000459
481 0.000440
482 0.000439
483 0.000432
484 0.000430
485 0.000421
486 0.000424
487 0.000431
488 0.000442
489 0.000456
490 0.000464
491 0.000468
492 0.000465
493 0.000459
494 0.000449
495 0.000438
496 0.000443
497 0.000447
498 0.000451
499 0.000463
500 0.000464
501 0.000454
502 0.000452
503 0.000447
504 0.000440
505 0.000427
506 0.000406
507 0.000396
508 0.000389
509 0.000394
510 0.000394
511 0.000396
512 0.000396
513 0.000389
514 0.000386
515 0.000386
516 0.000372
517 0.000375
518 0.000376
519 0.000371
520 0.000373
521 0.000371
522 0.000368
523 0.000354
524 0.000348
525 0.000337
526 0.000327
527 0.000323
528 0.000319
529 0.000328
530 0.000334
531 0.000338
532 0.000343
533 0.000338
534 0.000343
535 0.000362
536 0.000388
537 0.000417
538 0.000445
539 0.000477
540 0.000500
541 0.000515
542 0.000504
543 0.000503
544 0.000481
545 0.000479
546 0.000479
547 0.000476
548 0.000481
549 0.000482
550 0.000485
551 0.000488
552 0.000493
553 0.000509
554 0.000518
555 0.000528
556 0.000545
557 0.000544
558 0.000524
559 0.000497
560 0.000472
561 0.000463
562 0.000455
563 0.000443
564 0.000440
565 0.000440
566 0.000442
567 0.000449
568 0.000457
569 0.000456
570 0.000454
571 0.000446
572 0.000432
573 0.000429
574 0.000439
575 0.000454
576 0.000460
577 0.000448
578 0.000445
579 0.000438
580 0.000427
581 0.000403
582 0.000382
583 0.000365
584 0.000354
585 0.000348
586 0.000354
587 0.000358
588 0.000382
589 0.000405
590 0.000417
591 0.000421
592 0.000428
593 0.000437
594 0.000435
595 0.000437
596 0.000439
597 0.000442
598 0.000444
599 0.000446
600 0.000455
601 0.000452
602 0.000458
603 0.000468
604 0.000478
605 0.000490
606 0.000499
607 0.000502
608 0.000506
609 0.000502
610 0.000493
611 0.000501
612 0.000515
613 0.000533
614 0.000549
615 0.000551
616 0.000542
617 0.000514
618 0.000493
619 0.000476
620 0.000456
621 0.000430
622 0.000418
623 0.000422
624 0.000432
625 0.000446
626 0.000458
627 0.000460
628 0.000454
629 0.000452
630 0.000437
631 0.000425
632 0.000427
633 0.000435
634 0.000438
635 0.000434
636 0.000421
637 0.000423
638 0.000424
639 0.000424
640 0.000430
641 0.000435
642 0.000443
643 0.000463
644 0.000490
645 0.000508
646 0.000516
647 0.000531
648 0.000537
649 0.000538
650 0.000536
651 0.000515
652 0.000513
653 0.000501
654 0.000477
655 0.000465
656 0.000445
657 0.000434
658 0.000426
659 0.000418
660 0.000398
661 0.000387
662 0.000381
663 0.000385
664 0.000376
665 0.000376
666 0.000373
667 0.000365
668 0.000365
669 0.000361
670 0.000362
671 0.000376
672 0.000392
673 0.000407
674 0.000418
675 0.000422
676 0.000423
677 0.000428
678 0.000435
679 0.000440
680 0.000451
681 0.000467
682 0.000481
683 0.000492
684 0.000501
685 0.000504
686 0.000494
687 0.000485
688 0.000471
689 0.000470
690 0.000479
691 0.000477
692 0.000470
693 0.000467
694 0.000452
695 0.000436
696 0.000423
697 0.000402
698 0.000394
699 0.000385
700 0.000381
701 0.000377
702 0.000385
703 0.000381
704 0.000376
705 0.000371
706 0.000361
707 0.000358
708 0.000352
709 0.000350
710 0.000346
711 0.000334
712 0.000329
713 0.000329
714 0.000330
715 0.000339
716 0.000350
717 0.000367
718 0.000371
719 0.000366
720 0.000367
721 0.000361
722 0.000356
723 0.000353
724 0.000353
725 0.000341
726 0.000331
727 0.000326
728 0.000326
729 0.000319
730 0.000326
731 0.000315
732 0.000314
733 0.000311
734 0.000300
735 0.000299
736 0.000311
737 0.000316
738 0.000319
739 0.000332
740 0.000337
741 0.000336
742 0.000321
743 0.000313
744 0.000297
745 0.000280
746 0.000273
747 0.000272
748 0.000285
749 0.000302
750 0.000317
751 0.000322
752 0.000324
753 0.000320
754 0.000318
755 0.000310
756 0.000297
757 0.000290
758 0.000298
759 0.000303
760 0.000307
761 0.000303
762 0.000300
763 0.000292
764 0.000277
765 0.000260
766 0.000243
767 0.000238
768 0.000235
769 0.000233
770 0.000230
771 0.000224
772 0.000221
773 0.000230
774 0.000235
775 0.000242
776 0.000243
777 0.000238
778 0.000242
779 0.000242
780 0.000239
781 0.000237
782 0.000235
783 0.000237
784 0.000229
785 0.000221
786 0.000222
787 0.000219
788 0.000213
789 0.000204
790 0.000186
791 0.000178
792 0.000169
793 0.000172
794 0.000182
795 0.000196
796 0.000205
797 0.000210
798 0.000216
799 0.000212
800 0.000205
801 0.000203
802 0.000188
803 0.000177
804 0.000167
805 0.000165
806 0.000162
807 0.000168
808 0.000178
809 0.000179
