# i correlation
1 0.002363
2 0.002162
3 0.001981
4 0.001837
5 0.001690
6 0.001596
7 0.001525
8 0.001455
9 0.001401
10 0.001361
11 0.001332
12 0.001285
13 0.001235
14 0.001196
15 0.001170
16 0.001139
17 0.001115
18 0.001106
19 0.001094
20 0.001071
21 0.001055
22 0.001052
23 0.001018
24 0.001004
25 0.000992
26 0.000970
27 0.000938
28 0.000921
29 0.000926
30 0.000932
31 0.000943
32 0.000953
33 0.000957
34 0.000985
35 0.001009
36 0.001044
37 0.001086
38 0.001112
39 0.001117
40 0.001127
41 0.001146
42 0.001151
43 0.001163
44 0.001175
45 0.001176
46 0.001165
47 0.001157
48 0.001152
49 0.001139
50 0.001122
51 0.001106
52 0.001094
53 0.001090
54 0.001099
55 0.001105
56 0.001113
57 0.001117
58 0.001113
59 0.001097
60 0.001092
61 0.001093
62 0.001094
63 0.001089
64 0.001077
65 0.001064
66 0.001058
67 0.001056
68 0.001042
69 0.001029
70 0.001018
71 0.001019
72 0.001011
73 0.001007
74 0.000976
75 0.000950
76 0.000924
77 0.000902
78 0.000880
79 0.000854
80 0.000827
81 0.000808
82 0.000819
83 0.000827
84 0.000856
85 0.000877
86 0.000898
87 0.000905
88 0.000887
89 0.000855
90 0.000816
91 0.000789
92 0.000775
93 0.000802
94 0.000823
95 0.000843
96 0.000850
97 0.000850
98 0.000824
99 0.000771
100 0.000741
101 0.000711
102 0.000691
103 0.000671
104 0.000678
105 0.000701
106 0.000710
107 0.000722
108 0.000748
109 0.000752
110 0.000759
111 0.000744
112 0.000732
113 0.000709
114 0.000695
115 0.000684
116 0.000675
117 0.000672
118 0.000689
119 0.000693
120 0.000686
121 0.000677
122 0.000695
123 0.000684
124 0.000669
125 0.000657
126 0.000668
127 0.000676
128 0.000654
129 0.000636
130 0.000623
131 0.000609
132 0.000599
133 0.000608
134 0.000629
135 0.000630
136 0.000651
137 0.000677
138 0.000685
139 0.000699
140 0.000719
141 0.000729
142 0.000735
143 0.000747
144 0.000759
145 0.000759
146 0.000755
147 0.000731
148 0.000718
149 0.000705
150 0.000707
151 0.000712
152 0.000724
153 0.000726
154 0.000723
155 0.000715
156 0.000716
157 0.000719
158 0.000715
159 0.000704
160 0.000692
161 0.000695
162 0.000704
163 0.000710
164 0.000725
165 0.000725
166 0.000739
167 0.000728
168 0.000708
169 0.000685
170 0.000670
171 0.000668
172 0.000666
173 0.000643
174 0.000611
175 0.000581
176 0.000542
177 0.000515
178 0.000494
179 0.000513
180 0.000547
181 0.000592
182 0.000618
183 0.000641
184 0.000658
185 0.000659
186 0.000637
187 0.000632
188 0.000639
189 0.000646
190 0.000654
191 0.000685
192 0.000711
193 0.000733
194 0.000747
195 0.000747
196 0.000710
197 0.000688
198 0.000701
199 0.000721
200 0.000741
201 0.000761
202 0.000781
203 0.000807
204 0.000845
205 0.000896
206 0.000938
207 0.000945
208 0.000942
209 0.000938
210 0.000930
211 0.000913
212 0.000884
213 0.000855
214 0.000817
215 0.000793
216 0.000763
217 0.000740
218 0.000715
219 0.000699
220 0.000688
221 0.000675
222 0.000659
223 0.000656
224 0.000655
225 0.000644
226 0.000627
227 0.000623
228 0.000625
229 0.000630
230 0.000643
231 0.000647
232 0.000634
233 0.000621
234 0.000606
235 0.000595
236 0.000597
237 0.000614
238 0.000633
239 0.000642
240 0.000650
241 0.000653
242 0.000658
243 0.000664
244 0.000659
245 0.000652
246 0.000648
247 0.000640
248 0.000648
249 0.000681
250 0.000703
251 0.000730
252 0.000752
253 0.000760
254 0.000748
255 0.000746
256 0.000732
257 0.000725
258 0.000732
259 0.000759
260 0.000780
261 0.000786
262 0.000796
263 0.000792
264 0.000777
265 0.000747
266 0.000736
267 0.000727
268 0.000720
269 0.000706
270 0.000684
271 0.000649
272 0.000602
273 0.000566
274 0.000547
275 0.000527
276 0.000521
277 0.000530
278 0.000532
279 0.000539
280 0.000562
281 0.000583
282 0.000575
283 0.000570
284 0.000569
285 0.000574
286 0.000583
287 0.000589
288 0.000590
289 0.000594
290 0.000581
291 0.000556
292 0.000536
293 0.000535
294 0.000524
295 0.000528
296 0.000537
297 0.000537
298 0.000533
299 0.000556
300 0.000587
301 0.000613
302 0.000637
303 0.000668
304 0.000662
305 0.000653
306 0.000637
307 0.000639
308 0.000623
309 0.000596
310 0.000578
311 0.000570
312 0.000552
313 0.000525
314 0.000506
315 0.000498
316 0.000486
317 0.000478
318 0.000487
319 0.000487
320 0.000481
321 0.000485
322 0.000489
323 0.000485
324 0.000487
325 0.000513
326 0.000522
327 0.000532
328 0.000530
329 0.000516
330 0.000484
331 0.000461
332 0.000449
333 0.000438
334 0.000424
335 0.000413
336 0.000397
337 0.000402
338 0.000409
339 0.000411
340 0.000400
341 0.000405
342 0.000385
343 0.000383
344 0.000383
345 0.000378
346 0.000365
347 0.000357
348 0.000353
349 0.000358
350 0.000373
351 0.000398
352 0.000405
353 0.000401
354 0.000386
355 0.000377
356 0.000382
357 0.000390
358 0.000383
359 0.000385
360 0.000402
361 0.000397
362 0.000392
363 0.000411
364 0.000429
365 0.000448
366 0.000447
367 0.000436
368 0.000408
369 0.000388
370 0.000386
371 0.000387
372 0.000399
373 0.000417
374 0.000435
375 0.000443
376 0.000443
377 0.000436
378 0.000428
379 0.000413
380 0.000395
381 0.000375
382 0.000359
383 0.000326
384 0.000290
385 0.000279
386 0.000277
387 0.000275
388 0.000276
389 0.000288
390 0.000291
391 0.000287
392 0.000286
393 0.000290
394 0.000300
395 0.000305
396 0.000312
397 0.000332
398 0.000341
399 0.000348
400 0.000343
401 0.000336
402 0.000319
403 0.000311
404 0.000322
405 0.000336
406 0.000339
407 0.000346
408 0.000361
409 0.000377
410 0.000401
411 0.000417
412 0.000431
413 0.000451
414 0.000474
415 0.000487
416 0.000481
417 0.000454
418 0.000412
419 0.000368
420 0.000333
421 0.000311
422 0.000297
423 0.000302
424 0.000302
425 0.000307
426 0.000313
427 0.000298
428 0.000273
429 0.000247
430 0.000241
431 0.000237
432 0.000238
433 0.000239
434 0.000251
435 0.000254
436 0.000245
437 0.000251
438 0.000264
439 0.000270
440 0.000266
441 0.000271
442 0.000275
443 0.000282
444 0.000295
445 0.000318
446 0.000338
447 0.000365
448 0.000386
449 0.000405
450 0.000414
451 0.000434
452 0.000431
453 0.000434
454 0.000424
455 0.000423
456 0.000407
457 0.000399
458 0.000392
459 0.000399
460 0.000403
461 0.000406
462 0.000416
463 0.000407
464 0.000389
465 0.000385
466 0.000381
467 0.000375
468 0.000389
469 0.000408
470 0.000422
471 0.000421
472 0.000415
473 0.000397
474 0.000380
475 0.000369
476 0.000342
477 0.000330
478 0.000323
479 0.000321
480 0.000319
481 0.000332
482 0.000345
483 0.000351
484 0.000351
485 0.000350
486 0.000342
487 0.000352
488 0.000357
489 0.000351
490 0.000348
491 0.000352
492 0.000364
493 0.000364
494 0.000359
495 0.000354
496 0.000352
497 0.000343
498 0.000325
499 0.000331
500 0.000343
501 0.000347
502 0.000350
503 0.000357
504 0.000365
505 0.000367
506 0.000369
507 0.000383
508 0.000401
509 0.000424
510 0.000441
511 0.000467
512 0.000487
513 0.000502
514 0.000499
515 0.000489
516 0.000483
517 0.000484
518 0.000489
519 0.000491
520 0.000490
521 0.000485
522 0.000486
523 0.000487
524 0.000501
525 0.000502
526 0.000521
527 0.000528
528 0.000529
529 0.000517
530 0.000508
531 0.000503
532 0.000505
533 0.000510
534 0.000487
535 0.000471
536 0.000460
537 0.000447
538 0.000434
539 0.000427
540 0.000412
541 0.000398
542 0.000391
543 0.000393
544 0.000402
545 0.000411
546 0.000420
547 0.000423
548 0.000413
549 0.000401
550 0.000404
551 0.000406
552 0.000402
553 0.000395
554 0.000393
555 0.000395
556 0.000395
557 0.000394
558 0.000393
559 0.000389
560 0.000375
561 0.000365
562 0.000357
563 0.000350
564 0.000337
565 0.000334
566 0.000331
567 0.000333
568 0.000339
569 0.000349
570 0.000363
571 0.000377
572 0.000382
573 0.000366
574 0.000360
575 0.000346
576 0.000342
577 0.000333
578 0.000331
579 0.000327
580 0.000331
581 0.000339
582 0.000349
583 0.000340
584 0.000337
585 0.000333
586 0.000324
587 0.000332
588 0.000350
589 0.000364
590 0.000367
591 0.000355
592 0.000348
593 0.000339
594 0.000320
595 0.000310
596 0.000316
597 0.000315
598 0.000310
599 0.000298
600 0.000286
601 0.000264
602 0.000246
603 0.000237
604 0.000239
605 0.000249
606 0.000259
607 0.000254
608 0.000251
609 0.000253
610 0.000251
611 0.000246
612 0.000235
613 0.000227
614 0.000229
615 0.000247
616 0.000246
617 0.000255
618 0.000268
619 0.000292
620 0.000307
621 0.000313
622 0.000310
623 0.000296
624 0.000288
625 0.000276
626 0.000275
627 0.000262
628 0.000250
629 0.000231
630 0.000225
631 0.000216
632 0.000204
633 0.000195
634 0.000195
635 0.000179
636 0.000165
637 0.000155
638 0.000138
639 0.000118
640 0.000109
641 0.000109
642 0.000105
643 0.000095
644 0.000091
645 0.000090
646 0.000088
647 0.000074
648 0.000055
649 0.000056
650 0.000066
651 0.000080
652 0.000101
653 0.000131
654 0.000155
655 0.000177
656 0.000206
657 0.000216
658 0.000207
659 0.000200
660 0.000201
661 0.000203
662 0.000212
663 0.000225
664 0.000235
665 0.000251
666 0.000269
667 0.000282
668 0.000284
669 0.000278
670 0.000251
671 0.000221
672 0.000198
673 0.000171
674 0.000150
675 0.000153
676 0.000166
677 0.000181
678 0.000191
679 0.000188
680 0.000175
681 0.000163
682 0.000150
683 0.000144
684 0.000132
685 0.000129
686 0.000117
687 0.000105
688 0.000087
689 0.000072
690 0.000071
691 0.000070
692 0.000075
693 0.000082
694 0.000097
695 0.000095
696 0.000096
697 0.000106
698 0.000122
699 0.000132
700 0.000142
701 0.000151
702 0.000160
703 0.000167
704 0.000173
705 0.000176
706 0.000183
707 0.000178
708 0.000183
709 0.000181
710 0.000187
711 0.000200
712 0.000218
713 0.000230
714 0.000247
715 0.000265
716 0.000275
717 0.000290
718 0.000303
719 0.000311
720 0.000314
721 0.000311
722 0.000307
723 0.000306
724 0.000301
725 0.000290
726 0.000277
727 0.000269
728 0.000272
729 0.000272
730 0.000283
731 0.000289
732 0.000282
733 0.000272
734 0.000266
735 0.000254
736 0.000240
737 0.000243
738 0.000255
739 0.000264
740 0.000264
741 0.000260
742 0.000260
743 0.000243
744 0.000217
745 0.000193
746 0.000169
747 0.000137
748 0.000124
749 0.000124
750 0.000131
751 0.000147
752 0.000163
753 0.000182
754 0.000189
755 0.000194
756 0.000193
757 0.000178
758 0.000161
759 0.000153
760 0.000151
761 0.000153
762 0.000163
763 0.000175
764 0.000190
765 0.000201
766 0.000197
767 0.000197
768 0.000192
769 0.000189
770 0.000186
771 0.000195
772 0.000208
773 0.000225
774 0.000237
775 0.000244
776 0.000258
777 0.000267
778 0.000269
779 0.000262
780 0.000258
781 0.000249
782 0.000238
783 0.000232
784 0.000229
785 0.000230
786 0.000229
787 0.000237
788 0.000246
789 0.000250
790 0.000262
791 0.000267
792 0.000270
793 0.000268
794 0.000264
795 0.000251
796 0.000242
797 0.000230
798 0.000220
799 0.000216
800 0.000202
801 0.000186
802 0.000176
803 0.000168
804 0.000159
805 0.000154
806 0.000149
807 0.000144
808 0.000144
809 0.000146
