# i correlation
1 0.002746
2 0.002589
3 0.002472
4 0.002371
5 0.002264
6 0.002167
7 0.002072
8 0.001987
9 0.001923
10 0.001858
11 0.001812
12 0.001776
13 0.001736
14 0.001690
15 0.001659
16 0.001622
17 0.001575
18 0.001538
19 0.001500
20 0.001467
21 0.001458
22 0.001453
23 0.001455
24 0.001453
25 0.001458
26 0.001474
27 0.001493
28 0.001520
29 0.001496
30 0.001473
31 0.001455
32 0.001445
33 0.001452
34 0.001442
35 0.001415
36 0.001413
37 0.001405
38 0.001399
39 0.001391
40 0.001378
41 0.001355
42 0.001347
43 0.001332
44 0.001321
45 0.001300
46 0.001301
47 0.001295
48 0.001282
49 0.001284
50 0.001268
51 0.001267
52 0.001279
53 0.001285
54 0.001275
55 0.001277
56 0.001287
57 0.001306
58 0.001293
59 0.001286
60 0.001286
61 0.001283
62 0.001259
63 0.001228
64 0.001223
65 0.001200
66 0.001191
67 0.001201
68 0.001210
69 0.001218
70 0.001211
71 0.001205
72 0.001189
73 0.001181
74 0.001153
75 0.001134
76 0.001116
77 0.001086
78 0.001060
79 0.001023
80 0.001017
81 0.001002
82 0.000980
83 0.000969
84 0.000965
85 0.000952
86 0.000937
87 0.000932
88 0.000949
89 0.000949
90 0.000964
91 0.000965
92 0.000992
93 0.001006
94 0.001013
95 0.001021
96 0.001020
97 0.001031
98 0.001040
99 0.001053
100 0.001041
101 0.001060
102 0.001064
103 0.001078
104 0.001077
105 0.001056
106 0.001061
107 0.001049
108 0.001056
109 0.001049
110 0.001034
111 0.001014
112 0.001004
113 0.001006
114 0.001005
115 0.001009
116 0.001018
117 0.001020
118 0.001035
119 0.001050
120 0.001060
121 0.001071
122 0.001073
123 0.001060
124 0.001047
125 0.001039
126 0.001037
127 0.001032
128 0.001019
129 0.001009
130 0.001012
131 0.001021
132 0.001029
133 0.001005
134 0.001001
135 0.001007
136 0.001007
137 0.001004
138 0.000995
139 0.000986
140 0.000976
141 0.000980
142 0.000976
143 0.000966
144 0.000956
145 0.000966
146 0.000964
147 0.000979
148 0.000986
149 0.000986
150 0.000993
151 0.000994
152 0.000983
153 0.000967
154 0.000951
155 0.000957
156 0.000943
157 0.000948
158 0.000943
159 0.000955
160 0.000958
161 0.000956
162 0.000961
163 0.000960
164 0.000946
165 0.000945
166 0.000931
167 0.000902
168 0.000897
169 0.000884
170 0.000864
171 0.000847
172 0.000847
173 0.000846
174 0.000855
175 0.000847
176 0.000825
177 0.000830
178 0.000822
179 0.000807
180 0.000790
181 0.000778
182 0.000742
183 0.000737
184 0.000724
185 0.000712
186 0.000681
187 0.000665
188 0.000642
189 0.000640
190 0.000629
191 0.000613
192 0.000594
193 0.000576
194 0.000563
195 0.000561
196 0.000581
197 0.000594
198 0.000596
199 0.000596
200 0.000607
201 0.000625
202 0.000654
203 0.000650
204 0.000624
205 0.000612
206 0.000586
207 0.000592
208 0.000587
209 0.000563
210 0.000545
211 0.000523
212 0.000501
213 0.000475
214 0.000461
215 0.000455
216 0.000454
217 0.000446
218 0.000458
219 0.000468
220 0.000468
221 0.000461
222 0.000440
223 0.000429
224 0.000415
225 0.000400
226 0.000366
227 0.000329
228 0.000309
229 0.000298
230 0.000314
231 0.000330
232 0.000342
233 0.000359
234 0.000380
235 0.000419
236 0.000452
237 0.000456
238 0.000479
239 0.000489
240 0.000502
241 0.000518
242 0.000522
243 0.000528
244 0.000542
245 0.000540
246 0.000544
247 0.000569
248 0.000584
249 0.000594
250 0.000596
251 0.000604
252 0.000608
253 0.000609
254 0.000623
255 0.000620
256 0.000614
257 0.000612
258 0.000627
259 0.000631
260 0.000612
261 0.000613
262 0.000605
263 0.000604
264 0.000614
265 0.000623
266 0.000629
267 0.000656
268 0.000683
269 0.000703
270 0.000708
271 0.000737
272 0.000762
273 0.000765
274 0.000761
275 0.000772
276 0.000761
277 0.000751
278 0.000743
279 0.000731
280 0.000723
281 0.000712
282 0.000714
283 0.000704
284 0.000678
285 0.000667
286 0.000662
287 0.000661
288 0.000672
289 0.000683
290 0.000683
291 0.000686
292 0.000695
293 0.000715
294 0.000726
295 0.000737
296 0.000743
297 0.000771
298 0.000791
299 0.000795
300 0.000800
301 0.000819
302 0.000824
303 0.000828
304 0.000853
305 0.000853
306 0.000846
307 0.000835
308 0.000834
309 0.000833
310 0.000834
311 0.000831
312 0.000818
313 0.000809
314 0.000795
315 0.000784
316 0.000778
317 0.000766
318 0.000747
319 0.000744
320 0.000747
321 0.000725
322 0.000704
323 0.000692
324 0.000696
325 0.000697
326 0.000707
327 0.000704
328 0.000698
329 0.000687
330 0.000666
331 0.000653
332 0.000654
333 0.000633
334 0.000629
335 0.000610
336 0.000593
337 0.000586
338 0.000574
339 0.000572
340 0.000565
341 0.000546
342 0.000534
343 0.000522
344 0.000510
345 0.000494
346 0.000486
347 0.000461
348 0.000435
349 0.000420
350 0.000416
351 0.000411
352 0.000425
353 0.000430
354 0.000431
355 0.000452
356 0.000460
357 0.000485
358 0.000495
359 0.000513
360 0.000528
361 0.000548
362 0.000564
363 0.000576
364 0.000577
365 0.000593
366 0.000609
367 0.000631
368 0.000642
369 0.000658
370 0.000686
371 0.000693
372 0.000690
373 0.000697
374 0.000684
375 0.000658
376 0.000639
377 0.000637
378 0.000635
379 0.000615
380 0.000607
381 0.000610
382 0.000601
383 0.000587
384 0.000572
385 0.000558
386 0.000557
387 0.000538
388 0.000518
389 0.000509
390 0.000504
391 0.000503
392 0.000502
393 0.000507
394 0.000501
395 0.000508
396 0.000522
397 0.000541
398 0.000556
399 0.000571
400 0.000565
401 0.000561
402 0.000537
403 0.000526
404 0.000531
405 0.000530
406 0.000529
407 0.000544
408 0.000551
409 0.000568
410 0.000582
411 0.000575
412 0.000573
413 0.000575
414 0.000581
415 0.000558
416 0.000551
417 0.000556
418 0.000555
419 0.000569
420 0.000588
421 0.000606
422 0.000613
423 0.000633
424 0.000655
425 0.000661
426 0.000671
427 0.000689
428 0.000690
429 0.000688
430 0.000676
431 0.000654
432 0.000640
433 0.000642
434 0.000630
435 0.000622
436 0.000612
437 0.000613
438 0.000630
439 0.000638
440 0.000645
441 0.000635
442 0.000628
443 0.000610
444 0.000591
445 0.000602
446 0.000605
447 0.000581
448 0.000559
449 0.000549
450 0.000552
451 0.000564
452 0.000563
453 0.000558
454 0.000556
455 0.000554
456 0.000556
457 0.000556
458 0.000557
459 0.000545
460 0.000548
461 0.000564
462 0.000566
463 0.000554
464 0.000542
465 0.000541
466 0.000545
467 0.000545
468 0.000540
469 0.000527
470 0.000532
471 0.000526
472 0.000516
473 0.000515
474 0.000512
475 0.000494
476 0.000485
477 0.000483
478 0.000486
479 0.000497
480 0.000495
481 0.000486
482 0.000484
483 0.000477
484 0.000477
485 0.000491
486 0.000476
487 0.000475
488 0.000474
489 0.000497
490 0.000507
491 0.000511
492 0.000509
493 0.000523
494 0.000544
495 0.000550
496 0.000548
497 0.000564
498 0.000573
499 0.000576
500 0.000577
501 0.000572
502 0.000563
503 0.000541
504 0.000528
505 0.000517
506 0.000506
507 0.000490
508 0.000470
509 0.000458
510 0.000449
511 0.000444
512 0.000444
513 0.000445
514 0.000436
515 0.000413
516 0.000400
517 0.000396
518 0.000405
519 0.000399
520 0.000395
521 0.000385
522 0.000398
523 0.000404
524 0.000387
525 0.000369
526 0.000364
527 0.000367
528 0.000356
529 0.000356
530 0.000348
531 0.000343
532 0.000340
533 0.000341
534 0.000349
535 0.000364
536 0.000373
537 0.000386
538 0.000403
539 0.000417
540 0.000430
541 0.000442
542 0.000455
543 0.000455
544 0.000463
545 0.000469
546 0.000489
547 0.000492
548 0.000499
549 0.000488
550 0.000481
551 0.000473
552 0.000459
553 0.000446
554 0.000443
555 0.000439
556 0.000426
557 0.000421
558 0.000421
559 0.000415
560 0.000417
561 0.000420
562 0.000424
563 0.000420
564 0.000412
565 0.000402
566 0.000390
567 0.000379
568 0.000351
569 0.000331
570 0.000318
571 0.000317
572 0.000317
573 0.000319
574 0.000319
575 0.000333
576 0.000344
577 0.000332
578 0.000327
579 0.000322
580 0.000321
581 0.000318
582 0.000322
583 0.000320
584 0.000316
585 0.000303
586 0.000295
587 0.000297
588 0.000311
589 0.000309
590 0.000310
591 0.000312
592 0.000311
593 0.000311
594 0.000296
595 0.000282
596 0.000258
597 0.000249
598 0.000240
599 0.000238
600 0.000238
601 0.000244
602 0.000248
603 0.000257
604 0.000260
605 0.000255
606 0.000258
607 0.000259
608 0.000264
609 0.000265
610 0.000268
611 0.000278
612 0.000278
613 0.000276
614 0.000278
615 0.000293
616 0.000299
617 0.000306
618 0.000301
619 0.000295
620 0.000291
621 0.000296
622 0.000285
623 0.000270
624 0.000272
625 0.000264
626 0.000246
627 0.000230
628 0.000223
629 0.000227
630 0.000238
631 0.000241
632 0.000238
633 0.000228
634 0.000220
635 0.000225
636 0.000232
637 0.000233
638 0.000226
639 0.000224
640 0.000223
641 0.000217
642 0.000220
643 0.000223
644 0.000226
645 0.000238
646 0.000236
647 0.000237
648 0.000244
649 0.000257
650 0.000246
651 0.000235
652 0.000226
653 0.000223
654 0.000213
655 0.000193
656 0.000178
657 0.000168
658 0.000169
659 0.000175
660 0.000172
661 0.000187
662 0.000188
663 0.000203
664 0.000221
665 0.000236
666 0.000245
667 0.000248
668 0.000263
669 0.000261
670 0.000268
671 0.000268
672 0.000263
673 0.000265
674 0.000268
675 0.000276
676 0.000277
677 0.000279
678 0.000288
679 0.000302
680 0.000314
681 0.000324
682 0.000333
683 0.000336
684 0.000329
685 0.000333
686 0.000338
687 0.000341
688 0.000331
689 0.000320
690 0.000301
691 0.000291
692 0.000288
693 0.000283
694 0.000280
695 0.000276
696 0.000279
697 0.000291
698 0.000303
699 0.000307
700 0.000299
701 0.000296
702 0.000284
703 0.000277
704 0.000269
705 0.000264
706 0.000266
707 0.000269
708 0.000266
709 0.000271
710 0.000277
711 0.000270
712 0.000275
713 0.000284
714 0.000286
715 0.000287
716 0.000283
717 0.000268
718 0.000266
719 0.000259
720 0.000259
721 0.000265
722 0.000264
723 0.000259
724 0.000249
725 0.000248
726 0.000234
727 0.000225
728 0.000210
729 0.000194
730 0.000175
731 0.000158
732 0.000149
733 0.000147
734 0.000153
735 0.000157
736 0.000161
737 0.000172
738 0.000177
739 0.000189
740 0.000195
741 0.000204
742 0.000213
743 0.000227
744 0.000241
745 0.000249
746 0.000261
747 0.000267
748 0.000280
749 0.000285
750 0.000296
751 0.000303
752 0.000312
753 0.000310
754 0.000308
755 0.000303
756 0.000301
757 0.000290
758 0.000284
759 0.000276
760 0.000270
761 0.000261
762 0.000258
763 0.000254
764 0.000242
765 0.000248
766 0.000243
767 0.000242
768 0.000236
769 0.000228
770 0.000221
771 0.000217
772 0.000212
773 0.000206
774 0.000203
775 0.000195
776 0.000189
777 0.000190
778 0.000188
779 0.000186
780 0.000191
781 0.000197
782 0.000205
783 0.000206
784 0.000211
785 0.000209
786 0.000212
787 0.000208
788 0.000208
789 0.000215
790 0.000226
791 0.000240
792 0.000252
793 0.000265
794 0.000284
795 0.000297
796 0.000314
797 0.000320
798 0.000328
799 0.000330
800 0.000323
801 0.000323
802 0.000320
803 0.000318
804 0.000311
805 0.000310
806 0.000302
807 0.000305
808 0.000306
809 0.000300
