# i correlation
1 0.002572
2 0.002420
3 0.002299
4 0.002184
5 0.002097
6 0.002015
7 0.001956
8 0.001906
9 0.001856
10 0.001809
11 0.001790
12 0.001788
13 0.001753
14 0.001715
15 0.001673
16 0.001635
17 0.001611
18 0.001579
19 0.001558
20 0.001531
21 0.001514
22 0.001484
23 0.001449
24 0.001429
25 0.001418
26 0.001413
27 0.001410
28 0.001420
29 0.001448
30 0.001460
31 0.001469
32 0.001475
33 0.001486
34 0.001482
35 0.001491
36 0.001481
37 0.001473
38 0.001467
39 0.001472
40 0.001489
41 0.001529
42 0.001569
43 0.001579
44 0.001603
45 0.001600
46 0.001598
47 0.001600
48 0.001603
49 0.001590
50 0.001571
51 0.001554
52 0.001531
53 0.001522
54 0.001503
55 0.001490
56 0.001478
57 0.001462
58 0.001452
59 0.001433
60 0.001430
61 0.001425
62 0.001417
63 0.001418
64 0.001402
65 0.001388
66 0.001387
67 0.001387
68 0.001387
69 0.001387
70 0.001380
71 0.001379
72 0.001370
73 0.001339
74 0.001341
75 0.001341
76 0.001334
77 0.001344
78 0.001350
79 0.001356
80 0.001358
81 0.001352
82 0.001353
83 0.001364
84 0.001382
85 0.001375
86 0.001377
87 0.001382
88 0.001389
89 0.001400
90 0.001428
91 0.001434
92 0.001437
93 0.001440
94 0.001420
95 0.001408
96 0.001407
97 0.001407
98 0.001405
99 0.001402
100 0.001404
101 0.001378
102 0.001362
103 0.001330
104 0.001305
105 0.001279
106 0.001250
107 0.001238
108 0.001241
109 0.001260
110 0.001266
111 0.001282
112 0.001274
113 0.001259
114 0.001236
115 0.001222
116 0.001214
117 0.001211
118 0.001211
119 0.001230
120 0.001235
121 0.001248
122 0.001248
123 0.001261
124 0.001262
125 0.001245
126 0.001219
127 0.001185
128 0.001165
129 0.001159
130 0.001150
131 0.001153
132 0.001167
133 0.001157
134 0.001151
135 0.001154
136 0.001162
137 0.001171
138 0.001174
139 0.001157
140 0.001163
141 0.001175
142 0.001187
143 0.001183
144 0.001183
145 0.001170
146 0.001179
147 0.001169
148 0.001159
149 0.001167
150 0.001177
151 0.001181
152 0.001199
153 0.001229
154 0.001246
155 0.001255
156 0.001262
157 0.001255
158 0.001240
159 0.001213
160 0.001188
161 0.001176
162 0.001164
163 0.001146
164 0.001123
165 0.001135
166 0.001134
167 0.001129
168 0.001143
169 0.001147
170 0.001151
171 0.001163
172 0.001175
173 0.001191
174 0.001213
175 0.001208
176 0.001195
177 0.001200
178 0.001190
179 0.001189
180 0.001180
181 0.001165
182 0.001172
183 0.001165
184 0.001166
185 0.001190
186 0.001206
187 0.001218
188 0.001220
189 0.001222
190 0.001213
191 0.001217
192 0.001192
193 0.001183
194 0.001177
195 0.001170
196 0.001159
197 0.001142
198 0.001140
199 0.001129
200 0.001116
201 0.001097
202 0.001084
203 0.001096
204 0.001103
205 0.001099
206 0.001091
207 0.001087
208 0.001079
209 0.001084
210 0.001096
211 0.001110
212 0.001104
213 0.001100
214 0.001092
215 0.001083
216 0.001086
217 0.001094
218 0.001108
219 0.001121
220 0.001144
221 0.001167
222 0.001176
223 0.001167
224 0.001160
225 0.001153
226 0.001157
227 0.001133
228 0.001121
229 0.001116
230 0.001102
231 0.001095
232 0.001095
233 0.001107
234 0.001118
235 0.001125
236 0.001126
237 0.001131
238 0.001126
239 0.001119
240 0.001123
241 0.001114
242 0.001098
243 0.001078
244 0.001047
245 0.001012
246 0.000993
247 0.000979
248 0.000983
249 0.000977
250 0.000949
251 0.000943
252 0.000941
253 0.000949
254 0.000952
255 0.000962
256 0.000963
257 0.000952
258 0.000938
259 0.000918
260 0.000904
261 0.000910
262 0.000904
263 0.000907
264 0.000908
265 0.000917
266 0.000933
267 0.000951
268 0.000968
269 0.000982
270 0.001002
271 0.001003
272 0.001005
273 0.001022
274 0.001032
275 0.001040
276 0.001037
277 0.001033
278 0.001050
279 0.001073
280 0.001073
281 0.001082
282 0.001102
283 0.001101
284 0.001100
285 0.001091
286 0.001090
287 0.001092
288 0.001093
289 0.001095
290 0.001095
291 0.001084
292 0.001048
293 0.001033
294 0.001022
295 0.001029
296 0.001037
297 0.001040
298 0.001036
299 0.001026
300 0.001035
301 0.001031
302 0.001023
303 0.001028
304 0.001021
305 0.001009
306 0.001002
307 0.000983
308 0.000976
309 0.000981
310 0.000975
311 0.000978
312 0.000978
313 0.000974
314 0.000978
315 0.000966
316 0.000955
317 0.000946
318 0.000950
319 0.000947
320 0.000959
321 0.000955
322 0.000938
323 0.000940
324 0.000933
325 0.000926
326 0.000928
327 0.000927
328 0.000930
329 0.000933
330 0.000936
331 0.000937
332 0.000948
333 0.000960
334 0.000950
335 0.000960
336 0.000951
337 0.000957
338 0.000942
339 0.000932
340 0.000935
341 0.000934
342 0.000938
343 0.000926
344 0.000914
345 0.000919
346 0.000925
347 0.000923
348 0.000923
349 0.000914
350 0.000901
351 0.000899
352 0.000879
353 0.000867
354 0.000851
355 0.000821
356 0.000798
357 0.000785
358 0.000770
359 0.000765
360 0.000765
361 0.000770
362 0.000770
363 0.000772
364 0.000773
365 0.000760
366 0.000743
367 0.000725
368 0.000719
369 0.000709
370 0.000714
371 0.000735
372 0.000766
373 0.000779
374 0.000785
375 0.000789
376 0.000792
377 0.000789
378 0.000779
379 0.000782
380 0.000783
381 0.000770
382 0.000743
383 0.000730
384 0.000737
385 0.000728
386 0.000722
387 0.000717
388 0.000718
389 0.000719
390 0.000736
391 0.000759
392 0.000777
393 0.000801
394 0.000815
395 0.000835
396 0.000856
397 0.000871
398 0.000879
399 0.000876
400 0.000864
401 0.000841
402 0.000818
403 0.000809
404 0.000805
405 0.000807
406 0.000813
407 0.000813
408 0.000822
409 0.000823
410 0.000825
411 0.000823
412 0.000818
413 0.000822
414 0.000817
415 0.000806
416 0.000797
417 0.000792
418 0.000779
419 0.000776
420 0.000780
421 0.000769
422 0.000752
423 0.000735
424 0.000717
425 0.000719
426 0.000718
427 0.000717
428 0.000718
429 0.000723
430 0.000719
431 0.000714
432 0.000727
433 0.000730
434 0.000711
435 0.000703
436 0.000666
437 0.000653
438 0.000646
439 0.000655
440 0.000661
441 0.000675
442 0.000680
443 0.000682
444 0.000693
445 0.000686
446 0.000680
447 0.000680
448 0.000681
449 0.000677
450 0.000672
451 0.000676
452 0.000683
453 0.000676
454 0.000682
455 0.000685
456 0.000702
457 0.000698
458 0.000705
459 0.000710
460 0.000716
461 0.000740
462 0.000741
463 0.000731
464 0.000721
465 0.000704
466 0.000695
467 0.000687
468 0.000676
469 0.000671
470 0.000669
471 0.000658
472 0.000654
473 0.000658
474 0.000659
475 0.000662
476 0.000667
477 0.000674
478 0.000660
479 0.000633
480 0.000620
481 0.000602
482 0.000599
483 0.000601
484 0.000600
485 0.000594
486 0.000590
487 0.000587
488 0.000591
489 0.000592
490 0.000589
491 0.000589
492 0.000594
493 0.000598
494 0.000603
495 0.000607
496 0.000624
497 0.000623
498 0.000627
499 0.000637
500 0.000632
501 0.000625
502 0.000620
503 0.000614
504 0.000615
505 0.000605
506 0.000595
507 0.000597
508 0.000598
509 0.000601
510 0.000597
511 0.000590
512 0.000584
513 0.000567
514 0.000554
515 0.000541
516 0.000544
517 0.000568
518 0.000570
519 0.000576
520 0.000568
521 0.000570
522 0.000574
523 0.000570
524 0.000562
525 0.000554
526 0.000550
527 0.000536
528 0.000532
529 0.000525
530 0.000526
531 0.000529
532 0.000523
533 0.000517
534 0.000502
535 0.000479
536 0.000460
537 0.000450
538 0.000451
539 0.000443
540 0.000442
541 0.000444
542 0.000440
543 0.000438
544 0.000441
545 0.000447
546 0.000450
547 0.000442
548 0.000442
549 0.000442
550 0.000440
551 0.000447
552 0.000458
553 0.000460
554 0.000474
555 0.000457
556 0.000436
557 0.000421
558 0.000409
559 0.000402
560 0.000388
561 0.000383
562 0.000376
563 0.000367
564 0.000351
565 0.000350
566 0.000351
567 0.000350
568 0.000353
569 0.000356
570 0.000363
571 0.000368
572 0.000361
573 0.000358
574 0.000343
575 0.000335
576 0.000319
577 0.000313
578 0.000299
579 0.000298
580 0.000296
581 0.000291
582 0.000293
583 0.000296
584 0.000310
585 0.000321
586 0.000330
587 0.000340
588 0.000342
589 0.000343
590 0.000339
591 0.000328
592 0.000313
593 0.000293
594 0.000290
595 0.000287
596 0.000287
597 0.000290
598 0.000292
599 0.000290
600 0.000295
601 0.000308
602 0.000320
603 0.000314
604 0.000300
605 0.000279
606 0.000261
607 0.000253
608 0.000239
609 0.000237
610 0.000237
611 0.000227
612 0.000217
613 0.000213
614 0.000225
615 0.000237
616 0.000255
617 0.000276
618 0.000285
619 0.000293
620 0.000302
621 0.000303
622 0.000294
623 0.000290
624 0.000286
625 0.000266
626 0.000256
627 0.000242
628 0.000246
629 0.000256
630 0.000270
631 0.000280
632 0.000287
633 0.000295
634 0.000293
635 0.000296
636 0.000294
637 0.000280
638 0.000275
639 0.000259
640 0.000245
641 0.000236
642 0.000232
643 0.000231
644 0.000221
645 0.000212
646 0.000203
647 0.000179
648 0.000158
649 0.000148
650 0.000141
651 0.000137
652 0.000128
653 0.000119
654 0.000113
655 0.000104
656 0.000084
657 0.000059
658 0.000042
659 0.000032
660 0.000018
661 0.000021
662 0.000019
663 0.000033
664 0.000043
665 0.000055
666 0.000061
667 0.000072
668 0.000075
669 0.000078
670 0.000080
671 0.000084
672 0.000092
673 0.000095
674 0.000101
675 0.000108
676 0.000110
677 0.000112
678 0.000109
679 0.000113
680 0.000122
681 0.000134
682 0.000146
683 0.000149
684 0.000156
685 0.000156
686 0.000160
687 0.000174
688 0.000185
689 0.000188
690 0.000182
691 0.000180
692 0.000174
693 0.000166
694 0.000174
695 0.000172
696 0.000170
697 0.000172
698 0.000169
699 0.000171
700 0.000175
701 0.000169
702 0.000160
703 0.000157
704 0.000150
705 0.000142
706 0.000135
707 0.000136
708 0.000139
709 0.000153
710 0.000167
711 0.000173
712 0.000179
713 0.000184
714 0.000183
715 0.000174
716 0.000170
717 0.000169
718 0.000154
719 0.000152
720 0.000149
721 0.000148
722 0.000155
723 0.000159
724 0.000162
725 0.000163
726 0.000161
727 0.000154
728 0.000150
729 0.000147
730 0.000145
731 0.000147
732 0.000148
733 0.000163
734 0.000171
735 0.000173
736 0.000175
737 0.000167
738 0.000168
739 0.000168
740 0.000166
741 0.000168
742 0.000165
743 0.000173
744 0.000176
745 0.000175
746 0.000166
747 0.000162
748 0.000153
749 0.000129
750 0.000121
751 0.000119
752 0.000130
753 0.000133
754 0.000135
755 0.000143
756 0.000150
757 0.000162
758 0.000166
759 0.000173
760 0.000180
761 0.000176
762 0.000183
763 0.000184
764 0.000187
765 0.000194
766 0.000194
767 0.000192
768 0.000188
769 0.000184
770 0.000182
771 0.000176
772 0.000183
773 0.000179
774 0.000186
775 0.000193
776 0.000193
777 0.000188
778 0.000174
779 0.000163
780 0.000157
781 0.000157
782 0.000161
783 0.000162
784 0.000171
785 0.000175
786 0.000175
787 0.000179
788 0.000176
789 0.000179
790 0.000181
791 0.000184
792 0.000187
793 0.000188
794 0.000188
795 0.000184
796 0.000183
797 0.000180
798 0.000182
799 0.000181
800 0.000175
801 0.000172
802 0.000165
803 0.000168
804 0.000168
805 0.000167
806 0.000167
807 0.000167
808 0.000158
809 0.000148
