# i correlation
1 0.002618
2 0.002447
3 0.002329
4 0.002240
5 0.002170
6 0.002116
7 0.002052
8 0.001992
9 0.001953
10 0.001930
11 0.001905
12 0.001891
13 0.001856
14 0.001811
15 0.001777
16 0.001743
17 0.001722
18 0.001709
19 0.001700
20 0.001680
21 0.001659
22 0.001656
23 0.001658
24 0.001656
25 0.001644
26 0.001603
27 0.001586
28 0.001570
29 0.001572
30 0.001578
31 0.001580
32 0.001593
33 0.001611
34 0.001610
35 0.001604
36 0.001610
37 0.001611
38 0.001589
39 0.001564
40 0.001540
41 0.001532
42 0.001533
43 0.001541
44 0.001545
45 0.001544
46 0.001539
47 0.001531
48 0.001526
49 0.001528
50 0.001533
51 0.001535
52 0.001541
53 0.001537
54 0.001531
55 0.001521
56 0.001498
57 0.001489
58 0.001474
59 0.001451
60 0.001422
61 0.001404
62 0.001399
63 0.001381
64 0.001376
65 0.001372
66 0.001366
67 0.001368
68 0.001373
69 0.001380
70 0.001394
71 0.001370
72 0.001362
73 0.001347
74 0.001337
75 0.001302
76 0.001257
77 0.001230
78 0.001215
79 0.001192
80 0.001176
81 0.001157
82 0.001162
83 0.001150
84 0.001164
85 0.001166
86 0.001187
87 0.001213
88 0.001224
89 0.001217
90 0.001207
91 0.001191
92 0.001181
93 0.001186
94 0.001186
95 0.001163
96 0.001155
97 0.001161
98 0.001158
99 0.001154
100 0.001132
101 0.001124
102 0.001128
103 0.001143
104 0.001145
105 0.001153
106 0.001162
107 0.001173
108 0.001182
109 0.001198
110 0.001204
111 0.001201
112 0.001201
113 0.001212
114 0.001216
115 0.001210
116 0.001214
117 0.001220
118 0.001220
119 0.001225
120 0.001242
121 0.001245
122 0.001245
123 0.001252
124 0.001232
125 0.001200
126 0.001182
127 0.001164
128 0.001133
129 0.001109
130 0.001087
131 0.001073
132 0.001060
133 0.001035
134 0.000994
135 0.000955
136 0.000927
137 0.000893
138 0.000866
139 0.000863
140 0.000858
141 0.000862
142 0.000884
143 0.000911
144 0.000919
145 0.000917
146 0.000908
147 0.000905
148 0.000898
149 0.000895
150 0.000885
151 0.000881
152 0.000904
153 0.000926
154 0.000953
155 0.000968
156 0.000990
157 0.001010
158 0.001025
159 0.001034
160 0.001048
161 0.001054
162 0.001057
163 0.001049
164 0.001047
165 0.001027
166 0.001031
167 0.001024
168 0.001016
169 0.001001
170 0.000982
171 0.000977
172 0.000983
173 0.000981
174 0.000986
175 0.001009
176 0.001029
177 0.001039
178 0.001031
179 0.001005
180 0.000960
181 0.000944
182 0.000924
183 0.000903
184 0.000885
185 0.000871
186 0.000860
187 0.000850
188 0.000823
189 0.000812
190 0.000790
191 0.000775
192 0.000764
193 0.000777
194 0.000775
195 0.000787
196 0.000789
197 0.000797
198 0.000791
199 0.000783
200 0.000777
201 0.000777
202 0.000764
203 0.000742
204 0.000740
205 0.000738
206 0.000746
207 0.000745
208 0.000745
209 0.000741
210 0.000743
211 0.000754
212 0.000768
213 0.000778
214 0.000797
215 0.000813
216 0.000823
217 0.000842
218 0.000849
219 0.000852
220 0.000855
221 0.000847
222 0.000833
223 0.000821
224 0.000808
225 0.000803
226 0.000803
227 0.000807
228 0.000809
229 0.000841
230 0.000873
231 0.000884
232 0.000880
233 0.000888
234 0.000902
235 0.000917
236 0.000932
237 0.000922
238 0.000909
239 0.000899
240 0.000916
241 0.000936
242 0.000947
243 0.000944
244 0.000932
245 0.000938
246 0.000954
247 0.000964
248 0.000977
249 0.000972
250 0.000977
251 0.000973
252 0.000952
253 0.000933
254 0.000921
255 0.000921
256 0.000910
257 0.000898
258 0.000884
259 0.000886
260 0.000894
261 0.000897
262 0.000899
263 0.000914
264 0.000912
265 0.000930
266 0.000951
267 0.000979
268 0.000994
269 0.001011
270 0.001021
271 0.001054
272 0.001076
273 0.001089
274 0.001099
275 0.001107
276 0.001097
277 0.001092
278 0.001090
279 0.001089
280 0.001102
281 0.001104
282 0.001102
283 0.001111
284 0.001125
285 0.001131
286 0.001149
287 0.001161
288 0.001166
289 0.001173
290 0.001192
291 0.001178
292 0.001169
293 0.001161
294 0.001137
295 0.001112
296 0.001096
297 0.001086
298 0.001076
299 0.001071
300 0.001065
301 0.001050
302 0.001054
303 0.001048
304 0.001041
305 0.001037
306 0.001019
307 0.001006
308 0.001014
309 0.001015
310 0.001003
311 0.000989
312 0.000977
313 0.000956
314 0.000955
315 0.000953
316 0.000966
317 0.000979
318 0.000999
319 0.001009
320 0.001022
321 0.001035
322 0.001048
323 0.001057
324 0.001076
325 0.001079
326 0.001055
327 0.001042
328 0.001044
329 0.001054
330 0.001058
331 0.001054
332 0.001064
333 0.001064
334 0.001052
335 0.001054
336 0.001052
337 0.001068
338 0.001079
339 0.001084
340 0.001084
341 0.001084
342 0.001084
343 0.001084
344 0.001084
345 0.001067
346 0.001035
347 0.001014
348 0.000989
349 0.000964
350 0.000950
351 0.000929
352 0.000906
353 0.000898
354 0.000885
355 0.000880
356 0.000874
357 0.000870
358 0.000860
359 0.000846
360 0.000832
361 0.000825
362 0.000822
363 0.000814
364 0.000810
365 0.000797
366 0.000786
367 0.000772
368 0.000784
369 0.000779
370 0.000778
371 0.000762
372 0.000755
373 0.000747
374 0.000764
375 0.000767
376 0.000793
377 0.000816
378 0.000830
379 0.000830
380 0.000825
381 0.000818
382 0.000812
383 0.000810
384 0.000802
385 0.000784
386 0.000778
387 0.000783
388 0.000786
389 0.000793
390 0.000791
391 0.000792
392 0.000795
393 0.000805
394 0.000818
395 0.000823
396 0.000808
397 0.000780
398 0.000761
399 0.000747
400 0.000739
401 0.000732
402 0.000740
403 0.000737
404 0.000722
405 0.000719
406 0.000727
407 0.000730
408 0.000722
409 0.000707
410 0.000704
411 0.000706
412 0.000719
413 0.000723
414 0.000730
415 0.000727
416 0.000720
417 0.000724
418 0.000723
419 0.000717
420 0.000724
421 0.000730
422 0.000739
423 0.000750
424 0.000751
425 0.000753
426 0.000751
427 0.000738
428 0.000721
429 0.000710
430 0.000699
431 0.000698
432 0.000694
433 0.000683
434 0.000667
435 0.000667
436 0.000658
437 0.000643
438 0.000642
439 0.000624
440 0.000617
441 0.000626
442 0.000639
443 0.000638
444 0.000649
445 0.000662
446 0.000671
447 0.000690
448 0.000710
449 0.000720
450 0.000717
451 0.000712
452 0.000710
453 0.000696
454 0.000695
455 0.000704
456 0.000706
457 0.000697
458 0.000691
459 0.000666
460 0.000640
461 0.000625
462 0.000613
463 0.000597
464 0.000583
465 0.000571
466 0.000556
467 0.000546
468 0.000532
469 0.000517
470 0.000491
471 0.000470
472 0.000455
473 0.000432
474 0.000410
475 0.000408
476 0.000411
477 0.000415
478 0.000414
479 0.000421
480 0.000429
481 0.000432
482 0.000426
483 0.000409
484 0.000399
485 0.000398
486 0.000410
487 0.000415
488 0.000424
489 0.000412
490 0.000405
491 0.000414
492 0.000434
493 0.000442
494 0.000437
495 0.000425
496 0.000425
497 0.000425
498 0.000426
499 0.000430
500 0.000436
501 0.000443
502 0.000425
503 0.000414
504 0.000410
505 0.000409
506 0.000400
507 0.000395
508 0.000395
509 0.000398
510 0.000404
511 0.000410
512 0.000392
513 0.000377
514 0.000371
515 0.000375
516 0.000373
517 0.000364
518 0.000359
519 0.000363
520 0.000369
521 0.000367
522 0.000371
523 0.000363
524 0.000334
525 0.000307
526 0.000289
527 0.000262
528 0.000241
529 0.000227
530 0.000213
531 0.000203
532 0.000207
533 0.000208
534 0.000219
535 0.000226
536 0.000219
537 0.000220
538 0.000234
539 0.000241
540 0.000233
541 0.000234
542 0.000238
543 0.000243
544 0.000256
545 0.000274
546 0.000267
547 0.000265
548 0.000255
549 0.000249
550 0.000254
551 0.000262
552 0.000275
553 0.000270
554 0.000285
555 0.000310
556 0.000322
557 0.000330
558 0.000333
559 0.000335
560 0.000323
561 0.000320
562 0.000313
563 0.000300
564 0.000295
565 0.000303
566 0.000302
567 0.000302
568 0.000306
569 0.000324
570 0.000337
571 0.000345
572 0.000343
573 0.000332
574 0.000337
575 0.000336
576 0.000335
577 0.000330
578 0.000334
579 0.000351
580 0.000369
581 0.000376
582 0.000373
583 0.000368
584 0.000358
585 0.000356
586 0.000342
587 0.000340
588 0.000336
589 0.000333
590 0.000328
591 0.000314
592 0.000303
593 0.000294
594 0.000282
595 0.000271
596 0.000268
597 0.000269
598 0.000278
599 0.000297
600 0.000300
601 0.000304
602 0.000308
603 0.000314
604 0.000326
605 0.000329
606 0.000333
607 0.000343
608 0.000359
609 0.000386
610 0.000400
611 0.000401
612 0.000411
613 0.000425
614 0.000432
615 0.000424
616 0.000415
617 0.000408
618 0.000399
619 0.000405
620 0.000401
621 0.000397
622 0.000401
623 0.000393
624 0.000408
625 0.000415
626 0.000407
627 0.000390
628 0.000381
629 0.000372
630 0.000359
631 0.000360
632 0.000363
633 0.000369
634 0.000364
635 0.000360
636 0.000366
637 0.000372
638 0.000365
639 0.000359
640 0.000353
641 0.000359
642 0.000360
643 0.000356
644 0.000350
645 0.000338
646 0.000329
647 0.000320
648 0.000310
649 0.000301
650 0.000292
651 0.000286
652 0.000280
653 0.000286
654 0.000292
655 0.000297
656 0.000298
657 0.000294
658 0.000305
659 0.000300
660 0.000298
661 0.000304
662 0.000310
663 0.000309
664 0.000321
665 0.000333
666 0.000346
667 0.000363
668 0.000373
669 0.000382
670 0.000380
671 0.000375
672 0.000371
673 0.000370
674 0.000377
675 0.000381
676 0.000386
677 0.000393
678 0.000400
679 0.000393
680 0.000386
681 0.000375
682 0.000356
683 0.000352
684 0.000351
685 0.000340
686 0.000339
687 0.000340
688 0.000342
689 0.000345
690 0.000337
691 0.000332
692 0.000342
693 0.000342
694 0.000340
695 0.000335
696 0.000338
697 0.000349
698 0.000358
699 0.000359
700 0.000349
701 0.000348
702 0.000335
703 0.000330
704 0.000326
705 0.000323
706 0.000318
707 0.000311
708 0.000312
709 0.000311
710 0.000313
711 0.000319
712 0.000319
713 0.000322
714 0.000325
715 0.000330
716 0.000337
717 0.000342
718 0.000347
719 0.000350
720 0.000347
721 0.000346
722 0.000353
723 0.000358
724 0.000355
725 0.000352
726 0.000356
727 0.000363
728 0.000378
729 0.000387
730 0.000395
731 0.000401
732 0.000406
733 0.000409
734 0.000416
735 0.000421
736 0.000421
737 0.000412
738 0.000414
739 0.000413
740 0.000402
741 0.000395
742 0.000399
743 0.000396
744 0.000389
745 0.000379
746 0.000370
747 0.000363
748 0.000357
749 0.000349
750 0.000335
751 0.000335
752 0.000336
753 0.000329
754 0.000322
755 0.000314
756 0.000309
757 0.000308
758 0.000311
759 0.000309
760 0.000296
761 0.000286
762 0.000271
763 0.000267
764 0.000261
765 0.000262
766 0.000267
767 0.000267
768 0.000263
769 0.000251
770 0.000234
771 0.000227
772 0.000227
773 0.000223
774 0.000218
775 0.000218
776 0.000220
777 0.000217
778 0.000215
779 0.000205
780 0.000196
781 0.000191
782 0.000187
783 0.000181
784 0.000174
785 0.000174
786 0.000171
787 0.000170
788 0.000173
789 0.000171
790 0.000171
791 0.000169
792 0.000163
793 0.000153
794 0.000145
795 0.000139
796 0.000135
797 0.000135
798 0.000130
799 0.000126
800 0.000127
801 0.000125
802 0.000127
803 0.000127
804 0.000114
805 0.000105
806 0.000098
807 0.000084
808 0.000072
809 0.000073
