# i correlation
1 0.002135
2 0.001956
3 0.001799
4 0.001672
5 0.001590
6 0.001506
7 0.001432
8 0.001371
9 0.001341
10 0.001311
11 0.001267
12 0.001212
13 0.001170
14 0.001120
15 0.001092
16 0.001078
17 0.001066
18 0.001062
19 0.001050
20 0.001029
21 0.001024
22 0.001013
23 0.001005
24 0.001004
25 0.000994
26 0.000994
27 0.001001
28 0.001015
29 0.001020
30 0.001028
31 0.001029
32 0.001057
33 0.001109
34 0.001137
35 0.001148
36 0.001140
37 0.001141
38 0.001149
39 0.001157
40 0.001155
41 0.001148
42 0.001165
43 0.001181
44 0.001184
45 0.001187
46 0.001164
47 0.001137
48 0.001110
49 0.001097
50 0.001078
51 0.001059
52 0.001043
53 0.001023
54 0.001009
55 0.001009
56 0.001006
57 0.001002
58 0.001004
59 0.001002
60 0.001006
61 0.001053
62 0.001075
63 0.001070
64 0.001057
65 0.001043
66 0.001014
67 0.001008
68 0.001004
69 0.000989
70 0.000991
71 0.001012
72 0.001026
73 0.001044
74 0.001056
75 0.001065
76 0.001083
77 0.001082
78 0.001093
79 0.001112
80 0.001114
81 0.001112
82 0.001121
83 0.001128
84 0.001129
85 0.001112
86 0.001086
87 0.001073
88 0.001049
89 0.001040
90 0.001010
91 0.000993
92 0.000985
93 0.000978
94 0.000984
95 0.000961
96 0.000938
97 0.000914
98 0.000897
99 0.000880
100 0.000865
101 0.000854
102 0.000834
103 0.000823
104 0.000800
105 0.000766
106 0.000740
107 0.000715
108 0.000701
109 0.000695
110 0.000714
111 0.000728
112 0.000749
113 0.000768
114 0.000797
115 0.000810
116 0.000811
117 0.000810
118 0.000806
119 0.000800
120 0.000810
121 0.000814
122 0.000827
123 0.000857
124 0.000856
125 0.000853
126 0.000850
127 0.000848
128 0.000839
129 0.000846
130 0.000844
131 0.000845
132 0.000845
133 0.000833
134 0.000830
135 0.000828
136 0.000844
137 0.000840
138 0.000833
139 0.000814
140 0.000827
141 0.000857
142 0.000875
143 0.000874
144 0.000874
145 0.000882
146 0.000877
147 0.000883
148 0.000885
149 0.000872
150 0.000869
151 0.000858
152 0.000843
153 0.000832
154 0.000835
155 0.000859
156 0.000874
157 0.000893
158 0.000900
159 0.000917
160 0.000928
161 0.000921
162 0.000914
163 0.000912
164 0.000910
165 0.000915
166 0.000906
167 0.000878
168 0.000869
169 0.000865
170 0.000858
171 0.000834
172 0.000810
173 0.000801
174 0.000807
175 0.000819
176 0.000837
177 0.000843
178 0.000835
179 0.000826
180 0.000813
181 0.000808
182 0.000791
183 0.000778
184 0.000772
185 0.000782
186 0.000798
187 0.000805
188 0.000810
189 0.000791
190 0.000778
191 0.000762
192 0.000768
193 0.000783
194 0.000805
195 0.000815
196 0.000822
197 0.000827
198 0.000833
199 0.000857
200 0.000843
201 0.000830
202 0.000842
203 0.000860
204 0.000861
205 0.000861
206 0.000854
207 0.000847
208 0.000842
209 0.000841
210 0.000815
211 0.000794
212 0.000777
213 0.000751
214 0.000713
215 0.000709
216 0.000712
217 0.000707
218 0.000714
219 0.000716
220 0.000726
221 0.000738
222 0.000736
223 0.000717
224 0.000716
225 0.000726
226 0.000745
227 0.000774
228 0.000784
229 0.000803
230 0.000824
231 0.000837
232 0.000850
233 0.000858
234 0.000880
235 0.000901
236 0.000926
237 0.000940
238 0.000939
239 0.000956
240 0.000948
241 0.000948
242 0.000953
243 0.000953
244 0.000964
245 0.000954
246 0.000937
247 0.000916
248 0.000906
249 0.000882
250 0.000855
251 0.000821
252 0.000799
253 0.000781
254 0.000784
255 0.000802
256 0.000790
257 0.000784
258 0.000778
259 0.000777
260 0.000787
261 0.000789
262 0.000780
263 0.000784
264 0.000798
265 0.000796
266 0.000773
267 0.000748
268 0.000727
269 0.000714
270 0.000724
271 0.000738
272 0.000757
273 0.000771
274 0.000784
275 0.000783
276 0.000768
277 0.000745
278 0.000729
279 0.000711
280 0.000697
281 0.000680
282 0.000669
283 0.000664
284 0.000660
285 0.000651
286 0.000643
287 0.000638
288 0.000664
289 0.000685
290 0.000677
291 0.000674
292 0.000670
293 0.000673
294 0.000673
295 0.000672
296 0.000674
297 0.000703
298 0.000727
299 0.000751
300 0.000761
301 0.000739
302 0.000721
303 0.000708
304 0.000705
305 0.000704
306 0.000716
307 0.000713
308 0.000711
309 0.000717
310 0.000729
311 0.000713
312 0.000686
313 0.000665
314 0.000644
315 0.000643
316 0.000635
317 0.000642
318 0.000665
319 0.000698
320 0.000709
321 0.000723
322 0.000731
323 0.000727
324 0.000720
325 0.000712
326 0.000715
327 0.000704
328 0.000697
329 0.000686
330 0.000675
331 0.000677
332 0.000680
333 0.000684
334 0.000684
335 0.000674
336 0.000656
337 0.000645
338 0.000637
339 0.000637
340 0.000636
341 0.000617
342 0.000606
343 0.000594
344 0.000574
345 0.000552
346 0.000521
347 0.000523
348 0.000527
349 0.000550
350 0.000565
351 0.000571
352 0.000570
353 0.000559
354 0.000553
355 0.000531
356 0.000510
357 0.000493
358 0.000483
359 0.000485
360 0.000483
361 0.000491
362 0.000496
363 0.000491
364 0.000496
365 0.000499
366 0.000496
367 0.000507
368 0.000514
369 0.000512
370 0.000512
371 0.000527
372 0.000544
373 0.000549
374 0.000536
375 0.000537
376 0.000534
377 0.000532
378 0.000522
379 0.000496
380 0.000475
381 0.000475
382 0.000494
383 0.000509
384 0.000532
385 0.000548
386 0.000567
387 0.000568
388 0.000553
389 0.000547
390 0.000542
391 0.000545
392 0.000551
393 0.000555
394 0.000562
395 0.000571
396 0.000570
397 0.000570
398 0.000562
399 0.000555
400 0.000548
401 0.000542
402 0.000555
403 0.000558
404 0.000573
405 0.000595
406 0.000603
407 0.000592
408 0.000571
409 0.000545
410 0.000532
411 0.000525
412 0.000518
413 0.000501
414 0.000496
415 0.000496
416 0.000497
417 0.000486
418 0.000480
419 0.000469
420 0.000481
421 0.000488
422 0.000483
423 0.000482
424 0.000477
425 0.000462
426 0.000445
427 0.000419
428 0.000406
429 0.000427
430 0.000442
431 0.000463
432 0.000474
433 0.000482
434 0.000486
435 0.000478
436 0.000465
437 0.000441
438 0.000435
439 0.000432
440 0.000433
441 0.000443
442 0.000446
443 0.000444
444 0.000441
445 0.000439
446 0.000432
447 0.000431
448 0.000441
449 0.000449
450 0.000457
451 0.000475
452 0.000484
453 0.000483
454 0.000481
455 0.000468
456 0.000462
457 0.000457
458 0.000443
459 0.000431
460 0.000415
461 0.000403
462 0.000399
463 0.000409
464 0.000430
465 0.000448
466 0.000468
467 0.000485
468 0.000494
469 0.000509
470 0.000516
471 0.000505
472 0.000485
473 0.000468
474 0.000468
475 0.000483
476 0.000505
477 0.000522
478 0.000535
479 0.000549
480 0.000557
481 0.000557
482 0.000547
483 0.000533
484 0.000531
485 0.000538
486 0.000538
487 0.000541
488 0.000528
489 0.000515
490 0.000508
491 0.000508
492 0.000509
493 0.000493
494 0.000486
495 0.000470
496 0.000472
497 0.000471
498 0.000466
499 0.000462
500 0.000451
501 0.000426
502 0.000409
503 0.000396
504 0.000383
505 0.000377
506 0.000369
507 0.000359
508 0.000355
509 0.000365
510 0.000367
511 0.000354
512 0.000339
513 0.000339
514 0.000350
515 0.000368
516 0.000382
517 0.000398
518 0.000414
519 0.000432
520 0.000448
521 0.000445
522 0.000439
523 0.000416
524 0.000392
525 0.000381
526 0.000375
527 0.000388
528 0.000404
529 0.000410
530 0.000419
531 0.000413
532 0.000416
533 0.000411
534 0.000407
535 0.000407
536 0.000404
537 0.000400
538 0.000390
539 0.000376
540 0.000355
541 0.000344
542 0.000335
543 0.000332
544 0.000325
545 0.000310
546 0.000304
547 0.000305
548 0.000297
549 0.000289
550 0.000263
551 0.000249
552 0.000253
553 0.000271
554 0.000284
555 0.000289
556 0.000282
557 0.000269
558 0.000270
559 0.000271
560 0.000275
561 0.000284
562 0.000297
563 0.000316
564 0.000340
565 0.000360
566 0.000376
567 0.000398
568 0.000408
569 0.000416
570 0.000435
571 0.000451
572 0.000455
573 0.000448
574 0.000438
575 0.000412
576 0.000392
577 0.000371
578 0.000350
579 0.000340
580 0.000328
581 0.000322
582 0.000307
583 0.000292
584 0.000272
585 0.000239
586 0.000218
587 0.000193
588 0.000186
589 0.000188
590 0.000198
591 0.000210
592 0.000214
593 0.000219
594 0.000226
595 0.000224
596 0.000209
597 0.000192
598 0.000183
599 0.000178
600 0.000179
601 0.000173
602 0.000167
603 0.000156
604 0.000156
605 0.000158
606 0.000167
607 0.000181
608 0.000197
609 0.000212
610 0.000225
611 0.000235
612 0.000239
613 0.000239
614 0.000247
615 0.000258
616 0.000259
617 0.000256
618 0.000239
619 0.000221
620 0.000199
621 0.000182
622 0.000164
623 0.000158
624 0.000145
625 0.000152
626 0.000169
627 0.000176
628 0.000189
629 0.000196
630 0.000192
631 0.000189
632 0.000195
633 0.000195
634 0.000192
635 0.000179
636 0.000171
637 0.000169
638 0.000168
639 0.000168
640 0.000164
641 0.000163
642 0.000160
643 0.000148
644 0.000138
645 0.000133
646 0.000128
647 0.000139
648 0.000141
649 0.000144
650 0.000161
651 0.000178
652 0.000190
653 0.000195
654 0.000189
655 0.000184
656 0.000185
657 0.000189
658 0.000196
659 0.000194
660 0.000188
661 0.000182
662 0.000166
663 0.000158
664 0.000152
665 0.000143
666 0.000132
667 0.000126
668 0.000121
669 0.000115
670 0.000115
671 0.000115
672 0.000120
673 0.000122
674 0.000124
675 0.000128
676 0.000124
677 0.000119
678 0.000114
679 0.000103
680 0.000094
681 0.000076
682 0.000068
683 0.000064
684 0.000060
685 0.000056
686 0.000050
687 0.000045
688 0.000036
689 0.000037
690 0.000049
691 0.000059
692 0.000056
693 0.000060
694 0.000074
695 0.000091
696 0.000110
697 0.000122
698 0.000123
699 0.000120
700 0.000111
701 0.000104
702 0.000095
703 0.000093
704 0.000095
705 0.000098
706 0.000096
707 0.000086
708 0.000087
709 0.000089
710 0.000084
711 0.000072
712 0.000067
713 0.000070
714 0.000079
715 0.000091
716 0.000098
717 0.000096
718 0.000099
719 0.000096
720 0.000094
721 0.000095
722 0.000087
723 0.000082
724 0.000085
725 0.000088
726 0.000101
727 0.000104
728 0.000108
729 0.000116
730 0.000118
731 0.000122
732 0.000120
733 0.000112
734 0.000098
735 0.000083
736 0.000067
737 0.000058
738 0.000047
739 0.000047
740 0.000050
741 0.000052
742 0.000058
743 0.000063
744 0.000065
745 0.000061
746 0.000060
747 0.000058
748 0.000057
749 0.000047
750 0.000042
751 0.000043
752 0.000046
753 0.000048
754 0.000058
755 0.000067
756 0.000071
757 0.000073
758 0.000075
759 0.000077
760 0.000075
761 0.000076
762 0.000074
763 0.000076
764 0.000079
765 0.000083
766 0.000089
767 0.000092
768 0.000088
769 0.000085
770 0.000084
771 0.000084
772 0.000083
773 0.000084
774 0.000089
775 0.000089
776 0.000092
777 0.000093
778 0.000094
779 0.000089
780 0.000081
781 0.000073
782 0.000068
783 0.000066
784 0.000056
785 0.000045
786 0.000028
787 0.000019
788 0.000019
789 0.000028
790 0.000040
791 0.000054
792 0.000068
793 0.000078
794 0.000084
795 0.000089
796 0.000089
797 0.000088
798 0.000083
799 0.000081
800 0.000080
801 0.000083
802 0.000088
803 0.000093
804 0.000096
805 0.000092
806 0.000087
807 0.000082
808 0.000079
809 0.000080
