# i correlation
1 0.002575
2 0.002422
3 0.002285
4 0.002183
5 0.002100
6 0.002020
7 0.001945
8 0.001880
9 0.001829
10 0.001776
11 0.001759
12 0.001749
13 0.001733
14 0.001693
15 0.001635
16 0.001601
17 0.001565
18 0.001549
19 0.001531
20 0.001497
21 0.001469
22 0.001435
23 0.001417
24 0.001418
25 0.001422
26 0.001425
27 0.001421
28 0.001420
29 0.001403
30 0.001411
31 0.001417
32 0.001418
33 0.001427
34 0.001443
35 0.001446
36 0.001444
37 0.001428
38 0.001415
39 0.001397
40 0.001385
41 0.001380
42 0.001381
43 0.001366
44 0.001347
45 0.001338
46 0.001338
47 0.001360
48 0.001356
49 0.001360
50 0.001353
51 0.001345
52 0.001326
53 0.001315
54 0.001294
55 0.001257
56 0.001220
57 0.001175
58 0.001167
59 0.001137
60 0.001097
61 0.001066
62 0.001022
63 0.000998
64 0.000948
65 0.000904
66 0.000863
67 0.000842
68 0.000810
69 0.000788
70 0.000766
71 0.000756
72 0.000747
73 0.000730
74 0.000710
75 0.000703
76 0.000709
77 0.000721
78 0.000730
79 0.000733
80 0.000738
81 0.000750
82 0.000770
83 0.000778
84 0.000793
85 0.000804
86 0.000815
87 0.000842
88 0.000852
89 0.000868
90 0.000879
91 0.000876
92 0.000868
93 0.000858
94 0.000848
95 0.000856
96 0.000871
97 0.000858
98 0.000849
99 0.000844
100 0.000855
101 0.000844
102 0.000838
103 0.000835
104 0.000811
105 0.000794
106 0.000792
107 0.000771
108 0.000760
109 0.000750
110 0.000723
111 0.000704
112 0.000683
113 0.000655
114 0.000635
115 0.000616
116 0.000607
117 0.000608
118 0.000618
119 0.000624
120 0.000617
121 0.000621
122 0.000632
123 0.000632
124 0.000621
125 0.000613
126 0.000598
127 0.000575
128 0.000582
129 0.000587
130 0.000612
131 0.000623
132 0.000637
133 0.000645
134 0.000647
135 0.000634
136 0.000626
137 0.000639
138 0.000646
139 0.000659
140 0.000661
141 0.000664
142 0.000682
143 0.000702
144 0.000708
145 0.000697
146 0.000698
147 0.000699
148 0.000714
149 0.000739
150 0.000758
151 0.000764
152 0.000761
153 0.000757
154 0.000767
155 0.000781
156 0.000802
157 0.000802
158 0.000808
159 0.000800
160 0.000786
161 0.000755
162 0.000731
163 0.000721
164 0.000712
165 0.000699
166 0.000682
167 0.000684
168 0.000688
169 0.000700
170 0.000719
171 0.000750
172 0.000762
173 0.000767
174 0.000761
175 0.000768
176 0.000782
177 0.000792
178 0.000787
179 0.000784
180 0.000784
181 0.000792
182 0.000793
183 0.000801
184 0.000816
185 0.000807
186 0.000817
187 0.000799
188 0.000794
189 0.000784
190 0.000772
191 0.000772
192 0.000762
193 0.000739
194 0.000712
195 0.000718
196 0.000729
197 0.000750
198 0.000766
199 0.000760
200 0.000772
201 0.000792
202 0.000808
203 0.000812
204 0.000823
205 0.000841
206 0.000851
207 0.000854
208 0.000845
209 0.000857
210 0.000867
211 0.000879
212 0.000881
213 0.000877
214 0.000898
215 0.000893
216 0.000892
217 0.000885
218 0.000890
219 0.000894
220 0.000877
221 0.000859
222 0.000860
223 0.000851
224 0.000823
225 0.000799
226 0.000779
227 0.000758
228 0.000751
229 0.000739
230 0.000741
231 0.000748
232 0.000748
233 0.000746
234 0.000750
235 0.000740
236 0.000725
237 0.000697
238 0.000675
239 0.000662
240 0.000664
241 0.000655
242 0.000651
243 0.000651
244 0.000659
245 0.000655
246 0.000647
247 0.000631
248 0.000618
249 0.000612
250 0.000601
251 0.000582
252 0.000589
253 0.000602
254 0.000607
255 0.000612
256 0.000625
257 0.000624
258 0.000626
259 0.000618
260 0.000603
261 0.000589
262 0.000574
263 0.000569
264 0.000565
265 0.000556
266 0.000551
267 0.000547
268 0.000539
269 0.000540
270 0.000544
271 0.000549
272 0.000560
273 0.000552
274 0.000531
275 0.000498
276 0.000485
277 0.000479
278 0.000474
279 0.000462
280 0.000457
281 0.000443
282 0.000426
283 0.000410
284 0.000405
285 0.000402
286 0.000392
287 0.000378
288 0.000358
289 0.000347
290 0.000342
291 0.000345
292 0.000347
293 0.000336
294 0.000333
295 0.000329
296 0.000319
297 0.000330
298 0.000349
299 0.000360
300 0.000363
301 0.000368
302 0.000364
303 0.000369
304 0.000378
305 0.000381
306 0.000385
307 0.000390
308 0.000382
309 0.000365
310 0.000372
311 0.000363
312 0.000366
313 0.000369
314 0.000392
315 0.000402
316 0.000412
317 0.000407
318 0.000400
319 0.000415
320 0.000421
321 0.000436
322 0.000444
323 0.000446
324 0.000432
325 0.000429
326 0.000420
327 0.000419
328 0.000409
329 0.000389
330 0.000388
331 0.000373
332 0.000372
333 0.000361
334 0.000355
335 0.000341
336 0.000326
337 0.000305
338 0.000283
339 0.000281
340 0.000292
341 0.000308
342 0.000310
343 0.000309
344 0.000326
345 0.000354
346 0.000379
347 0.000392
348 0.000413
349 0.000422
350 0.000423
351 0.000429
352 0.000446
353 0.000464
354 0.000467
355 0.000482
356 0.000498
357 0.000519
358 0.000533
359 0.000547
360 0.000549
361 0.000557
362 0.000559
363 0.000548
364 0.000527
365 0.000505
366 0.000490
367 0.000465
368 0.000457
369 0.000439
370 0.000419
371 0.000413
372 0.000408
373 0.000407
374 0.000403
375 0.000412
376 0.000411
377 0.000425
378 0.000438
379 0.000445
380 0.000439
381 0.000435
382 0.000446
383 0.000458
384 0.000465
385 0.000458
386 0.000452
387 0.000459
388 0.000462
389 0.000456
390 0.000460
391 0.000456
392 0.000451
393 0.000448
394 0.000448
395 0.000463
396 0.000464
397 0.000472
398 0.000464
399 0.000462
400 0.000457
401 0.000453
402 0.000461
403 0.000472
404 0.000473
405 0.000462
406 0.000469
407 0.000474
408 0.000468
409 0.000474
410 0.000476
411 0.000486
412 0.000482
413 0.000466
414 0.000449
415 0.000434
416 0.000415
417 0.000396
418 0.000373
419 0.000355
420 0.000347
421 0.000338
422 0.000326
423 0.000327
424 0.000317
425 0.000320
426 0.000307
427 0.000297
428 0.000295
429 0.000306
430 0.000314
431 0.000314
432 0.000317
433 0.000314
434 0.000316
435 0.000326
436 0.000347
437 0.000362
438 0.000371
439 0.000380
440 0.000386
441 0.000404
442 0.000422
443 0.000431
444 0.000444
445 0.000453
446 0.000450
447 0.000448
448 0.000456
449 0.000469
450 0.000478
451 0.000473
452 0.000455
453 0.000445
454 0.000443
455 0.000434
456 0.000433
457 0.000417
458 0.000412
459 0.000397
460 0.000385
461 0.000366
462 0.000368
463 0.000364
464 0.000368
465 0.000357
466 0.000341
467 0.000327
468 0.000309
469 0.000304
470 0.000302
471 0.000295
472 0.000290
473 0.000281
474 0.000270
475 0.000266
476 0.000250
477 0.000237
478 0.000243
479 0.000242
480 0.000234
481 0.000232
482 0.000236
483 0.000255
484 0.000264
485 0.000264
486 0.000269
487 0.000276
488 0.000279
489 0.000271
490 0.000287
491 0.000291
492 0.000287
493 0.000284
494 0.000284
495 0.000284
496 0.000296
497 0.000300
498 0.000301
499 0.000304
500 0.000313
501 0.000320
502 0.000322
503 0.000319
504 0.000309
505 0.000312
506 0.000304
507 0.000290
508 0.000275
509 0.000257
510 0.000232
511 0.000218
512 0.000212
513 0.000197
514 0.000190
515 0.000178
516 0.000170
517 0.000169
518 0.000152
519 0.000134
520 0.000106
521 0.000086
522 0.000060
523 0.000029
524 -0.000004
525 -0.000015
526 -0.000019
527 -0.000012
528 0.000005
529 0.000023
530 0.000038
531 0.000049
532 0.000068
533 0.000100
534 0.000133
535 0.000155
536 0.000177
537 0.000189
538 0.000189
539 0.000179
540 0.000169
541 0.000174
542 0.000182
543 0.000195
544 0.000213
545 0.000224
546 0.000241
547 0.000256
548 0.000255
549 0.000253
550 0.000252
551 0.000239
552 0.000218
553 0.000200
554 0.000187
555 0.000180
556 0.000173
557 0.000155
558 0.000141
559 0.000136
560 0.000141
561 0.000149
562 0.000160
563 0.000167
564 0.000167
565 0.000164
566 0.000155
567 0.000159
568 0.000166
569 0.000170
570 0.000163
571 0.000145
572 0.000129
573 0.000119
574 0.000112
575 0.000123
576 0.000129
577 0.000140
578 0.000151
579 0.000162
580 0.000180
581 0.000199
582 0.000214
583 0.000230
584 0.000242
585 0.000248
586 0.000261
587 0.000269
588 0.000279
589 0.000282
590 0.000281
591 0.000271
592 0.000269
593 0.000274
594 0.000290
595 0.000298
596 0.000311
597 0.000329
598 0.000333
599 0.000341
600 0.000353
601 0.000368
602 0.000380
603 0.000385
604 0.000380
605 0.000378
606 0.000377
607 0.000361
608 0.000336
609 0.000311
610 0.000281
611 0.000267
612 0.000261
613 0.000255
614 0.000252
615 0.000247
616 0.000239
617 0.000224
618 0.000225
619 0.000218
620 0.000212
621 0.000208
622 0.000204
623 0.000199
624 0.000193
625 0.000205
626 0.000212
627 0.000212
628 0.000205
629 0.000203
630 0.000208
631 0.000215
632 0.000208
633 0.000217
634 0.000226
635 0.000230
636 0.000234
637 0.000252
638 0.000260
639 0.000272
640 0.000287
641 0.000288
642 0.000292
643 0.000286
644 0.000283
645 0.000285
646 0.000294
647 0.000300
648 0.000288
649 0.000277
650 0.000268
651 0.000264
652 0.000253
653 0.000255
654 0.000254
655 0.000265
656 0.000266
657 0.000258
658 0.000251
659 0.000246
660 0.000238
661 0.000225
662 0.000212
663 0.000191
664 0.000184
665 0.000185
666 0.000187
667 0.000194
668 0.000194
669 0.000193
670 0.000191
671 0.000184
672 0.000174
673 0.000169
674 0.000161
675 0.000154
676 0.000156
677 0.000143
678 0.000143
679 0.000145
680 0.000135
681 0.000129
682 0.000116
683 0.000102
684 0.000097
685 0.000096
686 0.000082
687 0.000075
688 0.000066
689 0.000065
690 0.000057
691 0.000038
692 0.000034
693 0.000040
694 0.000045
695 0.000035
696 0.000024
697 0.000011
698 0.000011
699 -0.000008
700 -0.000018
701 -0.000033
702 -0.000045
703 -0.000049
704 -0.000056
705 -0.000055
706 -0.000051
707 -0.000047
708 -0.000050
709 -0.000050
710 -0.000060
711 -0.000072
712 -0.000081
713 -0.000095
714 -0.000101
715 -0.000115
716 -0.000122
717 -0.000121
718 -0.000114
719 -0.000109
720 -0.000108
721 -0.000115
722 -0.000125
723 -0.000136
724 -0.000141
725 -0.000148
726 -0.000164
727 -0.000178
728 -0.000193
729 -0.000207
730 -0.000216
731 -0.000219
732 -0.000226
733 -0.000228
734 -0.000234
735 -0.000241
736 -0.000237
737 -0.000231
738 -0.000240
739 -0.000248
740 -0.000258
741 -0.000269
742 -0.000274
743 -0.000269
744 -0.000264
745 -0.000263
746 -0.000257
747 -0.000254
748 -0.000247
749 -0.000242
750 -0.000244
751 -0.000242
752 -0.000235
753 -0.000229
754 -0.000224
755 -0.000215
756 -0.000201
757 -0.000186
758 -0.000173
759 -0.000161
760 -0.000155
761 -0.000151
762 -0.000156
763 -0.000153
764 -0.000160
765 -0.000165
766 -0.000168
767 -0.000172
768 -0.000180
769 -0.000189
770 -0.000192
771 -0.000197
772 -0.000201
773 -0.000210
774 -0.000214
775 -0.000220
776 -0.000225
777 -0.000231
778 -0.000240
779 -0.000251
780 -0.000262
781 -0.000274
782 -0.000278
783 -0.000283
784 -0.000285
785 -0.000275
786 -0.000272
787 -0.000271
788 -0.000267
789 -0.000258
790 -0.000252
791 -0.000249
792 -0.000252
793 -0.000256
794 -0.000253
795 -0.000252
796 -0.000251
797 -0.000247
798 -0.000240
799 -0.000241
800 -0.000238
801 -0.000230
802 -0.000220
803 -0.000216
804 -0.000213
805 -0.000215
806 -0.000212
807 -0.000205
808 -0.000205
809 -0.000199
