# i correlation
1 0.002158
2 0.001976
3 0.001837
4 0.001720
5 0.001619
6 0.001523
7 0.001454
8 0.001413
9 0.001393
10 0.001354
11 0.001337
12 0.001328
13 0.001335
14 0.001345
15 0.001343
16 0.001362
17 0.001367
18 0.001342
19 0.001317
20 0.001305
21 0.001302
22 0.001293
23 0.001291
24 0.001267
25 0.001230
26 0.001209
27 0.001191
28 0.001176
29 0.001136
30 0.001092
31 0.001049
32 0.001023
33 0.000991
34 0.000978
35 0.000989
36 0.001002
37 0.001022
38 0.001030
39 0.001063
40 0.001101
41 0.001136
42 0.001144
43 0.001141
44 0.001143
45 0.001131
46 0.001095
47 0.001058
48 0.001032
49 0.001000
50 0.000949
51 0.000886
52 0.000845
53 0.000834
54 0.000815
55 0.000816
56 0.000830
57 0.000859
58 0.000893
59 0.000908
60 0.000921
61 0.000946
62 0.000959
63 0.000957
64 0.000956
65 0.000930
66 0.000922
67 0.000906
68 0.000885
69 0.000848
70 0.000824
71 0.000811
72 0.000801
73 0.000794
74 0.000774
75 0.000761
76 0.000765
77 0.000768
78 0.000758
79 0.000746
80 0.000754
81 0.000750
82 0.000741
83 0.000719
84 0.000711
85 0.000723
86 0.000721
87 0.000720
88 0.000732
89 0.000753
90 0.000754
91 0.000724
92 0.000694
93 0.000672
94 0.000661
95 0.000639
96 0.000609
97 0.000600
98 0.000597
99 0.000569
100 0.000547
101 0.000541
102 0.000547
103 0.000569
104 0.000571
105 0.000577
106 0.000583
107 0.000581
108 0.000584
109 0.000599
110 0.000583
111 0.000563
112 0.000553
113 0.000536
114 0.000520
115 0.000499
116 0.000500
117 0.000511
118 0.000523
119 0.000516
120 0.000502
121 0.000495
122 0.000498
123 0.000484
124 0.000463
125 0.000467
126 0.000485
127 0.000475
128 0.000456
129 0.000460
130 0.000476
131 0.000495
132 0.000512
133 0.000524
134 0.000544
135 0.000573
136 0.000579
137 0.000581
138 0.000566
139 0.000551
140 0.000519
141 0.000485
142 0.000452
143 0.000434
144 0.000424
145 0.000411
146 0.000420
147 0.000423
148 0.000416
149 0.000402
150 0.000399
151 0.000401
152 0.000405
153 0.000417
154 0.000421
155 0.000407
156 0.000392
157 0.000379
158 0.000357
159 0.000335
160 0.000298
161 0.000264
162 0.000245
163 0.000218
164 0.000199
165 0.000190
166 0.000175
167 0.000165
168 0.000151
169 0.000144
170 0.000141
171 0.000127
172 0.000118
173 0.000117
174 0.000135
175 0.000161
176 0.000188
177 0.000214
178 0.000266
179 0.000323
180 0.000352
181 0.000370
182 0.000378
183 0.000376
184 0.000374
185 0.000377
186 0.000379
187 0.000370
188 0.000349
189 0.000311
190 0.000292
191 0.000269
192 0.000270
193 0.000280
194 0.000301
195 0.000316
196 0.000333
197 0.000339
198 0.000340
199 0.000354
200 0.000358
201 0.000377
202 0.000401
203 0.000409
204 0.000391
205 0.000349
206 0.000324
207 0.000309
208 0.000287
209 0.000260
210 0.000234
211 0.000223
212 0.000211
213 0.000192
214 0.000174
215 0.000170
216 0.000181
217 0.000186
218 0.000194
219 0.000197
220 0.000206
221 0.000216
222 0.000224
223 0.000246
224 0.000267
225 0.000280
226 0.000282
227 0.000279
228 0.000282
229 0.000285
230 0.000259
231 0.000225
232 0.000180
233 0.000126
234 0.000084
235 0.000071
236 0.000057
237 0.000051
238 0.000072
239 0.000097
240 0.000123
241 0.000150
242 0.000173
243 0.000201
244 0.000225
245 0.000232
246 0.000227
247 0.000227
248 0.000233
249 0.000232
250 0.000198
251 0.000181
252 0.000173
253 0.000138
254 0.000108
255 0.000092
256 0.000100
257 0.000121
258 0.000141
259 0.000168
260 0.000191
261 0.000201
262 0.000208
263 0.000233
264 0.000254
265 0.000276
266 0.000300
267 0.000315
268 0.000319
269 0.000311
270 0.000282
271 0.000261
272 0.000261
273 0.000249
274 0.000239
275 0.000241
276 0.000239
277 0.000222
278 0.000194
279 0.000168
280 0.000155
281 0.000154
282 0.000157
283 0.000192
284 0.000227
285 0.000264
286 0.000296
287 0.000331
288 0.000377
289 0.000386
290 0.000391
291 0.000397
292 0.000386
293 0.000361
294 0.000322
295 0.000292
296 0.000270
297 0.000259
298 0.000216
299 0.000188
300 0.000184
301 0.000189
302 0.000174
303 0.000167
304 0.000190
305 0.000221
306 0.000247
307 0.000257
308 0.000251
309 0.000250
310 0.000258
311 0.000262
312 0.000270
313 0.000263
314 0.000256
315 0.000253
316 0.000258
317 0.000252
318 0.000260
319 0.000259
320 0.000268
321 0.000288
322 0.000296
323 0.000313
324 0.000313
325 0.000327
326 0.000338
327 0.000354
328 0.000355
329 0.000356
330 0.000364
331 0.000365
332 0.000381
333 0.000391
334 0.000410
335 0.000412
336 0.000407
337 0.000398
338 0.000394
339 0.000398
340 0.000382
341 0.000371
342 0.000359
343 0.000329
344 0.000322
345 0.000313
346 0.000315
347 0.000313
348 0.000308
349 0.000315
350 0.000306
351 0.000300
352 0.000286
353 0.000286
354 0.000292
355 0.000298
356 0.000292
357 0.000270
358 0.000255
359 0.000225
360 0.000216
361 0.000218
362 0.000226
363 0.000232
364 0.000232
365 0.000227
366 0.000223
367 0.000223
368 0.000209
369 0.000209
370 0.000212
371 0.000210
372 0.000203
373 0.000201
374 0.000190
375 0.000180
376 0.000173
377 0.000182
378 0.000197
379 0.000191
380 0.000191
381 0.000209
382 0.000226
383 0.000250
384 0.000253
385 0.000260
386 0.000278
387 0.000266
388 0.000255
389 0.000247
390 0.000248
391 0.000234
392 0.000216
393 0.000198
394 0.000211
395 0.000235
396 0.000233
397 0.000246
398 0.000257
399 0.000261
400 0.000265
401 0.000260
402 0.000252
403 0.000255
404 0.000258
405 0.000262
406 0.000260
407 0.000247
408 0.000238
409 0.000219
410 0.000216
411 0.000217
412 0.000214
413 0.000212
414 0.000205
415 0.000194
416 0.000188
417 0.000183
418 0.000176
419 0.000184
420 0.000167
421 0.000156
422 0.000171
423 0.000175
424 0.000184
425 0.000182
426 0.000191
427 0.000209
428 0.000206
429 0.000194
430 0.000189
431 0.000178
432 0.000168
433 0.000152
434 0.000124
435 0.000105
436 0.000088
437 0.000057
438 0.000032
439 0.000017
440 0.000023
441 0.000037
442 0.000052
443 0.000074
444 0.000105
445 0.000130
446 0.000139
447 0.000161
448 0.000163
449 0.000152
450 0.000151
451 0.000155
452 0.000154
453 0.000158
454 0.000143
455 0.000118
456 0.000090
457 0.000051
458 0.000023
459 0.000003
460 -0.000018
461 -0.000023
462 -0.000024
463 -0.000023
464 -0.000024
465 -0.000011
466 0.000005
467 0.000040
468 0.000062
469 0.000073
470 0.000096
471 0.000123
472 0.000129
473 0.000115
474 0.000102
475 0.000094
476 0.000099
477 0.000088
478 0.000077
479 0.000061
480 0.000051
481 0.000027
482 -0.000003
483 -0.000025
484 -0.000037
485 -0.000039
486 -0.000036
487 -0.000015
488 0.000015
489 0.000025
490 0.000036
491 0.000051
492 0.000076
493 0.000085
494 0.000093
495 0.000081
496 0.000068
497 0.000045
498 0.000018
499 -0.000010
500 -0.000022
501 -0.000034
502 -0.000053
503 -0.000080
504 -0.000085
505 -0.000095
506 -0.000094
507 -0.000081
508 -0.000055
509 -0.000034
510 -0.000023
511 -0.000009
512 0.000002
513 0.000015
514 0.000022
515 0.000034
516 0.000037
517 0.000046
518 0.000040
519 0.000027
520 0.000030
521 0.000014
522 -0.000009
523 -0.000032
524 -0.000030
525 -0.000022
526 -0.000038
527 -0.000058
528 -0.000064
529 -0.000042
530 -0.000028
531 -0.000027
532 -0.000017
533 -0.000002
534 0.000010
535 0.000031
536 0.000051
537 0.000054
538 0.000047
539 0.000036
540 0.000017
541 0.000017
542 0.000023
543 0.000019
544 0.000015
545 0.000013
546 0.000006
547 -0.000006
548 -0.000006
549 -0.000009
550 0.000001
551 0.000012
552 0.000025
553 0.000027
554 0.000029
555 0.000025
556 0.000026
557 0.000015
558 0.000010
559 0.000013
560 0.000006
561 -0.000018
562 -0.000024
563 -0.000036
564 -0.000043
565 -0.000034
566 -0.000042
567 -0.000048
568 -0.000049
569 -0.000043
570 -0.000034
571 -0.000036
572 -0.000040
573 -0.000029
574 -0.000021
575 -0.000021
576 -0.000024
577 -0.000025
578 -0.000025
579 -0.000017
580 -0.000021
581 -0.000032
582 -0.000023
583 -0.000021
584 -0.000018
585 -0.000024
586 -0.000023
587 -0.000021
588 -0.000021
589 -0.000038
590 -0.000057
591 -0.000059
592 -0.000061
593 -0.000069
594 -0.000077
595 -0.000084
596 -0.000089
597 -0.000077
598 -0.000064
599 -0.000055
600 -0.000050
601 -0.000044
602 -0.000037
603 -0.000032
604 -0.000029
605 -0.000031
606 -0.000037
607 -0.000047
608 -0.000053
609 -0.000060
610 -0.000065
611 -0.000066
612 -0.000056
613 -0.000052
614 -0.000043
615 -0.000035
616 -0.000049
617 -0.000072
618 -0.000079
619 -0.000090
620 -0.000100
621 -0.000115
622 -0.000116
623 -0.000108
624 -0.000102
625 -0.000103
626 -0.000091
627 -0.000069
628 -0.000060
629 -0.000058
630 -0.000051
631 -0.000050
632 -0.000048
633 -0.000042
634 -0.000049
635 -0.000051
636 -0.000065
637 -0.000068
638 -0.000073
639 -0.000067
640 -0.000069
641 -0.000066
642 -0.000069
643 -0.000067
644 -0.000057
645 -0.000057
646 -0.000050
647 -0.000053
648 -0.000056
649 -0.000066
650 -0.000068
651 -0.000080
652 -0.000091
653 -0.000099
654 -0.000105
655 -0.000098
656 -0.000099
657 -0.000104
658 -0.000114
659 -0.000128
660 -0.000139
661 -0.000143
662 -0.000146
663 -0.000156
664 -0.000156
665 -0.000164
666 -0.000172
667 -0.000168
668 -0.000165
669 -0.000172
670 -0.000178
671 -0.000174
672 -0.000161
673 -0.000149
674 -0.000130
675 -0.000139
676 -0.000142
677 -0.000150
678 -0.000140
679 -0.000141
680 -0.000152
681 -0.000162
682 -0.000165
683 -0.000166
684 -0.000171
685 -0.000176
686 -0.000184
687 -0.000191
688 -0.000189
689 -0.000190
690 -0.000185
691 -0.000178
692 -0.000169
693 -0.000163
694 -0.000154
695 -0.000145
696 -0.000145
697 -0.000160
698 -0.000181
699 -0.000198
700 -0.000218
701 -0.000233
702 -0.000241
703 -0.000252
704 -0.000248
705 -0.000235
706 -0.000226
707 -0.000224
708 -0.000218
709 -0.000207
710 -0.000200
711 -0.000199
712 -0.000204
713 -0.000207
714 -0.000214
715 -0.000220
716 -0.000213
717 -0.000199
718 -0.000190
719 -0.000166
720 -0.000152
721 -0.000142
722 -0.000135
723 -0.000131
724 -0.000129
725 -0.000130
726 -0.000140
727 -0.000143
728 -0.000139
729 -0.000139
730 -0.000140
731 -0.000131
732 -0.000126
733 -0.000125
734 -0.000117
735 -0.000109
736 -0.000094
737 -0.000082
738 -0.000073
739 -0.000068
740 -0.000061
741 -0.000059
742 -0.000059
743 -0.000073
744 -0.000088
745 -0.000093
746 -0.000102
747 -0.000112
748 -0.000119
749 -0.000128
750 -0.000129
751 -0.000121
752 -0.000112
753 -0.000102
754 -0.000088
755 -0.000077
756 -0.000071
757 -0.000070
758 -0.000075
759 -0.000074
760 -0.000075
761 -0.000080
762 -0.000084
763 -0.000084
764 -0.000079
765 -0.000082
766 -0.000078
767 -0.000071
768 -0.000057
769 -0.000053
770 -0.000063
771 -0.000074
772 -0.000080
773 -0.000082
774 -0.000089
775 -0.000097
776 -0.000091
777 -0.000070
778 -0.000058
779 -0.000054
780 -0.000051
781 -0.000038
782 -0.000032
783 -0.000026
784 -0.000032
785 -0.000035
786 -0.000047
787 -0.000059
788 -0.000067
789 -0.000074
790 -0.000075
791 -0.000071
792 -0.000070
793 -0.000064
794 -0.000056
795 -0.000049
796 -0.000045
797 -0.000034
798 -0.000029
799 -0.000024
800 -0.000022
801 -0.000029
802 -0.000033
803 -0.000039
804 -0.000046
805 -0.000041
806 -0.000038
807 -0.000032
808 -0.000017
809 -0.000009
