# i correlation
1 0.003912
2 0.003728
3 0.003568
4 0.003421
5 0.003283
6 0.003147
7 0.003029
8 0.002932
9 0.002825
10 0.002724
11 0.002612
12 0.002486
13 0.002380
14 0.002303
15 0.002244
16 0.002183
17 0.002127
18 0.002077
19 0.002013
20 0.001938
21 0.001883
22 0.001819
23 0.001755
24 0.001695
25 0.001668
26 0.001658
27 0.001661
28 0.001669
29 0.001697
30 0.001721
31 0.001702
32 0.001706
33 0.001713
34 0.001732
35 0.001758
36 0.001780
37 0.001819
38 0.001845
39 0.001842
40 0.001831
41 0.001824
42 0.001822
43 0.001828
44 0.001850
45 0.001865
46 0.001886
47 0.001908
48 0.001939
49 0.001954
50 0.001945
51 0.001944
52 0.001947
53 0.001962
54 0.001973
55 0.001967
56 0.001934
57 0.001897
58 0.001867
59 0.001837
60 0.001820
61 0.001782
62 0.001746
63 0.001727
64 0.001724
65 0.001718
66 0.001694
67 0.001680
68 0.001674
69 0.001697
70 0.001700
71 0.001702
72 0.001689
73 0.001662
74 0.001635
75 0.001603
76 0.001572
77 0.001547
78 0.001523
79 0.001477
80 0.001449
81 0.001424
82 0.001428
83 0.001442
84 0.001456
85 0.001470
86 0.001507
87 0.001533
88 0.001535
89 0.001531
90 0.001528
91 0.001511
92 0.001490
93 0.001470
94 0.001441
95 0.001419
96 0.001402
97 0.001366
98 0.001334
99 0.001323
100 0.001317
101 0.001319
102 0.001318
103 0.001326
104 0.001336
105 0.001320
106 0.001300
107 0.001319
108 0.001324
109 0.001318
110 0.001299
111 0.001292
112 0.001299
113 0.001298
114 0.001293
115 0.001284
116 0.001277
117 0.001283
118 0.001288
119 0.001295
120 0.001306
121 0.001321
122 0.001365
123 0.001406
124 0.001429
125 0.001449
126 0.001450
127 0.001436
128 0.001416
129 0.001391
130 0.001374
131 0.001356
132 0.001339
133 0.001336
134 0.001323
135 0.001314
136 0.001299
137 0.001296
138 0.001287
139 0.001281
140 0.001290
141 0.001292
142 0.001290
143 0.001278
144 0.001276
145 0.001254
146 0.001240
147 0.001227
148 0.001197
149 0.001174
150 0.001156
151 0.001123
152 0.001102
153 0.001082
154 0.001059
155 0.001041
156 0.001029
157 0.001015
158 0.001021
159 0.001034
160 0.001039
161 0.001051
162 0.001058
163 0.001054
164 0.001039
165 0.001046
166 0.001044
167 0.001052
168 0.001060
169 0.001076
170 0.001099
171 0.001121
172 0.001156
173 0.001199
174 0.001225
175 0.001236
176 0.001257
177 0.001274
178 0.001275
179 0.001280
180 0.001276
181 0.001281
182 0.001295
183 0.001291
184 0.001272
185 0.001261
186 0.001239
187 0.001237
188 0.001234
189 0.001218
190 0.001209
191 0.001214
192 0.001207
193 0.001189
194 0.001175
195 0.001161
196 0.001135
197 0.001118
198 0.001103
199 0.001090
200 0.001079
201 0.001042
202 0.001015
203 0.001003
204 0.000989
205 0.000972
206 0.000947
207 0.000913
208 0.000888
209 0.000871
210 0.000862
211 0.000856
212 0.000846
213 0.000848
214 0.000839
215 0.000845
216 0.000849
217 0.000867
218 0.000894
219 0.000912
220 0.000928
221 0.000957
222 0.000955
223 0.000971
224 0.000972
225 0.000981
226 0.000991
227 0.001008
228 0.001024
229 0.001044
230 0.001062
231 0.001081
232 0.001091
233 0.001102
234 0.001116
235 0.001115
236 0.001136
237 0.001163
238 0.001181
239 0.001207
240 0.001224
241 0.001228
242 0.001250
243 0.001272
244 0.001296
245 0.001316
246 0.001336
247 0.001371
248 0.001408
249 0.001430
250 0.001456
251 0.001471
252 0.001483
253 0.001500
254 0.001519
255 0.001535
256 0.001539
257 0.001542
258 0.001544
259 0.001553
260 0.001547
261 0.001538
262 0.001514
263 0.001500
264 0.001481
265 0.001466
266 0.001444
267 0.001399
268 0.001353
269 0.001319
270 0.001272
271 0.001216
272 0.001179
273 0.001137
274 0.001095
275 0.001058
276 0.001028
277 0.001003
278 0.000956
279 0.000909
280 0.000867
281 0.000830
282 0.000814
283 0.000802
284 0.000789
285 0.000772
286 0.000743
287 0.000734
288 0.000724
289 0.000711
290 0.000718
291 0.000735
292 0.000754
293 0.000784
294 0.000817
295 0.000862
296 0.000896
297 0.000918
298 0.000940
299 0.000972
300 0.001005
301 0.001048
302 0.001081
303 0.001112
304 0.001135
305 0.001162
306 0.001178
307 0.001202
308 0.001214
309 0.001223
310 0.001210
311 0.001190
312 0.001173
313 0.001160
314 0.001144
315 0.001105
316 0.001046
317 0.001002
318 0.000938
319 0.000870
320 0.000820
321 0.000771
322 0.000731
323 0.000673
324 0.000609
325 0.000559
326 0.000497
327 0.000436
328 0.000385
329 0.000337
330 0.000320
331 0.000312
332 0.000313
333 0.000306
334 0.000282
335 0.000266
336 0.000261
337 0.000266
338 0.000271
339 0.000270
340 0.000276
341 0.000300
342 0.000325
343 0.000364
344 0.000399
345 0.000423
346 0.000454
347 0.000485
348 0.000516
349 0.000544
350 0.000578
351 0.000606
352 0.000644
353 0.000671
354 0.000691
355 0.000697
356 0.000703
357 0.000694
358 0.000682
359 0.000694
360 0.000707
361 0.000720
362 0.000733
363 0.000733
364 0.000739
365 0.000746
366 0.000753
367 0.000751
368 0.000749
369 0.000752
370 0.000746
371 0.000727
372 0.000704
373 0.000689
374 0.000673
375 0.000648
376 0.000632
377 0.000619
378 0.000604
379 0.000594
380 0.000601
381 0.000588
382 0.000586
383 0.000584
384 0.000591
385 0.000597
386 0.000611
387 0.000625
388 0.000613
389 0.000609
390 0.000606
391 0.000620
392 0.000633
393 0.000622
394 0.000612
395 0.000600
396 0.000600
397 0.000604
398 0.000588
399 0.000568
400 0.000547
401 0.000524
402 0.000510
403 0.000512
404 0.000507
405 0.000502
406 0.000494
407 0.000487
408 0.000497
409 0.000500
410 0.000508
411 0.000493
412 0.000478
413 0.000473
414 0.000474
415 0.000477
416 0.000473
417 0.000476
418 0.000473
419 0.000479
420 0.000485
421 0.000504
422 0.000510
423 0.000520
424 0.000543
425 0.000559
426 0.000571
427 0.000563
428 0.000552
429 0.000554
430 0.000562
431 0.000570
432 0.000577
433 0.000588
434 0.000610
435 0.000628
436 0.000640
437 0.000643
438 0.000650
439 0.000657
440 0.000671
441 0.000677
442 0.000680
443 0.000674
444 0.000684
445 0.000702
446 0.000711
447 0.000715
448 0.000710
449 0.000713
450 0.000713
451 0.000704
452 0.000690
453 0.000673
454 0.000658
455 0.000638
456 0.000625
457 0.000613
458 0.000592
459 0.000565
460 0.000543
461 0.000521
462 0.000488
463 0.000466
464 0.000447
465 0.000417
466 0.000389
467 0.000366
468 0.000350
469 0.000332
470 0.000308
471 0.000272
472 0.000249
473 0.000232
474 0.000225
475 0.000229
476 0.000239
477 0.000245
478 0.000246
479 0.000248
480 0.000255
481 0.000257
482 0.000266
483 0.000287
484 0.000318
485 0.000336
486 0.000365
487 0.000403
488 0.000433
489 0.000444
490 0.000456
491 0.000466
492 0.000463
493 0.000472
494 0.000492
495 0.000509
496 0.000526
497 0.000538
498 0.000543
499 0.000544
500 0.000533
501 0.000521
502 0.000512
503 0.000495
504 0.000490
505 0.000507
506 0.000516
507 0.000512
508 0.000508
509 0.000508
510 0.000508
511 0.000494
512 0.000485
513 0.000485
514 0.000485
515 0.000489
516 0.000494
517 0.000487
518 0.000472
519 0.000458
520 0.000453
521 0.000440
522 0.000430
523 0.000411
524 0.000406
525 0.000393
526 0.000373
527 0.000361
528 0.000346
529 0.000330
530 0.000320
531 0.000318
532 0.000320
533 0.000327
534 0.000325
535 0.000339
536 0.000349
537 0.000358
538 0.000352
539 0.000349
540 0.000340
541 0.000330
542 0.000328
543 0.000328
544 0.000320
545 0.000314
546 0.000311
547 0.000311
548 0.000314
549 0.000312
550 0.000307
551 0.000307
552 0.000299
553 0.000302
554 0.000304
555 0.000286
556 0.000280
557 0.000293
558 0.000299
559 0.000310
560 0.000317
561 0.000312
562 0.000320
563 0.000310
564 0.000299
565 0.000289
566 0.000264
567 0.000241
568 0.000216
569 0.000198
570 0.000187
571 0.000169
572 0.000154
573 0.000143
574 0.000128
575 0.000116
576 0.000096
577 0.000086
578 0.000071
579 0.000047
580 0.000034
581 0.000013
582 -0.000007
583 -0.000035
584 -0.000050
585 -0.000055
586 -0.000060
587 -0.000064
588 -0.000074
589 -0.000088
590 -0.000100
591 -0.000088
592 -0.000076
593 -0.000079
594 -0.000083
595 -0.000085
596 -0.000089
597 -0.000082
598 -0.000091
599 -0.000098
600 -0.000101
601 -0.000115
602 -0.000116
603 -0.000118
604 -0.000119
605 -0.000118
606 -0.000101
607 -0.000066
608 -0.000033
609 -0.000001
610 0.000029
611 0.000055
612 0.000087
613 0.000120
614 0.000155
615 0.000176
616 0.000195
617 0.000220
618 0.000241
619 0.000255
620 0.000269
621 0.000280
622 0.000297
623 0.000302
624 0.000302
625 0.000294
626 0.000293
627 0.000276
628 0.000262
629 0.000249
630 0.000232
631 0.000211
632 0.000179
633 0.000149
634 0.000127
635 0.000113
636 0.000099
637 0.000083
638 0.000076
639 0.000076
640 0.000082
641 0.000081
642 0.000079
643 0.000073
644 0.000074
645 0.000078
646 0.000090
647 0.000101
648 0.000107
649 0.000121
650 0.000131
651 0.000129
652 0.000118
653 0.000108
654 0.000098
655 0.000105
656 0.000109
657 0.000118
658 0.000125
659 0.000131
660 0.000136
661 0.000137
662 0.000133
663 0.000128
664 0.000132
665 0.000137
666 0.000135
667 0.000137
668 0.000147
669 0.000160
670 0.000158
671 0.000143
672 0.000127
673 0.000121
674 0.000125
675 0.000132
676 0.000138
677 0.000151
678 0.000164
679 0.000177
680 0.000180
681 0.000181
682 0.000183
683 0.000192
684 0.000206
685 0.000222
686 0.000238
687 0.000258
688 0.000259
689 0.000258
690 0.000253
691 0.000240
692 0.000233
693 0.000229
694 0.000237
695 0.000245
696 0.000247
697 0.000251
698 0.000263
699 0.000276
700 0.000292
701 0.000288
702 0.000284
703 0.000277
704 0.000288
705 0.000289
706 0.000289
707 0.000290
708 0.000286
709 0.000288
710 0.000286
711 0.000283
712 0.000286
713 0.000274
714 0.000267
715 0.000269
716 0.000263
717 0.000259
718 0.000254
719 0.000251
720 0.000239
721 0.000224
722 0.000217
723 0.000204
724 0.000191
725 0.000178
726 0.000165
727 0.000158
728 0.000156
729 0.000162
730 0.000174
731 0.000178
732 0.000175
733 0.000173
734 0.000174
735 0.000177
736 0.000181
737 0.000186
738 0.000186
739 0.000190
740 0.000185
741 0.000187
742 0.000184
743 0.000175
744 0.000171
745 0.000173
746 0.000173
747 0.000177
748 0.000182
749 0.000184
750 0.000178
751 0.000172
752 0.000174
753 0.000182
754 0.000183
755 0.000185
756 0.000192
757 0.000192
758 0.000192
759 0.000190
760 0.000192
761 0.000186
762 0.000182
763 0.000186
764 0.000201
765 0.000210
766 0.000223
767 0.000238
768 0.000241
769 0.000248
770 0.000250
771 0.000247
772 0.000242
773 0.000240
774 0.000242
775 0.000240
776 0.000235
777 0.000224
778 0.000214
779 0.000207
780 0.000191
781 0.000181
782 0.000177
783 0.000178
784 0.000180
785 0.000186
786 0.000187
787 0.000180
788 0.000177
789 0.000175
790 0.000195
791 0.000210
792 0.000221
793 0.000235
794 0.000252
795 0.000268
796 0.000285
797 0.000305
798 0.000314
799 0.000325
800 0.000335
801 0.000347
802 0.000356
803 0.000358
804 0.000354
805 0.000353
806 0.000345
807 0.000337
808 0.000323
809 0.000304
