# i correlation
1 0.003312
2 0.003105
3 0.002942
4 0.002802
5 0.002698
6 0.002630
7 0.002559
8 0.002491
9 0.002439
10 0.002376
11 0.002320
12 0.002276
13 0.002252
14 0.002219
15 0.002172
16 0.002141
17 0.002085
18 0.002024
19 0.001959
20 0.001902
21 0.001885
22 0.001861
23 0.001836
24 0.001804
25 0.001800
26 0.001791
27 0.001794
28 0.001799
29 0.001820
30 0.001818
31 0.001812
32 0.001812
33 0.001822
34 0.001822
35 0.001819
36 0.001833
37 0.001845
38 0.001856
39 0.001873
40 0.001878
41 0.001849
42 0.001844
43 0.001852
44 0.001846
45 0.001842
46 0.001839
47 0.001823
48 0.001804
49 0.001795
50 0.001790
51 0.001779
52 0.001769
53 0.001752
54 0.001741
55 0.001718
56 0.001703
57 0.001670
58 0.001629
59 0.001578
60 0.001549
61 0.001536
62 0.001530
63 0.001515
64 0.001491
65 0.001501
66 0.001511
67 0.001529
68 0.001545
69 0.001571
70 0.001569
71 0.001558
72 0.001549
73 0.001526
74 0.001494
75 0.001464
76 0.001444
77 0.001433
78 0.001418
79 0.001415
80 0.001415
81 0.001412
82 0.001408
83 0.001423
84 0.001446
85 0.001455
86 0.001455
87 0.001456
88 0.001460
89 0.001460
90 0.001471
91 0.001472
92 0.001480
93 0.001478
94 0.001480
95 0.001452
96 0.001418
97 0.001391
98 0.001365
99 0.001326
100 0.001315
101 0.001310
102 0.001292
103 0.001256
104 0.001232
105 0.001220
106 0.001198
107 0.001174
108 0.001149
109 0.001126
110 0.001104
111 0.001080
112 0.001053
113 0.001025
114 0.001001
115 0.000968
116 0.000933
117 0.000912
118 0.000897
119 0.000893
120 0.000890
121 0.000894
122 0.000893
123 0.000909
124 0.000910
125 0.000898
126 0.000897
127 0.000900
128 0.000891
129 0.000877
130 0.000871
131 0.000858
132 0.000842
133 0.000839
134 0.000851
135 0.000876
136 0.000900
137 0.000920
138 0.000927
139 0.000929
140 0.000930
141 0.000915
142 0.000894
143 0.000881
144 0.000852
145 0.000834
146 0.000839
147 0.000840
148 0.000862
149 0.000890
150 0.000910
151 0.000912
152 0.000897
153 0.000868
154 0.000837
155 0.000806
156 0.000794
157 0.000806
158 0.000801
159 0.000809
160 0.000809
161 0.000794
162 0.000779
163 0.000764
164 0.000773
165 0.000789
166 0.000818
167 0.000836
168 0.000835
169 0.000837
170 0.000844
171 0.000848
172 0.000854
173 0.000869
174 0.000888
175 0.000897
176 0.000903
177 0.000902
178 0.000906
179 0.000906
180 0.000895
181 0.000904
182 0.000925
183 0.000936
184 0.000936
185 0.000937
186 0.000947
187 0.000951
188 0.000962
189 0.000950
190 0.000934
191 0.000909
192 0.000882
193 0.000851
194 0.000828
195 0.000800
196 0.000762
197 0.000734
198 0.000714
199 0.000712
200 0.000721
201 0.000713
202 0.000717
203 0.000724
204 0.000734
205 0.000741
206 0.000738
207 0.000719
208 0.000711
209 0.000694
210 0.000678
211 0.000685
212 0.000686
213 0.000682
214 0.000678
215 0.000705
216 0.000725
217 0.000746
218 0.000769
219 0.000789
220 0.000821
221 0.000844
222 0.000838
223 0.000815
224 0.000815
225 0.000811
226 0.000812
227 0.000820
228 0.000806
229 0.000788
230 0.000779
231 0.000776
232 0.000791
233 0.000819
234 0.000844
235 0.000856
236 0.000862
237 0.000865
238 0.000864
239 0.000851
240 0.000842
241 0.000848
242 0.000852
243 0.000855
244 0.000859
245 0.000856
246 0.000834
247 0.000807
248 0.000793
249 0.000777
250 0.000762
251 0.000756
252 0.000733
253 0.000709
254 0.000696
255 0.000689
256 0.000682
257 0.000673
258 0.000667
259 0.000679
260 0.000690
261 0.000692
262 0.000694
263 0.000696
264 0.000693
265 0.000677
266 0.000673
267 0.000672
268 0.000669
269 0.000666
270 0.000675
271 0.000682
272 0.000693
273 0.000705
274 0.000721
275 0.000717
276 0.000699
277 0.000687
278 0.000664
279 0.000628
280 0.000614
281 0.000603
282 0.000593
283 0.000583
284 0.000582
285 0.000571
286 0.000571
287 0.000576
288 0.000573
289 0.000564
290 0.000542
291 0.000526
292 0.000517
293 0.000517
294 0.000513
295 0.000512
296 0.000508
297 0.000483
298 0.000446
299 0.000430
300 0.000419
301 0.000393
302 0.000373
303 0.000369
304 0.000359
305 0.000362
306 0.000375
307 0.000379
308 0.000398
309 0.000427
310 0.000447
311 0.000462
312 0.000488
313 0.000518
314 0.000532
315 0.000527
316 0.000526
317 0.000538
318 0.000551
319 0.000554
320 0.000551
321 0.000556
322 0.000560
323 0.000553
324 0.000572
325 0.000602
326 0.000636
327 0.000657
328 0.000668
329 0.000671
330 0.000665
331 0.000666
332 0.000672
333 0.000678
334 0.000689
335 0.000712
336 0.000726
337 0.000720
338 0.000712
339 0.000716
340 0.000719
341 0.000700
342 0.000692
343 0.000697
344 0.000680
345 0.000674
346 0.000656
347 0.000631
348 0.000624
349 0.000615
350 0.000597
351 0.000583
352 0.000565
353 0.000553
354 0.000557
355 0.000568
356 0.000593
357 0.000607
358 0.000619
359 0.000613
360 0.000618
361 0.000641
362 0.000662
363 0.000662
364 0.000665
365 0.000641
366 0.000602
367 0.000566
368 0.000541
369 0.000525
370 0.000537
371 0.000537
372 0.000532
373 0.000506
374 0.000482
375 0.000467
376 0.000461
377 0.000458
378 0.000454
379 0.000439
380 0.000395
381 0.000360
382 0.000341
383 0.000324
384 0.000315
385 0.000315
386 0.000329
387 0.000343
388 0.000358
389 0.000364
390 0.000362
391 0.000370
392 0.000378
393 0.000395
394 0.000409
395 0.000406
396 0.000386
397 0.000384
398 0.000389
399 0.000402
400 0.000428
401 0.000467
402 0.000495
403 0.000517
404 0.000536
405 0.000554
406 0.000571
407 0.000587
408 0.000609
409 0.000625
410 0.000646
411 0.000657
412 0.000658
413 0.000646
414 0.000634
415 0.000628
416 0.000626
417 0.000634
418 0.000644
419 0.000649
420 0.000654
421 0.000629
422 0.000604
423 0.000588
424 0.000582
425 0.000564
426 0.000548
427 0.000532
428 0.000505
429 0.000483
430 0.000477
431 0.000473
432 0.000478
433 0.000490
434 0.000483
435 0.000475
436 0.000472
437 0.000461
438 0.000439
439 0.000429
440 0.000428
441 0.000441
442 0.000450
443 0.000461
444 0.000474
445 0.000499
446 0.000513
447 0.000509
448 0.000520
449 0.000535
450 0.000529
451 0.000522
452 0.000514
453 0.000512
454 0.000520
455 0.000522
456 0.000531
457 0.000539
458 0.000547
459 0.000548
460 0.000535
461 0.000516
462 0.000511
463 0.000507
464 0.000498
465 0.000490
466 0.000487
467 0.000479
468 0.000457
469 0.000443
470 0.000439
471 0.000433
472 0.000443
473 0.000445
474 0.000451
475 0.000465
476 0.000480
477 0.000497
478 0.000501
479 0.000503
480 0.000495
481 0.000484
482 0.000477
483 0.000477
484 0.000472
485 0.000480
486 0.000488
487 0.000493
488 0.000500
489 0.000492
490 0.000485
491 0.000491
492 0.000491
493 0.000498
494 0.000492
495 0.000504
496 0.000515
497 0.000518
498 0.000506
499 0.000503
500 0.000480
501 0.000457
502 0.000453
503 0.000436
504 0.000416
505 0.000397
506 0.000381
507 0.000369
508 0.000355
509 0.000352
510 0.000354
511 0.000357
512 0.000368
513 0.000383
514 0.000393
515 0.000397
516 0.000387
517 0.000361
518 0.000347
519 0.000334
520 0.000319
521 0.000309
522 0.000301
523 0.000291
524 0.000282
525 0.000272
526 0.000269
527 0.000270
528 0.000278
529 0.000275
530 0.000270
531 0.000258
532 0.000248
533 0.000227
534 0.000214
535 0.000198
536 0.000197
537 0.000210
538 0.000211
539 0.000219
540 0.000223
541 0.000232
542 0.000245
543 0.000258
544 0.000275
545 0.000294
546 0.000310
547 0.000318
548 0.000322
549 0.000315
550 0.000308
551 0.000310
552 0.000296
553 0.000292
554 0.000277
555 0.000257
556 0.000246
557 0.000231
558 0.000217
559 0.000206
560 0.000213
561 0.000208
562 0.000192
563 0.000180
564 0.000173
565 0.000154
566 0.000139
567 0.000131
568 0.000121
569 0.000122
570 0.000129
571 0.000134
572 0.000126
573 0.000112
574 0.000090
575 0.000072
576 0.000070
577 0.000067
578 0.000065
579 0.000081
580 0.000105
581 0.000126
582 0.000152
583 0.000173
584 0.000188
585 0.000201
586 0.000205
587 0.000194
588 0.000179
589 0.000165
590 0.000150
591 0.000138
592 0.000128
593 0.000120
594 0.000109
595 0.000100
596 0.000101
597 0.000108
598 0.000106
599 0.000100
600 0.000084
601 0.000051
602 0.000025
603 0.000007
604 -0.000016
605 -0.000031
606 -0.000037
607 -0.000042
608 -0.000046
609 -0.000052
610 -0.000061
611 -0.000077
612 -0.000098
613 -0.000110
614 -0.000118
615 -0.000134
616 -0.000147
617 -0.000169
618 -0.000180
619 -0.000190
620 -0.000188
621 -0.000188
622 -0.000187
623 -0.000177
624 -0.000176
625 -0.000175
626 -0.000172
627 -0.000171
628 -0.000181
629 -0.000191
630 -0.000202
631 -0.000208
632 -0.000196
633 -0.000183
634 -0.000176
635 -0.000171
636 -0.000156
637 -0.000142
638 -0.000130
639 -0.000127
640 -0.000141
641 -0.000146
642 -0.000147
643 -0.000145
644 -0.000145
645 -0.000138
646 -0.000136
647 -0.000137
648 -0.000125
649 -0.000109
650 -0.000095
651 -0.000077
652 -0.000054
653 -0.000038
654 -0.000019
655 -0.000019
656 -0.000027
657 -0.000037
658 -0.000051
659 -0.000078
660 -0.000095
661 -0.000101
662 -0.000112
663 -0.000112
664 -0.000104
665 -0.000093
666 -0.000086
667 -0.000086
668 -0.000098
669 -0.000102
670 -0.000100
671 -0.000100
672 -0.000104
673 -0.000106
674 -0.000105
675 -0.000097
676 -0.000085
677 -0.000077
678 -0.000067
679 -0.000054
680 -0.000039
681 -0.000026
682 -0.000018
683 0.000002
684 0.000001
685 0.000006
686 0.000010
687 0.000025
688 0.000038
689 0.000050
690 0.000065
691 0.000071
692 0.000077
693 0.000082
694 0.000094
695 0.000088
696 0.000092
697 0.000103
698 0.000104
699 0.000104
700 0.000094
701 0.000081
702 0.000067
703 0.000065
704 0.000070
705 0.000065
706 0.000059
707 0.000060
708 0.000054
709 0.000032
710 0.000023
711 0.000012
712 0.000002
713 0.000007
714 0.000001
715 -0.000017
716 -0.000038
717 -0.000053
718 -0.000054
719 -0.000042
720 -0.000021
721 -0.000015
722 -0.000012
723 -0.000007
724 -0.000010
725 -0.000015
726 -0.000012
727 -0.000008
728 -0.000001
729 0.000005
730 0.000010
731 0.000008
732 0.000022
733 0.000038
734 0.000056
735 0.000068
736 0.000089
737 0.000105
738 0.000117
739 0.000130
740 0.000131
741 0.000130
742 0.000131
743 0.000131
744 0.000134
745 0.000140
746 0.000151
747 0.000155
748 0.000169
749 0.000180
750 0.000178
751 0.000165
752 0.000157
753 0.000157
754 0.000156
755 0.000154
756 0.000151
757 0.000152
758 0.000154
759 0.000163
760 0.000162
761 0.000155
762 0.000157
763 0.000164
764 0.000157
765 0.000157
766 0.000157
767 0.000149
768 0.000140
769 0.000129
770 0.000121
771 0.000119
772 0.000121
773 0.000129
774 0.000130
775 0.000135
776 0.000143
777 0.000144
778 0.000140
779 0.000134
780 0.000129
781 0.000137
782 0.000148
783 0.000153
784 0.000154
785 0.000151
786 0.000146
787 0.000141
788 0.000141
789 0.000136
790 0.000138
791 0.000152
792 0.000159
793 0.000154
794 0.000142
795 0.000128
796 0.000120
797 0.000113
798 0.000105
799 0.000102
800 0.000091
801 0.000084
802 0.000086
803 0.000081
804 0.000076
805 0.000082
806 0.000087
807 0.000083
808 0.000076
809 0.000073
