# i correlation
1 0.002393
2 0.002238
3 0.002111
4 0.001981
5 0.001872
6 0.001790
7 0.001710
8 0.001648
9 0.001580
10 0.001521
11 0.001474
12 0.001445
13 0.001426
14 0.001404
15 0.001395
16 0.001394
17 0.001381
18 0.001360
19 0.001338
20 0.001302
21 0.001290
22 0.001297
23 0.001305
24 0.001290
25 0.001272
26 0.001246
27 0.001219
28 0.001217
29 0.001223
30 0.001227
31 0.001209
32 0.001194
33 0.001178
34 0.001181
35 0.001168
36 0.001154
37 0.001152
38 0.001142
39 0.001160
40 0.001171
41 0.001175
42 0.001177
43 0.001181
44 0.001179
45 0.001194
46 0.001228
47 0.001249
48 0.001261
49 0.001267
50 0.001265
51 0.001271
52 0.001283
53 0.001283
54 0.001275
55 0.001290
56 0.001313
57 0.001327
58 0.001331
59 0.001325
60 0.001316
61 0.001295
62 0.001271
63 0.001275
64 0.001259
65 0.001255
66 0.001226
67 0.001174
68 0.001140
69 0.001130
70 0.001119
71 0.001120
72 0.001154
73 0.001189
74 0.001221
75 0.001226
76 0.001220
77 0.001217
78 0.001221
79 0.001208
80 0.001215
81 0.001233
82 0.001217
83 0.001176
84 0.001131
85 0.001077
86 0.001026
87 0.001003
88 0.000980
89 0.000951
90 0.000915
91 0.000898
92 0.000865
93 0.000841
94 0.000826
95 0.000818
96 0.000817
97 0.000821
98 0.000817
99 0.000832
100 0.000845
101 0.000856
102 0.000873
103 0.000899
104 0.000923
105 0.000933
106 0.000924
107 0.000914
108 0.000911
109 0.000897
110 0.000892
111 0.000908
112 0.000926
113 0.000934
114 0.000930
115 0.000937
116 0.000941
117 0.000940
118 0.000935
119 0.000923
120 0.000928
121 0.000940
122 0.000930
123 0.000920
124 0.000928
125 0.000926
126 0.000928
127 0.000928
128 0.000923
129 0.000938
130 0.000964
131 0.000966
132 0.000961
133 0.000964
134 0.000960
135 0.000955
136 0.000953
137 0.000959
138 0.000964
139 0.000966
140 0.000961
141 0.000946
142 0.000926
143 0.000907
144 0.000890
145 0.000880
146 0.000869
147 0.000859
148 0.000837
149 0.000805
150 0.000769
151 0.000735
152 0.000697
153 0.000674
154 0.000672
155 0.000652
156 0.000631
157 0.000618
158 0.000604
159 0.000610
160 0.000622
161 0.000653
162 0.000679
163 0.000695
164 0.000686
165 0.000661
166 0.000640
167 0.000628
168 0.000618
169 0.000623
170 0.000620
171 0.000607
172 0.000589
173 0.000580
174 0.000583
175 0.000586
176 0.000604
177 0.000611
178 0.000632
179 0.000651
180 0.000672
181 0.000678
182 0.000691
183 0.000713
184 0.000726
185 0.000750
186 0.000761
187 0.000745
188 0.000738
189 0.000730
190 0.000722
191 0.000715
192 0.000713
193 0.000724
194 0.000725
195 0.000725
196 0.000730
197 0.000716
198 0.000717
199 0.000716
200 0.000708
201 0.000675
202 0.000644
203 0.000616
204 0.000599
205 0.000589
206 0.000580
207 0.000573
208 0.000587
209 0.000579
210 0.000568
211 0.000568
212 0.000569
213 0.000576
214 0.000588
215 0.000590
216 0.000592
217 0.000597
218 0.000594
219 0.000592
220 0.000585
221 0.000568
222 0.000545
223 0.000522
224 0.000506
225 0.000496
226 0.000473
227 0.000454
228 0.000431
229 0.000402
230 0.000376
231 0.000341
232 0.000327
233 0.000300
234 0.000286
235 0.000288
236 0.000294
237 0.000304
238 0.000325
239 0.000342
240 0.000359
241 0.000379
242 0.000388
243 0.000390
244 0.000397
245 0.000393
246 0.000386
247 0.000370
248 0.000376
249 0.000380
250 0.000386
251 0.000402
252 0.000401
253 0.000398
254 0.000391
255 0.000391
256 0.000408
257 0.000419
258 0.000417
259 0.000410
260 0.000407
261 0.000392
262 0.000383
263 0.000377
264 0.000385
265 0.000387
266 0.000406
267 0.000408
268 0.000408
269 0.000414
270 0.000408
271 0.000419
272 0.000448
273 0.000467
274 0.000484
275 0.000487
276 0.000485
277 0.000474
278 0.000465
279 0.000453
280 0.000440
281 0.000432
282 0.000419
283 0.000396
284 0.000371
285 0.000365
286 0.000346
287 0.000343
288 0.000339
289 0.000336
290 0.000343
291 0.000353
292 0.000352
293 0.000343
294 0.000324
295 0.000308
296 0.000300
297 0.000297
298 0.000285
299 0.000287
300 0.000285
301 0.000310
302 0.000314
303 0.000306
304 0.000305
305 0.000298
306 0.000282
307 0.000268
308 0.000255
309 0.000247
310 0.000240
311 0.000221
312 0.000212
313 0.000212
314 0.000205
315 0.000211
316 0.000222
317 0.000225
318 0.000239
319 0.000237
320 0.000254
321 0.000264
322 0.000278
323 0.000299
324 0.000322
325 0.000343
326 0.000366
327 0.000374
328 0.000369
329 0.000376
330 0.000378
331 0.000388
332 0.000395
333 0.000389
334 0.000365
335 0.000341
336 0.000319
337 0.000317
338 0.000325
339 0.000328
340 0.000325
341 0.000330
342 0.000312
343 0.000300
344 0.000287
345 0.000285
346 0.000288
347 0.000279
348 0.000272
349 0.000262
350 0.000260
351 0.000246
352 0.000233
353 0.000239
354 0.000254
355 0.000260
356 0.000272
357 0.000282
358 0.000261
359 0.000244
360 0.000225
361 0.000212
362 0.000203
363 0.000180
364 0.000154
365 0.000141
366 0.000117
367 0.000102
368 0.000096
369 0.000089
370 0.000089
371 0.000105
372 0.000110
373 0.000118
374 0.000128
375 0.000138
376 0.000144
377 0.000147
378 0.000169
379 0.000201
380 0.000217
381 0.000227
382 0.000234
383 0.000254
384 0.000269
385 0.000279
386 0.000288
387 0.000283
388 0.000269
389 0.000261
390 0.000255
391 0.000228
392 0.000214
393 0.000203
394 0.000200
395 0.000182
396 0.000177
397 0.000176
398 0.000175
399 0.000180
400 0.000195
401 0.000215
402 0.000255
403 0.000291
404 0.000320
405 0.000344
406 0.000358
407 0.000364
408 0.000355
409 0.000349
410 0.000340
411 0.000334
412 0.000321
413 0.000319
414 0.000309
415 0.000296
416 0.000269
417 0.000243
418 0.000233
419 0.000247
420 0.000262
421 0.000260
422 0.000265
423 0.000263
424 0.000251
425 0.000246
426 0.000253
427 0.000248
428 0.000237
429 0.000220
430 0.000212
431 0.000214
432 0.000209
433 0.000189
434 0.000184
435 0.000187
436 0.000194
437 0.000203
438 0.000206
439 0.000203
440 0.000192
441 0.000177
442 0.000170
443 0.000156
444 0.000147
445 0.000145
446 0.000131
447 0.000103
448 0.000093
449 0.000098
450 0.000097
451 0.000096
452 0.000106
453 0.000123
454 0.000143
455 0.000171
456 0.000209
457 0.000249
458 0.000270
459 0.000286
460 0.000291
461 0.000301
462 0.000318
463 0.000319
464 0.000319
465 0.000322
466 0.000325
467 0.000324
468 0.000319
469 0.000307
470 0.000301
471 0.000293
472 0.000277
473 0.000254
474 0.000245
475 0.000238
476 0.000237
477 0.000225
478 0.000219
479 0.000213
480 0.000215
481 0.000217
482 0.000211
483 0.000220
484 0.000243
485 0.000262
486 0.000286
487 0.000309
488 0.000316
489 0.000303
490 0.000279
491 0.000258
492 0.000236
493 0.000203
494 0.000181
495 0.000166
496 0.000158
497 0.000155
498 0.000145
499 0.000135
500 0.000145
501 0.000156
502 0.000154
503 0.000152
504 0.000160
505 0.000159
506 0.000144
507 0.000134
508 0.000127
509 0.000108
510 0.000106
511 0.000088
512 0.000070
513 0.000055
514 0.000049
515 0.000055
516 0.000058
517 0.000058
518 0.000062
519 0.000067
520 0.000075
521 0.000080
522 0.000088
523 0.000098
524 0.000114
525 0.000121
526 0.000132
527 0.000135
528 0.000125
529 0.000125
530 0.000131
531 0.000143
532 0.000149
533 0.000156
534 0.000153
535 0.000145
536 0.000129
537 0.000123
538 0.000114
539 0.000122
540 0.000144
541 0.000152
542 0.000154
543 0.000162
544 0.000168
545 0.000169
546 0.000168
547 0.000173
548 0.000179
549 0.000170
550 0.000164
551 0.000141
552 0.000122
553 0.000102
554 0.000077
555 0.000051
556 0.000029
557 0.000022
558 0.000015
559 0.000006
560 -0.000001
561 0.000007
562 0.000004
563 0.000011
564 0.000018
565 0.000029
566 0.000042
567 0.000050
568 0.000049
569 0.000057
570 0.000076
571 0.000087
572 0.000087
573 0.000095
574 0.000093
575 0.000088
576 0.000080
577 0.000074
578 0.000072
579 0.000070
580 0.000066
581 0.000060
582 0.000066
583 0.000069
584 0.000054
585 0.000037
586 0.000034
587 0.000039
588 0.000043
589 0.000062
590 0.000066
591 0.000060
592 0.000061
593 0.000055
594 0.000046
595 0.000051
596 0.000056
597 0.000060
598 0.000068
599 0.000081
600 0.000102
601 0.000113
602 0.000116
603 0.000119
604 0.000128
605 0.000151
606 0.000166
607 0.000178
608 0.000180
609 0.000167
610 0.000151
611 0.000139
612 0.000129
613 0.000106
614 0.000082
615 0.000053
616 0.000025
617 0.000013
618 0.000005
619 0.000004
620 0.000011
621 0.000013
622 0.000014
623 0.000025
624 0.000035
625 0.000041
626 0.000046
627 0.000041
628 0.000044
629 0.000040
630 0.000040
631 0.000032
632 0.000015
633 -0.000004
634 -0.000023
635 -0.000037
636 -0.000048
637 -0.000061
638 -0.000074
639 -0.000080
640 -0.000091
641 -0.000105
642 -0.000114
643 -0.000124
644 -0.000127
645 -0.000126
646 -0.000115
647 -0.000102
648 -0.000091
649 -0.000081
650 -0.000067
651 -0.000053
652 -0.000041
653 -0.000028
654 -0.000018
655 -0.000010
656 0.000001
657 0.000004
658 0.000009
659 0.000004
660 0.000006
661 0.000012
662 0.000019
663 0.000027
664 0.000043
665 0.000045
666 0.000050
667 0.000048
668 0.000039
669 0.000039
670 0.000051
671 0.000063
672 0.000062
673 0.000061
674 0.000059
675 0.000055
676 0.000048
677 0.000057
678 0.000059
679 0.000066
680 0.000076
681 0.000087
682 0.000094
683 0.000108
684 0.000116
685 0.000123
686 0.000139
687 0.000147
688 0.000152
689 0.000152
690 0.000143
691 0.000134
692 0.000125
693 0.000110
694 0.000104
695 0.000106
696 0.000111
697 0.000103
698 0.000094
699 0.000081
700 0.000066
701 0.000056
702 0.000045
703 0.000047
704 0.000054
705 0.000057
706 0.000061
707 0.000061
708 0.000061
709 0.000062
710 0.000064
711 0.000074
712 0.000081
713 0.000087
714 0.000091
715 0.000086
716 0.000081
717 0.000074
718 0.000064
719 0.000047
720 0.000044
721 0.000034
722 0.000024
723 0.000016
724 0.000016
725 0.000012
726 0.000017
727 0.000024
728 0.000033
729 0.000047
730 0.000052
731 0.000055
732 0.000060
733 0.000061
734 0.000051
735 0.000047
736 0.000046
737 0.000044
738 0.000052
739 0.000056
740 0.000072
741 0.000084
742 0.000094
743 0.000109
744 0.000122
745 0.000128
746 0.000134
747 0.000134
748 0.000133
749 0.000130
750 0.000125
751 0.000124
752 0.000125
753 0.000120
754 0.000117
755 0.000106
756 0.000098
757 0.000096
758 0.000097
759 0.000101
760 0.000106
761 0.000116
762 0.000114
763 0.000111
764 0.000094
765 0.000073
766 0.000067
767 0.000048
768 0.000037
769 0.000036
770 0.000029
771 0.000021
772 0.000013
773 -0.000000
774 -0.000018
775 -0.000034
776 -0.000049
777 -0.000054
778 -0.000061
779 -0.000062
780 -0.000065
781 -0.000065
782 -0.000063
783 -0.000065
784 -0.000072
785 -0.000074
786 -0.000066
787 -0.000060
788 -0.000047
789 -0.000034
790 -0.000023
791 -0.000014
792 -0.000010
793 -0.000013
794 -0.000016
795 -0.000017
796 -0.000016
797 -0.000014
798 -0.000005
799 -0.000001
800 0.000010
801 0.000017
802 0.000018
803 0.000026
804 0.000030
805 0.000038
806 0.000041
807 0.000046
808 0.000049
809 0.000048
