# i correlation
1 0.002804
2 0.002661
3 0.002529
4 0.002422
5 0.002302
6 0.002204
7 0.002125
8 0.002052
9 0.001980
10 0.001914
11 0.001852
12 0.001806
13 0.001753
14 0.001690
15 0.001614
16 0.001555
17 0.001519
18 0.001486
19 0.001435
20 0.001383
21 0.001344
22 0.001306
23 0.001270
24 0.001233
25 0.001192
26 0.001146
27 0.001101
28 0.001054
29 0.001052
30 0.001049
31 0.001046
32 0.001025
33 0.001013
34 0.001000
35 0.000989
36 0.000986
37 0.000975
38 0.000943
39 0.000925
40 0.000908
41 0.000904
42 0.000893
43 0.000894
44 0.000896
45 0.000895
46 0.000908
47 0.000932
48 0.000955
49 0.000954
50 0.000957
51 0.000938
52 0.000922
53 0.000906
54 0.000891
55 0.000886
56 0.000864
57 0.000851
58 0.000828
59 0.000817
60 0.000802
61 0.000789
62 0.000779
63 0.000775
64 0.000770
65 0.000769
66 0.000772
67 0.000769
68 0.000765
69 0.000758
70 0.000751
71 0.000758
72 0.000759
73 0.000779
74 0.000802
75 0.000827
76 0.000852
77 0.000881
78 0.000912
79 0.000933
80 0.000953
81 0.000970
82 0.000984
83 0.000999
84 0.001015
85 0.001028
86 0.001047
87 0.001067
88 0.001079
89 0.001088
90 0.001093
91 0.001104
92 0.001101
93 0.001098
94 0.001093
95 0.001095
96 0.001079
97 0.001078
98 0.001070
99 0.001057
100 0.001051
101 0.001044
102 0.001037
103 0.001023
104 0.001018
105 0.001013
106 0.001000
107 0.000990
108 0.000973
109 0.000957
110 0.000948
111 0.000949
112 0.000947
113 0.000949
114 0.000941
115 0.000942
116 0.000924
117 0.000897
118 0.000869
119 0.000853
120 0.000831
121 0.000798
122 0.000779
123 0.000781
124 0.000787
125 0.000800
126 0.000815
127 0.000827
128 0.000847
129 0.000868
130 0.000888
131 0.000916
132 0.000922
133 0.000923
134 0.000917
135 0.000918
136 0.000930
137 0.000958
138 0.000966
139 0.000967
140 0.000966
141 0.000966
142 0.000969
143 0.000964
144 0.000980
145 0.000990
146 0.000994
147 0.000985
148 0.000991
149 0.001006
150 0.001016
151 0.001008
152 0.001005
153 0.001004
154 0.001014
155 0.001013
156 0.000999
157 0.000972
158 0.000948
159 0.000934
160 0.000921
161 0.000930
162 0.000955
163 0.000974
164 0.000975
165 0.000963
166 0.000966
167 0.000973
168 0.000979
169 0.000968
170 0.000954
171 0.000924
172 0.000901
173 0.000875
174 0.000864
175 0.000855
176 0.000853
177 0.000836
178 0.000840
179 0.000851
180 0.000866
181 0.000879
182 0.000889
183 0.000906
184 0.000934
185 0.000959
186 0.000972
187 0.000960
188 0.000955
189 0.000933
190 0.000914
191 0.000888
192 0.000902
193 0.000921
194 0.000921
195 0.000911
196 0.000914
197 0.000916
198 0.000916
199 0.000912
200 0.000894
201 0.000891
202 0.000896
203 0.000907
204 0.000919
205 0.000934
206 0.000935
207 0.000936
208 0.000920
209 0.000901
210 0.000877
211 0.000877
212 0.000872
213 0.000877
214 0.000879
215 0.000881
216 0.000883
217 0.000884
218 0.000878
219 0.000872
220 0.000873
221 0.000870
222 0.000856
223 0.000856
224 0.000858
225 0.000869
226 0.000892
227 0.000909
228 0.000919
229 0.000927
230 0.000913
231 0.000905
232 0.000884
233 0.000874
234 0.000861
235 0.000850
236 0.000829
237 0.000806
238 0.000778
239 0.000753
240 0.000722
241 0.000679
242 0.000645
243 0.000622
244 0.000596
245 0.000571
246 0.000538
247 0.000513
248 0.000482
249 0.000451
250 0.000441
251 0.000429
252 0.000398
253 0.000364
254 0.000338
255 0.000305
256 0.000265
257 0.000251
258 0.000231
259 0.000230
260 0.000244
261 0.000253
262 0.000260
263 0.000257
264 0.000263
265 0.000278
266 0.000296
267 0.000312
268 0.000336
269 0.000362
270 0.000379
271 0.000396
272 0.000421
273 0.000440
274 0.000460
275 0.000469
276 0.000491
277 0.000499
278 0.000499
279 0.000511
280 0.000515
281 0.000528
282 0.000511
283 0.000512
284 0.000522
285 0.000534
286 0.000549
287 0.000565
288 0.000565
289 0.000562
290 0.000570
291 0.000590
292 0.000595
293 0.000608
294 0.000618
295 0.000619
296 0.000607
297 0.000606
298 0.000595
299 0.000586
300 0.000579
301 0.000576
302 0.000570
303 0.000565
304 0.000562
305 0.000576
306 0.000583
307 0.000596
308 0.000618
309 0.000649
310 0.000680
311 0.000697
312 0.000718
313 0.000734
314 0.000745
315 0.000750
316 0.000784
317 0.000824
318 0.000851
319 0.000859
320 0.000879
321 0.000886
322 0.000893
323 0.000881
324 0.000883
325 0.000883
326 0.000875
327 0.000867
328 0.000858
329 0.000847
330 0.000843
331 0.000831
332 0.000811
333 0.000782
334 0.000773
335 0.000743
336 0.000715
337 0.000685
338 0.000666
339 0.000648
340 0.000633
341 0.000620
342 0.000607
343 0.000588
344 0.000559
345 0.000528
346 0.000505
347 0.000486
348 0.000463
349 0.000439
350 0.000426
351 0.000411
352 0.000396
353 0.000378
354 0.000365
355 0.000347
356 0.000324
357 0.000317
358 0.000301
359 0.000290
360 0.000282
361 0.000288
362 0.000299
363 0.000311
364 0.000337
365 0.000367
366 0.000395
367 0.000422
368 0.000445
369 0.000465
370 0.000479
371 0.000485
372 0.000481
373 0.000475
374 0.000468
375 0.000472
376 0.000483
377 0.000504
378 0.000517
379 0.000533
380 0.000545
381 0.000553
382 0.000566
383 0.000568
384 0.000560
385 0.000547
386 0.000529
387 0.000515
388 0.000518
389 0.000528
390 0.000533
391 0.000533
392 0.000518
393 0.000502
394 0.000482
395 0.000469
396 0.000475
397 0.000487
398 0.000504
399 0.000515
400 0.000526
401 0.000530
402 0.000537
403 0.000544
404 0.000543
405 0.000542
406 0.000538
407 0.000528
408 0.000509
409 0.000502
410 0.000496
411 0.000488
412 0.000484
413 0.000480
414 0.000485
415 0.000470
416 0.000471
417 0.000470
418 0.000458
419 0.000448
420 0.000439
421 0.000435
422 0.000432
423 0.000426
424 0.000426
425 0.000426
426 0.000412
427 0.000405
428 0.000402
429 0.000412
430 0.000416
431 0.000406
432 0.000405
433 0.000406
434 0.000399
435 0.000398
436 0.000388
437 0.000368
438 0.000348
439 0.000325
440 0.000309
441 0.000288
442 0.000271
443 0.000261
444 0.000247
445 0.000235
446 0.000217
447 0.000216
448 0.000202
449 0.000189
450 0.000168
451 0.000157
452 0.000154
453 0.000167
454 0.000173
455 0.000191
456 0.000218
457 0.000237
458 0.000250
459 0.000262
460 0.000270
461 0.000260
462 0.000253
463 0.000240
464 0.000245
465 0.000247
466 0.000262
467 0.000262
468 0.000245
469 0.000237
470 0.000228
471 0.000229
472 0.000233
473 0.000246
474 0.000262
475 0.000271
476 0.000295
477 0.000321
478 0.000344
479 0.000365
480 0.000386
481 0.000391
482 0.000395
483 0.000396
484 0.000392
485 0.000385
486 0.000376
487 0.000360
488 0.000354
489 0.000345
490 0.000354
491 0.000351
492 0.000359
493 0.000371
494 0.000386
495 0.000406
496 0.000414
497 0.000421
498 0.000428
499 0.000434
500 0.000436
501 0.000443
502 0.000453
503 0.000467
504 0.000478
505 0.000487
506 0.000493
507 0.000491
508 0.000493
509 0.000489
510 0.000483
511 0.000471
512 0.000464
513 0.000467
514 0.000482
515 0.000482
516 0.000486
517 0.000481
518 0.000473
519 0.000468
520 0.000464
521 0.000457
522 0.000454
523 0.000448
524 0.000450
525 0.000438
526 0.000439
527 0.000438
528 0.000437
529 0.000430
530 0.000427
531 0.000433
532 0.000432
533 0.000431
534 0.000426
535 0.000423
536 0.000421
537 0.000418
538 0.000414
539 0.000398
540 0.000393
541 0.000386
542 0.000377
543 0.000366
544 0.000361
545 0.000376
546 0.000383
547 0.000391
548 0.000381
549 0.000373
550 0.000364
551 0.000363
552 0.000356
553 0.000359
554 0.000357
555 0.000363
556 0.000358
557 0.000350
558 0.000340
559 0.000331
560 0.000325
561 0.000315
562 0.000302
563 0.000295
564 0.000291
565 0.000283
566 0.000277
567 0.000276
568 0.000276
569 0.000266
570 0.000248
571 0.000235
572 0.000228
573 0.000218
574 0.000209
575 0.000192
576 0.000178
577 0.000168
578 0.000161
579 0.000150
580 0.000131
581 0.000125
582 0.000126
583 0.000116
584 0.000113
585 0.000115
586 0.000119
587 0.000109
588 0.000098
589 0.000090
590 0.000095
591 0.000097
592 0.000105
593 0.000112
594 0.000119
595 0.000123
596 0.000135
597 0.000155
598 0.000168
599 0.000172
600 0.000168
601 0.000169
602 0.000171
603 0.000187
604 0.000199
605 0.000212
606 0.000222
607 0.000227
608 0.000242
609 0.000257
610 0.000278
611 0.000302
612 0.000313
613 0.000315
614 0.000315
615 0.000328
616 0.000336
617 0.000343
618 0.000348
619 0.000350
620 0.000341
621 0.000332
622 0.000337
623 0.000345
624 0.000337
625 0.000322
626 0.000317
627 0.000317
628 0.000324
629 0.000331
630 0.000343
631 0.000347
632 0.000349
633 0.000355
634 0.000354
635 0.000350
636 0.000343
637 0.000338
638 0.000328
639 0.000324
640 0.000324
641 0.000328
642 0.000330
643 0.000327
644 0.000321
645 0.000318
646 0.000315
647 0.000316
648 0.000311
649 0.000304
650 0.000295
651 0.000293
652 0.000281
653 0.000274
654 0.000255
655 0.000233
656 0.000218
657 0.000199
658 0.000187
659 0.000190
660 0.000203
661 0.000205
662 0.000211
663 0.000210
664 0.000220
665 0.000220
666 0.000211
667 0.000207
668 0.000199
669 0.000190
670 0.000178
671 0.000170
672 0.000172
673 0.000164
674 0.000160
675 0.000146
676 0.000132
677 0.000118
678 0.000111
679 0.000100
680 0.000083
681 0.000076
682 0.000075
683 0.000075
684 0.000076
685 0.000077
686 0.000074
687 0.000077
688 0.000066
689 0.000062
690 0.000060
691 0.000066
692 0.000070
693 0.000074
694 0.000078
695 0.000086
696 0.000089
697 0.000097
698 0.000103
699 0.000105
700 0.000106
701 0.000109
702 0.000107
703 0.000100
704 0.000099
705 0.000094
706 0.000092
707 0.000097
708 0.000115
709 0.000129
710 0.000149
711 0.000159
712 0.000162
713 0.000163
714 0.000164
715 0.000159
716 0.000164
717 0.000164
718 0.000162
719 0.000164
720 0.000161
721 0.000168
722 0.000179
723 0.000188
724 0.000193
725 0.000195
726 0.000194
727 0.000190
728 0.000186
729 0.000177
730 0.000173
731 0.000173
732 0.000165
733 0.000161
734 0.000163
735 0.000160
736 0.000146
737 0.000135
738 0.000119
739 0.000101
740 0.000086
741 0.000065
742 0.000053
743 0.000043
744 0.000037
745 0.000033
746 0.000038
747 0.000039
748 0.000042
749 0.000043
750 0.000044
751 0.000043
752 0.000046
753 0.000050
754 0.000055
755 0.000053
756 0.000045
757 0.000042
758 0.000036
759 0.000035
760 0.000037
761 0.000040
762 0.000039
763 0.000035
764 0.000033
765 0.000024
766 0.000019
767 0.000020
768 0.000016
769 0.000018
770 0.000019
771 0.000030
772 0.000039
773 0.000049
774 0.000053
775 0.000053
776 0.000063
777 0.000063
778 0.000064
779 0.000073
780 0.000081
781 0.000086
782 0.000090
783 0.000090
784 0.000091
785 0.000092
786 0.000096
787 0.000102
788 0.000102
789 0.000099
790 0.000104
791 0.000107
792 0.000110
793 0.000119
794 0.000126
795 0.000129
796 0.000137
797 0.000152
798 0.000169
799 0.000182
800 0.000195
801 0.000208
802 0.000216
803 0.000226
804 0.000232
805 0.000240
806 0.000241
807 0.000239
808 0.000242
809 0.000244
