# i correlation
1 0.003507
2 0.003327
3 0.003192
4 0.003083
5 0.002973
6 0.002886
7 0.002795
8 0.002707
9 0.002639
10 0.002583
11 0.002510
12 0.002451
13 0.002386
14 0.002312
15 0.002253
16 0.002227
17 0.002207
18 0.002183
19 0.002170
20 0.002163
21 0.002142
22 0.002113
23 0.002100
24 0.002104
25 0.002111
26 0.002129
27 0.002140
28 0.002155
29 0.002169
30 0.002184
31 0.002203
32 0.002210
33 0.002203
34 0.002192
35 0.002203
36 0.002230
37 0.002247
38 0.002249
39 0.002245
40 0.002249
41 0.002244
42 0.002239
43 0.002237
44 0.002249
45 0.002232
46 0.002209
47 0.002197
48 0.002206
49 0.002193
50 0.002169
51 0.002147
52 0.002131
53 0.002136
54 0.002129
55 0.002103
56 0.002088
57 0.002065
58 0.002045
59 0.002008
60 0.001979
61 0.001949
62 0.001917
63 0.001884
64 0.001852
65 0.001809
66 0.001781
67 0.001766
68 0.001754
69 0.001759
70 0.001769
71 0.001767
72 0.001764
73 0.001768
74 0.001759
75 0.001748
76 0.001737
77 0.001751
78 0.001764
79 0.001772
80 0.001779
81 0.001769
82 0.001743
83 0.001721
84 0.001708
85 0.001711
86 0.001712
87 0.001729
88 0.001741
89 0.001778
90 0.001784
91 0.001780
92 0.001763
93 0.001753
94 0.001737
95 0.001721
96 0.001721
97 0.001719
98 0.001739
99 0.001746
100 0.001728
101 0.001705
102 0.001693
103 0.001669
104 0.001633
105 0.001593
106 0.001576
107 0.001568
108 0.001553
109 0.001537
110 0.001525
111 0.001509
112 0.001493
113 0.001489
114 0.001490
115 0.001486
116 0.001477
117 0.001469
118 0.001453
119 0.001438
120 0.001437
121 0.001429
122 0.001443
123 0.001463
124 0.001478
125 0.001476
126 0.001480
127 0.001487
128 0.001492
129 0.001491
130 0.001503
131 0.001494
132 0.001482
133 0.001491
134 0.001483
135 0.001465
136 0.001442
137 0.001419
138 0.001404
139 0.001399
140 0.001383
141 0.001357
142 0.001357
143 0.001363
144 0.001353
145 0.001346
146 0.001339
147 0.001340
148 0.001324
149 0.001311
150 0.001305
151 0.001291
152 0.001259
153 0.001229
154 0.001206
155 0.001189
156 0.001172
157 0.001143
158 0.001116
159 0.001102
160 0.001107
161 0.001113
162 0.001114
163 0.001094
164 0.001070
165 0.001058
166 0.001062
167 0.001053
168 0.001070
169 0.001098
170 0.001129
171 0.001151
172 0.001171
173 0.001174
174 0.001184
175 0.001197
176 0.001203
177 0.001213
178 0.001237
179 0.001262
180 0.001276
181 0.001261
182 0.001249
183 0.001238
184 0.001223
185 0.001200
186 0.001196
187 0.001201
188 0.001199
189 0.001195
190 0.001181
191 0.001180
192 0.001181
193 0.001166
194 0.001130
195 0.001096
196 0.001071
197 0.001067
198 0.001063
199 0.001048
200 0.001018
201 0.001011
202 0.001008
203 0.001005
204 0.000997
205 0.000986
206 0.000963
207 0.000946
208 0.000953
209 0.000963
210 0.000958
211 0.000954
212 0.000966
213 0.000986
214 0.000985
215 0.000986
216 0.000983
217 0.000990
218 0.000996
219 0.001007
220 0.001026
221 0.001020
222 0.001034
223 0.001076
224 0.001098
225 0.001105
226 0.001111
227 0.001111
228 0.001111
229 0.001119
230 0.001111
231 0.001097
232 0.001097
233 0.001089
234 0.001065
235 0.001053
236 0.001046
237 0.001031
238 0.001004
239 0.000984
240 0.000982
241 0.000996
242 0.000997
243 0.000998
244 0.000999
245 0.001007
246 0.001002
247 0.000995
248 0.000993
249 0.001004
250 0.001003
251 0.000999
252 0.000992
253 0.000995
254 0.000988
255 0.000985
256 0.000982
257 0.000978
258 0.000964
259 0.000951
260 0.000934
261 0.000930
262 0.000916
263 0.000891
264 0.000865
265 0.000849
266 0.000826
267 0.000803
268 0.000811
269 0.000828
270 0.000825
271 0.000834
272 0.000838
273 0.000844
274 0.000836
275 0.000830
276 0.000833
277 0.000841
278 0.000847
279 0.000850
280 0.000863
281 0.000877
282 0.000901
283 0.000919
284 0.000934
285 0.000952
286 0.000977
287 0.000995
288 0.000995
289 0.000994
290 0.001002
291 0.000998
292 0.000988
293 0.000989
294 0.000972
295 0.000943
296 0.000914
297 0.000896
298 0.000866
299 0.000837
300 0.000812
301 0.000810
302 0.000804
303 0.000805
304 0.000814
305 0.000827
306 0.000824
307 0.000820
308 0.000810
309 0.000802
310 0.000787
311 0.000770
312 0.000767
313 0.000768
314 0.000764
315 0.000751
316 0.000746
317 0.000746
318 0.000743
319 0.000736
320 0.000708
321 0.000707
322 0.000721
323 0.000735
324 0.000739
325 0.000749
326 0.000752
327 0.000745
328 0.000742
329 0.000749
330 0.000759
331 0.000779
332 0.000801
333 0.000817
334 0.000830
335 0.000840
336 0.000831
337 0.000807
338 0.000792
339 0.000782
340 0.000789
341 0.000799
342 0.000802
343 0.000814
344 0.000824
345 0.000820
346 0.000818
347 0.000813
348 0.000803
349 0.000809
350 0.000809
351 0.000815
352 0.000819
353 0.000807
354 0.000788
355 0.000763
356 0.000731
357 0.000710
358 0.000694
359 0.000703
360 0.000714
361 0.000721
362 0.000738
363 0.000752
364 0.000753
365 0.000756
366 0.000743
367 0.000743
368 0.000734
369 0.000725
370 0.000721
371 0.000738
372 0.000748
373 0.000740
374 0.000736
375 0.000740
376 0.000733
377 0.000719
378 0.000719
379 0.000721
380 0.000724
381 0.000729
382 0.000722
383 0.000719
384 0.000716
385 0.000720
386 0.000720
387 0.000721
388 0.000744
389 0.000750
390 0.000749
391 0.000756
392 0.000762
393 0.000752
394 0.000746
395 0.000742
396 0.000729
397 0.000709
398 0.000694
399 0.000690
400 0.000697
401 0.000699
402 0.000707
403 0.000708
404 0.000703
405 0.000698
406 0.000698
407 0.000692
408 0.000682
409 0.000667
410 0.000665
411 0.000674
412 0.000686
413 0.000680
414 0.000661
415 0.000652
416 0.000649
417 0.000640
418 0.000640
419 0.000646
420 0.000653
421 0.000671
422 0.000680
423 0.000691
424 0.000705
425 0.000724
426 0.000716
427 0.000700
428 0.000691
429 0.000691
430 0.000694
431 0.000704
432 0.000725
433 0.000740
434 0.000744
435 0.000732
436 0.000717
437 0.000703
438 0.000693
439 0.000682
440 0.000670
441 0.000651
442 0.000640
443 0.000625
444 0.000614
445 0.000593
446 0.000560
447 0.000543
448 0.000548
449 0.000557
450 0.000548
451 0.000535
452 0.000530
453 0.000519
454 0.000513
455 0.000511
456 0.000511
457 0.000505
458 0.000512
459 0.000523
460 0.000540
461 0.000553
462 0.000564
463 0.000569
464 0.000580
465 0.000593
466 0.000613
467 0.000628
468 0.000635
469 0.000646
470 0.000662
471 0.000660
472 0.000650
473 0.000655
474 0.000663
475 0.000650
476 0.000639
477 0.000634
478 0.000615
479 0.000616
480 0.000613
481 0.000600
482 0.000576
483 0.000556
484 0.000526
485 0.000510
486 0.000495
487 0.000489
488 0.000479
489 0.000473
490 0.000464
491 0.000465
492 0.000478
493 0.000493
494 0.000500
495 0.000502
496 0.000500
497 0.000499
498 0.000509
499 0.000509
500 0.000504
501 0.000495
502 0.000499
503 0.000498
504 0.000494
505 0.000492
506 0.000482
507 0.000451
508 0.000420
509 0.000398
510 0.000393
511 0.000390
512 0.000386
513 0.000385
514 0.000400
515 0.000407
516 0.000403
517 0.000396
518 0.000393
519 0.000386
520 0.000385
521 0.000390
522 0.000398
523 0.000403
524 0.000404
525 0.000413
526 0.000411
527 0.000413
528 0.000412
529 0.000413
530 0.000408
531 0.000421
532 0.000435
533 0.000447
534 0.000460
535 0.000464
536 0.000474
537 0.000480
538 0.000488
539 0.000489
540 0.000486
541 0.000493
542 0.000503
543 0.000498
544 0.000490
545 0.000477
546 0.000472
547 0.000463
548 0.000454
549 0.000441
550 0.000418
551 0.000401
552 0.000390
553 0.000376
554 0.000365
555 0.000348
556 0.000331
557 0.000310
558 0.000313
559 0.000312
560 0.000320
561 0.000321
562 0.000323
563 0.000327
564 0.000341
565 0.000353
566 0.000367
567 0.000380
568 0.000387
569 0.000388
570 0.000395
571 0.000393
572 0.000403
573 0.000416
574 0.000426
575 0.000422
576 0.000419
577 0.000422
578 0.000434
579 0.000437
580 0.000449
581 0.000459
582 0.000464
583 0.000465
584 0.000477
585 0.000479
586 0.000471
587 0.000467
588 0.000454
589 0.000446
590 0.000453
591 0.000459
592 0.000466
593 0.000469
594 0.000494
595 0.000498
596 0.000495
597 0.000494
598 0.000488
599 0.000475
600 0.000467
601 0.000444
602 0.000425
603 0.000421
604 0.000437
605 0.000443
606 0.000439
607 0.000427
608 0.000415
609 0.000411
610 0.000409
611 0.000411
612 0.000413
613 0.000419
614 0.000433
615 0.000455
616 0.000483
617 0.000514
618 0.000541
619 0.000560
620 0.000585
621 0.000607
622 0.000627
623 0.000649
624 0.000664
625 0.000674
626 0.000675
627 0.000671
628 0.000670
629 0.000666
630 0.000654
631 0.000638
632 0.000622
633 0.000609
634 0.000607
635 0.000606
636 0.000609
637 0.000601
638 0.000596
639 0.000572
640 0.000547
641 0.000525
642 0.000513
643 0.000507
644 0.000501
645 0.000501
646 0.000485
647 0.000477
648 0.000482
649 0.000485
650 0.000483
651 0.000482
652 0.000478
653 0.000484
654 0.000487
655 0.000483
656 0.000491
657 0.000511
658 0.000518
659 0.000515
660 0.000511
661 0.000512
662 0.000513
663 0.000509
664 0.000507
665 0.000517
666 0.000520
667 0.000531
668 0.000548
669 0.000564
670 0.000571
671 0.000585
672 0.000599
673 0.000609
674 0.000619
675 0.000620
676 0.000613
677 0.000615
678 0.000609
679 0.000592
680 0.000576
681 0.000569
682 0.000557
683 0.000549
684 0.000539
685 0.000532
686 0.000520
687 0.000503
688 0.000489
689 0.000475
690 0.000461
691 0.000449
692 0.000443
693 0.000449
694 0.000451
695 0.000447
696 0.000445
697 0.000459
698 0.000462
699 0.000438
700 0.000414
701 0.000390
702 0.000370
703 0.000364
704 0.000357
705 0.000355
706 0.000364
707 0.000379
708 0.000378
709 0.000376
710 0.000375
711 0.000375
712 0.000382
713 0.000390
714 0.000410
715 0.000422
716 0.000439
717 0.000457
718 0.000470
719 0.000474
720 0.000468
721 0.000465
722 0.000466
723 0.000464
724 0.000471
725 0.000472
726 0.000467
727 0.000470
728 0.000464
729 0.000449
730 0.000429
731 0.000406
732 0.000374
733 0.000345
734 0.000323
735 0.000300
736 0.000269
737 0.000244
738 0.000213
739 0.000186
740 0.000165
741 0.000153
742 0.000146
743 0.000141
744 0.000144
745 0.000150
746 0.000158
747 0.000167
748 0.000164
749 0.000148
750 0.000137
751 0.000138
752 0.000138
753 0.000137
754 0.000146
755 0.000155
756 0.000171
757 0.000190
758 0.000207
759 0.000221
760 0.000236
761 0.000251
762 0.000263
763 0.000278
764 0.000292
765 0.000306
766 0.000317
767 0.000330
768 0.000340
769 0.000338
770 0.000335
771 0.000333
772 0.000330
773 0.000322
774 0.000312
775 0.000301
776 0.000285
777 0.000270
778 0.000250
779 0.000223
780 0.000196
781 0.000176
782 0.000159
783 0.000145
784 0.000142
785 0.000139
786 0.000129
787 0.000119
788 0.000107
789 0.000098
790 0.000091
791 0.000084
792 0.000071
793 0.000062
794 0.000061
795 0.000073
796 0.000083
797 0.000096
798 0.000103
799 0.000110
800 0.000115
801 0.000126
802 0.000136
803 0.000146
804 0.000155
805 0.000166
806 0.000174
807 0.000186
808 0.000194
809 0.000194
