# i correlation
1 0.002753
2 0.002621
3 0.002497
4 0.002397
5 0.002305
6 0.002222
7 0.002133
8 0.002054
9 0.001988
10 0.001922
11 0.001858
12 0.001811
13 0.001777
14 0.001754
15 0.001740
16 0.001724
17 0.001721
18 0.001723
19 0.001718
20 0.001710
21 0.001694
22 0.001680
23 0.001667
24 0.001662
25 0.001645
26 0.001638
27 0.001639
28 0.001629
29 0.001623
30 0.001608
31 0.001598
32 0.001584
33 0.001571
34 0.001557
35 0.001555
36 0.001551
37 0.001523
38 0.001500
39 0.001459
40 0.001429
41 0.001408
42 0.001389
43 0.001369
44 0.001368
45 0.001382
46 0.001367
47 0.001369
48 0.001384
49 0.001363
50 0.001347
51 0.001322
52 0.001281
53 0.001249
54 0.001222
55 0.001178
56 0.001153
57 0.001124
58 0.001108
59 0.001095
60 0.001077
61 0.001062
62 0.001064
63 0.001059
64 0.001060
65 0.001068
66 0.001099
67 0.001119
68 0.001152
69 0.001172
70 0.001184
71 0.001184
72 0.001197
73 0.001190
74 0.001193
75 0.001193
76 0.001205
77 0.001198
78 0.001181
79 0.001158
80 0.001136
81 0.001120
82 0.001094
83 0.001089
84 0.001074
85 0.001070
86 0.001060
87 0.001044
88 0.001020
89 0.001007
90 0.000986
91 0.000981
92 0.000967
93 0.000972
94 0.000973
95 0.000976
96 0.000977
97 0.000960
98 0.000938
99 0.000925
100 0.000907
101 0.000897
102 0.000888
103 0.000880
104 0.000890
105 0.000898
106 0.000901
107 0.000911
108 0.000914
109 0.000904
110 0.000893
111 0.000888
112 0.000886
113 0.000903
114 0.000913
115 0.000910
116 0.000905
117 0.000896
118 0.000885
119 0.000871
120 0.000853
121 0.000836
122 0.000835
123 0.000814
124 0.000797
125 0.000777
126 0.000763
127 0.000754
128 0.000755
129 0.000749
130 0.000747
131 0.000749
132 0.000738
133 0.000746
134 0.000756
135 0.000772
136 0.000792
137 0.000805
138 0.000815
139 0.000835
140 0.000843
141 0.000858
142 0.000861
143 0.000866
144 0.000875
145 0.000870
146 0.000864
147 0.000838
148 0.000815
149 0.000786
150 0.000778
151 0.000765
152 0.000754
153 0.000722
154 0.000708
155 0.000702
156 0.000696
157 0.000704
158 0.000711
159 0.000712
160 0.000712
161 0.000720
162 0.000741
163 0.000767
164 0.000777
165 0.000785
166 0.000795
167 0.000799
168 0.000800
169 0.000796
170 0.000797
171 0.000792
172 0.000785
173 0.000776
174 0.000762
175 0.000756
176 0.000756
177 0.000733
178 0.000713
179 0.000713
180 0.000718
181 0.000733
182 0.000746
183 0.000768
184 0.000783
185 0.000790
186 0.000808
187 0.000829
188 0.000843
189 0.000846
190 0.000858
191 0.000851
192 0.000844
193 0.000828
194 0.000812
195 0.000789
196 0.000758
197 0.000735
198 0.000692
199 0.000667
200 0.000647
201 0.000610
202 0.000577
203 0.000552
204 0.000529
205 0.000521
206 0.000530
207 0.000539
208 0.000543
209 0.000553
210 0.000577
211 0.000599
212 0.000620
213 0.000646
214 0.000666
215 0.000668
216 0.000669
217 0.000655
218 0.000648
219 0.000650
220 0.000658
221 0.000658
222 0.000643
223 0.000610
224 0.000608
225 0.000587
226 0.000577
227 0.000560
228 0.000536
229 0.000522
230 0.000521
231 0.000521
232 0.000520
233 0.000520
234 0.000505
235 0.000502
236 0.000479
237 0.000465
238 0.000448
239 0.000433
240 0.000422
241 0.000413
242 0.000406
243 0.000408
244 0.000418
245 0.000426
246 0.000441
247 0.000458
248 0.000475
249 0.000485
250 0.000488
251 0.000496
252 0.000492
253 0.000497
254 0.000489
255 0.000489
256 0.000487
257 0.000484
258 0.000489
259 0.000505
260 0.000512
261 0.000514
262 0.000518
263 0.000518
264 0.000515
265 0.000515
266 0.000515
267 0.000504
268 0.000501
269 0.000498
270 0.000492
271 0.000473
272 0.000465
273 0.000453
274 0.000444
275 0.000450
276 0.000456
277 0.000454
278 0.000466
279 0.000477
280 0.000495
281 0.000518
282 0.000534
283 0.000550
284 0.000558
285 0.000575
286 0.000576
287 0.000569
288 0.000568
289 0.000572
290 0.000569
291 0.000577
292 0.000579
293 0.000572
294 0.000579
295 0.000585
296 0.000608
297 0.000633
298 0.000656
299 0.000678
300 0.000693
301 0.000705
302 0.000708
303 0.000693
304 0.000679
305 0.000679
306 0.000680
307 0.000691
308 0.000670
309 0.000655
310 0.000638
311 0.000617
312 0.000594
313 0.000573
314 0.000569
315 0.000566
316 0.000557
317 0.000551
318 0.000539
319 0.000527
320 0.000518
321 0.000516
322 0.000500
323 0.000500
324 0.000509
325 0.000518
326 0.000535
327 0.000560
328 0.000586
329 0.000608
330 0.000628
331 0.000644
332 0.000663
333 0.000687
334 0.000712
335 0.000725
336 0.000735
337 0.000726
338 0.000719
339 0.000707
340 0.000688
341 0.000663
342 0.000653
343 0.000644
344 0.000629
345 0.000632
346 0.000623
347 0.000616
348 0.000617
349 0.000615
350 0.000614
351 0.000616
352 0.000623
353 0.000620
354 0.000619
355 0.000625
356 0.000625
357 0.000629
358 0.000613
359 0.000604
360 0.000596
361 0.000588
362 0.000582
363 0.000577
364 0.000573
365 0.000571
366 0.000573
367 0.000561
368 0.000560
369 0.000565
370 0.000570
371 0.000568
372 0.000583
373 0.000598
374 0.000614
375 0.000625
376 0.000637
377 0.000656
378 0.000676
379 0.000686
380 0.000698
381 0.000704
382 0.000713
383 0.000734
384 0.000741
385 0.000726
386 0.000705
387 0.000697
388 0.000677
389 0.000651
390 0.000631
391 0.000600
392 0.000583
393 0.000577
394 0.000565
395 0.000560
396 0.000568
397 0.000571
398 0.000580
399 0.000574
400 0.000570
401 0.000577
402 0.000594
403 0.000612
404 0.000626
405 0.000641
406 0.000649
407 0.000660
408 0.000661
409 0.000660
410 0.000670
411 0.000688
412 0.000697
413 0.000716
414 0.000740
415 0.000750
416 0.000756
417 0.000754
418 0.000751
419 0.000749
420 0.000747
421 0.000743
422 0.000733
423 0.000722
424 0.000708
425 0.000696
426 0.000683
427 0.000671
428 0.000670
429 0.000671
430 0.000673
431 0.000670
432 0.000657
433 0.000649
434 0.000641
435 0.000621
436 0.000607
437 0.000591
438 0.000584
439 0.000571
440 0.000569
441 0.000572
442 0.000577
443 0.000586
444 0.000589
445 0.000588
446 0.000605
447 0.000599
448 0.000603
449 0.000605
450 0.000610
451 0.000620
452 0.000622
453 0.000626
454 0.000626
455 0.000616
456 0.000617
457 0.000613
458 0.000602
459 0.000598
460 0.000589
461 0.000585
462 0.000585
463 0.000579
464 0.000592
465 0.000611
466 0.000613
467 0.000612
468 0.000613
469 0.000625
470 0.000633
471 0.000636
472 0.000625
473 0.000621
474 0.000610
475 0.000611
476 0.000599
477 0.000581
478 0.000568
479 0.000566
480 0.000559
481 0.000563
482 0.000568
483 0.000570
484 0.000571
485 0.000555
486 0.000557
487 0.000560
488 0.000571
489 0.000586
490 0.000609
491 0.000629
492 0.000636
493 0.000644
494 0.000644
495 0.000634
496 0.000632
497 0.000632
498 0.000629
499 0.000624
500 0.000626
501 0.000615
502 0.000612
503 0.000598
504 0.000591
505 0.000579
506 0.000570
507 0.000567
508 0.000551
509 0.000537
510 0.000531
511 0.000530
512 0.000529
513 0.000527
514 0.000526
515 0.000528
516 0.000540
517 0.000548
518 0.000565
519 0.000575
520 0.000593
521 0.000609
522 0.000610
523 0.000616
524 0.000620
525 0.000621
526 0.000618
527 0.000610
528 0.000591
529 0.000566
530 0.000534
531 0.000517
532 0.000494
533 0.000469
534 0.000440
535 0.000418
536 0.000399
537 0.000382
538 0.000371
539 0.000358
540 0.000359
541 0.000360
542 0.000373
543 0.000374
544 0.000377
545 0.000389
546 0.000397
547 0.000412
548 0.000425
549 0.000437
550 0.000449
551 0.000453
552 0.000463
553 0.000466
554 0.000456
555 0.000452
556 0.000440
557 0.000423
558 0.000430
559 0.000442
560 0.000460
561 0.000472
562 0.000485
563 0.000478
564 0.000481
565 0.000485
566 0.000503
567 0.000521
568 0.000530
569 0.000546
570 0.000568
571 0.000575
572 0.000576
573 0.000569
574 0.000558
575 0.000551
576 0.000546
577 0.000540
578 0.000540
579 0.000540
580 0.000546
581 0.000540
582 0.000533
583 0.000528
584 0.000533
585 0.000544
586 0.000560
587 0.000581
588 0.000592
589 0.000600
590 0.000623
591 0.000629
592 0.000633
593 0.000641
594 0.000658
595 0.000673
596 0.000687
597 0.000704
598 0.000724
599 0.000736
600 0.000743
601 0.000739
602 0.000735
603 0.000734
604 0.000742
605 0.000730
606 0.000732
607 0.000715
608 0.000705
609 0.000697
610 0.000686
611 0.000676
612 0.000667
613 0.000649
614 0.000643
615 0.000632
616 0.000626
617 0.000616
618 0.000607
619 0.000593
620 0.000581
621 0.000578
622 0.000564
623 0.000543
624 0.000522
625 0.000510
626 0.000501
627 0.000496
628 0.000497
629 0.000491
630 0.000484
631 0.000478
632 0.000474
633 0.000477
634 0.000483
635 0.000485
636 0.000481
637 0.000478
638 0.000478
639 0.000471
640 0.000468
641 0.000459
642 0.000448
643 0.000431
644 0.000414
645 0.000397
646 0.000384
647 0.000372
648 0.000361
649 0.000351
650 0.000333
651 0.000317
652 0.000299
653 0.000280
654 0.000270
655 0.000258
656 0.000255
657 0.000251
658 0.000240
659 0.000235
660 0.000233
661 0.000231
662 0.000243
663 0.000258
664 0.000272
665 0.000280
666 0.000299
667 0.000302
668 0.000302
669 0.000302
670 0.000300
671 0.000291
672 0.000274
673 0.000262
674 0.000254
675 0.000254
676 0.000246
677 0.000239
678 0.000238
679 0.000235
680 0.000231
681 0.000226
682 0.000218
683 0.000220
684 0.000216
685 0.000208
686 0.000191
687 0.000178
688 0.000164
689 0.000164
690 0.000163
691 0.000162
692 0.000153
693 0.000148
694 0.000140
695 0.000136
696 0.000120
697 0.000122
698 0.000112
699 0.000106
700 0.000099
701 0.000090
702 0.000087
703 0.000082
704 0.000087
705 0.000085
706 0.000084
707 0.000081
708 0.000076
709 0.000070
710 0.000073
711 0.000084
712 0.000100
713 0.000117
714 0.000129
715 0.000134
716 0.000137
717 0.000140
718 0.000142
719 0.000133
720 0.000121
721 0.000110
722 0.000100
723 0.000083
724 0.000067
725 0.000054
726 0.000048
727 0.000043
728 0.000043
729 0.000035
730 0.000029
731 0.000034
732 0.000046
733 0.000051
734 0.000052
735 0.000053
736 0.000054
737 0.000063
738 0.000068
739 0.000079
740 0.000093
741 0.000104
742 0.000117
743 0.000123
744 0.000122
745 0.000126
746 0.000129
747 0.000133
748 0.000131
749 0.000132
750 0.000135
751 0.000126
752 0.000121
753 0.000112
754 0.000101
755 0.000093
756 0.000092
757 0.000088
758 0.000082
759 0.000080
760 0.000080
761 0.000089
762 0.000099
763 0.000096
764 0.000089
765 0.000079
766 0.000078
767 0.000077
768 0.000077
769 0.000078
770 0.000077
771 0.000076
772 0.000079
773 0.000084
774 0.000092
775 0.000093
776 0.000096
777 0.000092
778 0.000094
779 0.000099
780 0.000104
781 0.000096
782 0.000094
783 0.000088
784 0.000088
785 0.000092
786 0.000097
787 0.000091
788 0.000089
789 0.000079
790 0.000077
791 0.000077
792 0.000081
793 0.000082
794 0.000082
795 0.000081
796 0.000076
797 0.000086
798 0.000097
799 0.000105
800 0.000118
801 0.000120
802 0.000120
803 0.000119
804 0.000117
805 0.000117
806 0.000127
807 0.000136
808 0.000144
809 0.000151
