# i correlation
1 0.001998
2 0.001822
3 0.001675
4 0.001549
5 0.001421
6 0.001324
7 0.001224
8 0.001154
9 0.001104
10 0.001069
11 0.001042
12 0.001002
13 0.000969
14 0.000942
15 0.000925
16 0.000915
17 0.000911
18 0.000881
19 0.000866
20 0.000865
21 0.000853
22 0.000831
23 0.000824
24 0.000805
25 0.000789
26 0.000782
27 0.000771
28 0.000746
29 0.000738
30 0.000725
31 0.000729
32 0.000761
33 0.000783
34 0.000802
35 0.000803
36 0.000819
37 0.000833
38 0.000840
39 0.000825
40 0.000792
41 0.000755
42 0.000706
43 0.000654
44 0.000628
45 0.000620
46 0.000610
47 0.000621
48 0.000627
49 0.000622
50 0.000629
51 0.000628
52 0.000621
53 0.000619
54 0.000617
55 0.000623
56 0.000609
57 0.000603
58 0.000607
59 0.000621
60 0.000639
61 0.000668
62 0.000687
63 0.000710
64 0.000732
65 0.000761
66 0.000757
67 0.000740
68 0.000717
69 0.000702
70 0.000697
71 0.000696
72 0.000691
73 0.000690
74 0.000701
75 0.000713
76 0.000727
77 0.000721
78 0.000699
79 0.000676
80 0.000666
81 0.000653
82 0.000631
83 0.000609
84 0.000607
85 0.000624
86 0.000657
87 0.000672
88 0.000671
89 0.000674
90 0.000671
91 0.000685
92 0.000695
93 0.000706
94 0.000738
95 0.000755
96 0.000768
97 0.000792
98 0.000807
99 0.000826
100 0.000824
101 0.000816
102 0.000801
103 0.000767
104 0.000735
105 0.000712
106 0.000704
107 0.000682
108 0.000670
109 0.000668
110 0.000677
111 0.000661
112 0.000631
113 0.000612
114 0.000578
115 0.000553
116 0.000548
117 0.000518
118 0.000491
119 0.000470
120 0.000446
121 0.000426
122 0.000414
123 0.000398
124 0.000373
125 0.000357
126 0.000356
127 0.000357
128 0.000358
129 0.000361
130 0.000351
131 0.000343
132 0.000333
133 0.000348
134 0.000360
135 0.000381
136 0.000387
137 0.000387
138 0.000399
139 0.000409
140 0.000413
141 0.000422
142 0.000422
143 0.000404
144 0.000387
145 0.000389
146 0.000393
147 0.000386
148 0.000388
149 0.000392
150 0.000395
151 0.000391
152 0.000396
153 0.000371
154 0.000359
155 0.000362
156 0.000369
157 0.000379
158 0.000388
159 0.000385
160 0.000395
161 0.000412
162 0.000424
163 0.000454
164 0.000462
165 0.000461
166 0.000474
167 0.000510
168 0.000524
169 0.000526
170 0.000527
171 0.000557
172 0.000598
173 0.000606
174 0.000610
175 0.000609
176 0.000600
177 0.000588
178 0.000578
179 0.000579
180 0.000581
181 0.000567
182 0.000549
183 0.000546
184 0.000535
185 0.000520
186 0.000512
187 0.000506
188 0.000467
189 0.000439
190 0.000431
191 0.000408
192 0.000375
193 0.000371
194 0.000357
195 0.000345
196 0.000345
197 0.000348
198 0.000341
199 0.000336
200 0.000339
201 0.000329
202 0.000328
203 0.000325
204 0.000340
205 0.000360
206 0.000371
207 0.000386
208 0.000393
209 0.000383
210 0.000379
211 0.000372
212 0.000364
213 0.000373
214 0.000368
215 0.000346
216 0.000346
217 0.000346
218 0.000347
219 0.000356
220 0.000366
221 0.000364
222 0.000391
223 0.000404
224 0.000424
225 0.000423
226 0.000422
227 0.000433
228 0.000427
229 0.000423
230 0.000421
231 0.000411
232 0.000409
233 0.000407
234 0.000408
235 0.000410
236 0.000413
237 0.000404
238 0.000408
239 0.000412
240 0.000411
241 0.000409
242 0.000407
243 0.000409
244 0.000420
245 0.000423
246 0.000432
247 0.000436
248 0.000442
249 0.000432
250 0.000416
251 0.000402
252 0.000400
253 0.000373
254 0.000350
255 0.000316
256 0.000299
257 0.000293
258 0.000297
259 0.000288
260 0.000298
261 0.000311
262 0.000308
263 0.000304
264 0.000301
265 0.000313
266 0.000312
267 0.000318
268 0.000316
269 0.000318
270 0.000307
271 0.000313
272 0.000293
273 0.000277
274 0.000258
275 0.000227
276 0.000193
277 0.000174
278 0.000180
279 0.000190
280 0.000200
281 0.000222
282 0.000240
283 0.000268
284 0.000285
285 0.000289
286 0.000274
287 0.000262
288 0.000230
289 0.000207
290 0.000187
291 0.000171
292 0.000150
293 0.000131
294 0.000126
295 0.000115
296 0.000109
297 0.000100
298 0.000094
299 0.000092
300 0.000097
301 0.000094
302 0.000088
303 0.000083
304 0.000074
305 0.000083
306 0.000104
307 0.000124
308 0.000132
309 0.000142
310 0.000153
311 0.000158
312 0.000164
313 0.000185
314 0.000197
315 0.000219
316 0.000240
317 0.000246
318 0.000278
319 0.000317
320 0.000345
321 0.000374
322 0.000373
323 0.000385
324 0.000388
325 0.000389
326 0.000390
327 0.000380
328 0.000377
329 0.000386
330 0.000388
331 0.000398
332 0.000412
333 0.000425
334 0.000424
335 0.000440
336 0.000444
337 0.000446
338 0.000433
339 0.000413
340 0.000387
341 0.000367
342 0.000369
343 0.000362
344 0.000369
345 0.000393
346 0.000428
347 0.000449
348 0.000469
349 0.000469
350 0.000448
351 0.000422
352 0.000416
353 0.000400
354 0.000381
355 0.000365
356 0.000350
357 0.000352
358 0.000360
359 0.000357
360 0.000346
361 0.000327
362 0.000315
363 0.000310
364 0.000279
365 0.000279
366 0.000273
367 0.000250
368 0.000240
369 0.000247
370 0.000259
371 0.000270
372 0.000273
373 0.000271
374 0.000276
375 0.000271
376 0.000271
377 0.000259
378 0.000252
379 0.000240
380 0.000262
381 0.000269
382 0.000279
383 0.000282
384 0.000290
385 0.000303
386 0.000321
387 0.000328
388 0.000325
389 0.000309
390 0.000288
391 0.000271
392 0.000263
393 0.000256
394 0.000269
395 0.000290
396 0.000295
397 0.000294
398 0.000294
399 0.000293
400 0.000280
401 0.000268
402 0.000260
403 0.000248
404 0.000248
405 0.000254
406 0.000268
407 0.000298
408 0.000315
409 0.000336
410 0.000370
411 0.000388
412 0.000419
413 0.000454
414 0.000459
415 0.000457
416 0.000451
417 0.000434
418 0.000434
419 0.000433
420 0.000423
421 0.000416
422 0.000407
423 0.000401
424 0.000410
425 0.000422
426 0.000423
427 0.000419
428 0.000429
429 0.000441
430 0.000455
431 0.000468
432 0.000478
433 0.000484
434 0.000489
435 0.000483
436 0.000484
437 0.000469
438 0.000440
439 0.000420
440 0.000389
441 0.000372
442 0.000359
443 0.000355
444 0.000345
445 0.000350
446 0.000366
447 0.000400
448 0.000420
449 0.000419
450 0.000419
451 0.000430
452 0.000435
453 0.000410
454 0.000404
455 0.000395
456 0.000373
457 0.000364
458 0.000361
459 0.000341
460 0.000322
461 0.000304
462 0.000296
463 0.000295
464 0.000296
465 0.000300
466 0.000308
467 0.000308
468 0.000315
469 0.000296
470 0.000283
471 0.000279
472 0.000266
473 0.000253
474 0.000259
475 0.000277
476 0.000280
477 0.000272
478 0.000272
479 0.000275
480 0.000275
481 0.000290
482 0.000295
483 0.000291
484 0.000285
485 0.000279
486 0.000273
487 0.000287
488 0.000304
489 0.000303
490 0.000310
491 0.000318
492 0.000329
493 0.000335
494 0.000340
495 0.000348
496 0.000348
497 0.000338
498 0.000348
499 0.000353
500 0.000358
501 0.000359
502 0.000357
503 0.000356
504 0.000363
505 0.000382
506 0.000392
507 0.000405
508 0.000405
509 0.000412
510 0.000395
511 0.000384
512 0.000370
513 0.000368
514 0.000353
515 0.000337
516 0.000311
517 0.000288
518 0.000258
519 0.000236
520 0.000223
521 0.000222
522 0.000221
523 0.000236
524 0.000235
525 0.000238
526 0.000252
527 0.000258
528 0.000278
529 0.000295
530 0.000300
531 0.000295
532 0.000303
533 0.000310
534 0.000305
535 0.000301
536 0.000296
537 0.000283
538 0.000262
539 0.000235
540 0.000213
541 0.000210
542 0.000215
543 0.000225
544 0.000229
545 0.000257
546 0.000279
547 0.000286
548 0.000284
549 0.000282
550 0.000275
551 0.000262
552 0.000266
553 0.000273
554 0.000279
555 0.000286
556 0.000292
557 0.000303
558 0.000313
559 0.000321
560 0.000325
561 0.000340
562 0.000361
563 0.000365
564 0.000367
565 0.000367
566 0.000365
567 0.000372
568 0.000375
569 0.000371
570 0.000368
571 0.000371
572 0.000360
573 0.000354
574 0.000357
575 0.000364
576 0.000375
577 0.000380
578 0.000379
579 0.000381
580 0.000381
581 0.000397
582 0.000409
583 0.000403
584 0.000401
585 0.000410
586 0.000407
587 0.000396
588 0.000388
589 0.000384
590 0.000379
591 0.000374
592 0.000375
593 0.000380
594 0.000373
595 0.000355
596 0.000348
597 0.000343
598 0.000342
599 0.000339
600 0.000345
601 0.000342
602 0.000345
603 0.000347
604 0.000345
605 0.000332
606 0.000326
607 0.000317
608 0.000310
609 0.000312
610 0.000312
611 0.000312
612 0.000306
613 0.000299
614 0.000295
615 0.000306
616 0.000310
617 0.000316
618 0.000323
619 0.000325
620 0.000316
621 0.000307
622 0.000303
623 0.000307
624 0.000293
625 0.000270
626 0.000258
627 0.000256
628 0.000242
629 0.000245
630 0.000255
631 0.000256
632 0.000262
633 0.000258
634 0.000257
635 0.000245
636 0.000239
637 0.000233
638 0.000231
639 0.000223
640 0.000222
641 0.000223
642 0.000229
643 0.000239
644 0.000254
645 0.000252
646 0.000247
647 0.000255
648 0.000263
649 0.000276
650 0.000278
651 0.000274
652 0.000283
653 0.000288
654 0.000293
655 0.000303
656 0.000308
657 0.000313
658 0.000328
659 0.000333
660 0.000315
661 0.000308
662 0.000300
663 0.000294
664 0.000282
665 0.000273
666 0.000272
667 0.000282
668 0.000300
669 0.000310
670 0.000317
671 0.000314
672 0.000318
673 0.000316
674 0.000314
675 0.000313
676 0.000304
677 0.000302
678 0.000317
679 0.000331
680 0.000333
681 0.000347
682 0.000350
683 0.000344
684 0.000345
685 0.000346
686 0.000338
687 0.000326
688 0.000312
689 0.000291
690 0.000277
691 0.000265
692 0.000252
693 0.000233
694 0.000221
695 0.000230
696 0.000228
697 0.000220
698 0.000210
699 0.000200
700 0.000189
701 0.000183
702 0.000170
703 0.000152
704 0.000139
705 0.000128
706 0.000116
707 0.000103
708 0.000095
709 0.000090
710 0.000073
711 0.000052
712 0.000047
713 0.000046
714 0.000044
715 0.000042
716 0.000046
717 0.000053
718 0.000066
719 0.000081
720 0.000098
721 0.000101
722 0.000103
723 0.000106
724 0.000103
725 0.000104
726 0.000101
727 0.000087
728 0.000079
729 0.000078
730 0.000075
731 0.000077
732 0.000085
733 0.000107
734 0.000125
735 0.000139
736 0.000141
737 0.000133
738 0.000123
739 0.000122
740 0.000118
741 0.000111
742 0.000106
743 0.000107
744 0.000108
745 0.000113
746 0.000124
747 0.000124
748 0.000132
749 0.000145
750 0.000166
751 0.000171
752 0.000179
753 0.000191
754 0.000203
755 0.000212
756 0.000214
757 0.000221
758 0.000228
759 0.000232
760 0.000242
761 0.000248
762 0.000241
763 0.000226
764 0.000210
765 0.000201
766 0.000188
767 0.000181
768 0.000178
769 0.000174
770 0.000174
771 0.000182
772 0.000186
773 0.000186
774 0.000181
775 0.000168
776 0.000155
777 0.000141
778 0.000138
779 0.000129
780 0.000119
781 0.000113
782 0.000110
783 0.000110
784 0.000111
785 0.000113
786 0.000116
787 0.000123
788 0.000133
789 0.000148
790 0.000164
791 0.000167
792 0.000158
793 0.000153
794 0.000162
795 0.000167
796 0.000168
797 0.000169
798 0.000172
799 0.000171
800 0.000163
801 0.000152
802 0.000129
803 0.000106
804 0.000088
805 0.000069
806 0.000057
807 0.000046
808 0.000042
809 0.000040
