# i correlation
1 0.002722
2 0.002553
3 0.002405
4 0.002259
5 0.002151
6 0.002052
7 0.001946
8 0.001850
9 0.001771
10 0.001723
11 0.001692
12 0.001661
13 0.001636
14 0.001628
15 0.001608
16 0.001593
17 0.001581
18 0.001589
19 0.001590
20 0.001585
21 0.001591
22 0.001588
23 0.001576
24 0.001570
25 0.001555
26 0.001546
27 0.001536
28 0.001536
29 0.001521
30 0.001486
31 0.001478
32 0.001465
33 0.001460
34 0.001466
35 0.001471
36 0.001460
37 0.001464
38 0.001484
39 0.001506
40 0.001522
41 0.001537
42 0.001556
43 0.001546
44 0.001525
45 0.001526
46 0.001513
47 0.001515
48 0.001524
49 0.001525
50 0.001534
51 0.001543
52 0.001547
53 0.001548
54 0.001529
55 0.001511
56 0.001486
57 0.001458
58 0.001405
59 0.001349
60 0.001306
61 0.001257
62 0.001198
63 0.001153
64 0.001111
65 0.001076
66 0.001059
67 0.001066
68 0.001068
69 0.001088
70 0.001126
71 0.001168
72 0.001217
73 0.001281
74 0.001329
75 0.001340
76 0.001340
77 0.001326
78 0.001321
79 0.001328
80 0.001335
81 0.001334
82 0.001327
83 0.001288
84 0.001248
85 0.001212
86 0.001198
87 0.001190
88 0.001191
89 0.001191
90 0.001178
91 0.001172
92 0.001182
93 0.001176
94 0.001199
95 0.001217
96 0.001216
97 0.001201
98 0.001194
99 0.001165
100 0.001159
101 0.001149
102 0.001126
103 0.001102
104 0.001067
105 0.001025
106 0.000989
107 0.000970
108 0.000958
109 0.000964
110 0.000982
111 0.000993
112 0.001018
113 0.001033
114 0.001037
115 0.001034
116 0.001030
117 0.001026
118 0.001024
119 0.001016
120 0.001021
121 0.001052
122 0.001052
123 0.001064
124 0.001051
125 0.001046
126 0.001053
127 0.001057
128 0.001056
129 0.001057
130 0.001062
131 0.001076
132 0.001088
133 0.001106
134 0.001111
135 0.001115
136 0.001116
137 0.001125
138 0.001107
139 0.001092
140 0.001058
141 0.001047
142 0.001048
143 0.001046
144 0.001040
145 0.001038
146 0.001034
147 0.001020
148 0.001012
149 0.001003
150 0.000981
151 0.000947
152 0.000948
153 0.000945
154 0.000946
155 0.000950
156 0.000958
157 0.000933
158 0.000904
159 0.000876
160 0.000874
161 0.000886
162 0.000872
163 0.000865
164 0.000853
165 0.000843
166 0.000845
167 0.000855
168 0.000872
169 0.000890
170 0.000923
171 0.000950
172 0.000976
173 0.000996
174 0.001026
175 0.001026
176 0.001031
177 0.001040
178 0.001013
179 0.000976
180 0.000934
181 0.000893
182 0.000862
183 0.000844
184 0.000842
185 0.000833
186 0.000805
187 0.000783
188 0.000784
189 0.000775
190 0.000774
191 0.000765
192 0.000755
193 0.000738
194 0.000739
195 0.000741
196 0.000748
197 0.000730
198 0.000732
199 0.000742
200 0.000765
201 0.000787
202 0.000791
203 0.000791
204 0.000776
205 0.000779
206 0.000782
207 0.000777
208 0.000770
209 0.000757
210 0.000739
211 0.000739
212 0.000733
213 0.000742
214 0.000752
215 0.000765
216 0.000796
217 0.000835
218 0.000849
219 0.000854
220 0.000849
221 0.000846
222 0.000842
223 0.000859
224 0.000872
225 0.000889
226 0.000903
227 0.000890
228 0.000906
229 0.000905
230 0.000906
231 0.000908
232 0.000887
233 0.000878
234 0.000873
235 0.000863
236 0.000857
237 0.000857
238 0.000824
239 0.000790
240 0.000764
241 0.000734
242 0.000726
243 0.000722
244 0.000726
245 0.000742
246 0.000762
247 0.000775
248 0.000811
249 0.000847
250 0.000892
251 0.000924
252 0.000945
253 0.000958
254 0.000979
255 0.000994
256 0.001020
257 0.001044
258 0.001064
259 0.001090
260 0.001091
261 0.001087
262 0.001081
263 0.001062
264 0.001057
265 0.001055
266 0.001050
267 0.001037
268 0.001025
269 0.001007
270 0.000992
271 0.000974
272 0.000950
273 0.000938
274 0.000939
275 0.000950
276 0.000960
277 0.000965
278 0.000980
279 0.000976
280 0.000973
281 0.000949
282 0.000932
283 0.000921
284 0.000900
285 0.000880
286 0.000851
287 0.000854
288 0.000860
289 0.000863
290 0.000879
291 0.000885
292 0.000883
293 0.000890
294 0.000886
295 0.000888
296 0.000889
297 0.000911
298 0.000936
299 0.000953
300 0.000950
301 0.000957
302 0.000964
303 0.000985
304 0.000998
305 0.001004
306 0.001002
307 0.000984
308 0.000978
309 0.000982
310 0.000987
311 0.000995
312 0.000990
313 0.000975
314 0.000953
315 0.000932
316 0.000919
317 0.000902
318 0.000883
319 0.000859
320 0.000831
321 0.000797
322 0.000779
323 0.000755
324 0.000720
325 0.000693
326 0.000679
327 0.000681
328 0.000671
329 0.000686
330 0.000692
331 0.000701
332 0.000723
333 0.000728
334 0.000742
335 0.000754
336 0.000747
337 0.000763
338 0.000786
339 0.000800
340 0.000825
341 0.000830
342 0.000815
343 0.000800
344 0.000803
345 0.000808
346 0.000821
347 0.000819
348 0.000817
349 0.000829
350 0.000821
351 0.000831
352 0.000837
353 0.000829
354 0.000826
355 0.000808
356 0.000787
357 0.000765
358 0.000750
359 0.000730
360 0.000725
361 0.000726
362 0.000722
363 0.000722
364 0.000704
365 0.000675
366 0.000661
367 0.000660
368 0.000656
369 0.000655
370 0.000667
371 0.000667
372 0.000678
373 0.000704
374 0.000720
375 0.000723
376 0.000723
377 0.000727
378 0.000738
379 0.000767
380 0.000796
381 0.000794
382 0.000788
383 0.000770
384 0.000763
385 0.000786
386 0.000793
387 0.000804
388 0.000815
389 0.000821
390 0.000846
391 0.000872
392 0.000901
393 0.000913
394 0.000915
395 0.000902
396 0.000886
397 0.000872
398 0.000850
399 0.000834
400 0.000822
401 0.000806
402 0.000801
403 0.000792
404 0.000777
405 0.000777
406 0.000779
407 0.000761
408 0.000747
409 0.000741
410 0.000722
411 0.000723
412 0.000718
413 0.000711
414 0.000707
415 0.000689
416 0.000676
417 0.000645
418 0.000621
419 0.000599
420 0.000587
421 0.000578
422 0.000587
423 0.000600
424 0.000630
425 0.000662
426 0.000694
427 0.000731
428 0.000750
429 0.000760
430 0.000773
431 0.000785
432 0.000792
433 0.000797
434 0.000818
435 0.000833
436 0.000845
437 0.000845
438 0.000831
439 0.000807
440 0.000788
441 0.000782
442 0.000763
443 0.000751
444 0.000729
445 0.000708
446 0.000695
447 0.000690
448 0.000683
449 0.000685
450 0.000695
451 0.000708
452 0.000707
453 0.000705
454 0.000693
455 0.000681
456 0.000656
457 0.000633
458 0.000598
459 0.000585
460 0.000570
461 0.000563
462 0.000557
463 0.000540
464 0.000534
465 0.000531
466 0.000534
467 0.000541
468 0.000541
469 0.000528
470 0.000496
471 0.000477
472 0.000455
473 0.000430
474 0.000428
475 0.000427
476 0.000433
477 0.000436
478 0.000445
479 0.000466
480 0.000480
481 0.000498
482 0.000528
483 0.000564
484 0.000591
485 0.000617
486 0.000638
487 0.000652
488 0.000668
489 0.000670
490 0.000666
491 0.000651
492 0.000619
493 0.000597
494 0.000580
495 0.000549
496 0.000516
497 0.000482
498 0.000451
499 0.000428
500 0.000417
501 0.000413
502 0.000407
503 0.000394
504 0.000389
505 0.000386
506 0.000402
507 0.000408
508 0.000422
509 0.000432
510 0.000446
511 0.000447
512 0.000452
513 0.000449
514 0.000445
515 0.000440
516 0.000447
517 0.000442
518 0.000433
519 0.000426
520 0.000417
521 0.000407
522 0.000402
523 0.000414
524 0.000429
525 0.000435
526 0.000442
527 0.000441
528 0.000440
529 0.000447
530 0.000452
531 0.000444
532 0.000440
533 0.000433
534 0.000447
535 0.000466
536 0.000479
537 0.000491
538 0.000492
539 0.000494
540 0.000491
541 0.000487
542 0.000482
543 0.000466
544 0.000441
545 0.000414
546 0.000394
547 0.000371
548 0.000356
549 0.000326
550 0.000292
551 0.000271
552 0.000253
553 0.000240
554 0.000219
555 0.000215
556 0.000197
557 0.000204
558 0.000227
559 0.000236
560 0.000253
561 0.000273
562 0.000301
563 0.000329
564 0.000355
565 0.000374
566 0.000391
567 0.000392
568 0.000391
569 0.000392
570 0.000385
571 0.000368
572 0.000357
573 0.000343
574 0.000328
575 0.000305
576 0.000295
577 0.000289
578 0.000267
579 0.000251
580 0.000258
581 0.000258
582 0.000261
583 0.000257
584 0.000258
585 0.000252
586 0.000262
587 0.000264
588 0.000272
589 0.000261
590 0.000259
591 0.000253
592 0.000244
593 0.000230
594 0.000220
595 0.000202
596 0.000195
597 0.000202
598 0.000200
599 0.000195
600 0.000194
601 0.000190
602 0.000179
603 0.000173
604 0.000176
605 0.000178
606 0.000179
607 0.000192
608 0.000199
609 0.000189
610 0.000189
611 0.000195
612 0.000206
613 0.000211
614 0.000216
615 0.000231
616 0.000234
617 0.000227
618 0.000223
619 0.000214
620 0.000200
621 0.000187
622 0.000181
623 0.000168
624 0.000161
625 0.000167
626 0.000167
627 0.000173
628 0.000181
629 0.000184
630 0.000184
631 0.000177
632 0.000173
633 0.000164
634 0.000152
635 0.000140
636 0.000131
637 0.000135
638 0.000140
639 0.000159
640 0.000174
641 0.000192
642 0.000216
643 0.000236
644 0.000239
645 0.000235
646 0.000227
647 0.000221
648 0.000206
649 0.000196
650 0.000186
651 0.000181
652 0.000182
653 0.000189
654 0.000195
655 0.000208
656 0.000219
657 0.000229
658 0.000246
659 0.000255
660 0.000264
661 0.000269
662 0.000276
663 0.000283
664 0.000295
665 0.000294
666 0.000285
667 0.000285
668 0.000291
669 0.000288
670 0.000287
671 0.000281
672 0.000275
673 0.000268
674 0.000259
675 0.000247
676 0.000245
677 0.000237
678 0.000235
679 0.000234
680 0.000244
681 0.000252
682 0.000264
683 0.000286
684 0.000313
685 0.000342
686 0.000373
687 0.000388
688 0.000396
689 0.000411
690 0.000425
691 0.000422
692 0.000416
693 0.000408
694 0.000406
695 0.000418
696 0.000429
697 0.000436
698 0.000433
699 0.000428
700 0.000425
701 0.000425
702 0.000423
703 0.000421
704 0.000419
705 0.000418
706 0.000408
707 0.000414
708 0.000415
709 0.000414
710 0.000409
711 0.000414
712 0.000420
713 0.000425
714 0.000431
715 0.000435
716 0.000437
717 0.000438
718 0.000436
719 0.000440
720 0.000426
721 0.000413
722 0.000404
723 0.000392
724 0.000376
725 0.000370
726 0.000363
727 0.000357
728 0.000354
729 0.000358
730 0.000353
731 0.000350
732 0.000341
733 0.000336
734 0.000336
735 0.000329
736 0.000326
737 0.000335
738 0.000342
739 0.000344
740 0.000357
741 0.000361
742 0.000367
743 0.000376
744 0.000376
745 0.000375
746 0.000375
747 0.000373
748 0.000353
749 0.000332
750 0.000318
751 0.000307
752 0.000301
753 0.000302
754 0.000304
755 0.000305
756 0.000306
757 0.000303
758 0.000307
759 0.000306
760 0.000313
761 0.000317
762 0.000325
763 0.000327
764 0.000339
765 0.000354
766 0.000355
767 0.000352
768 0.000350
769 0.000346
770 0.000348
771 0.000350
772 0.000353
773 0.000346
774 0.000344
775 0.000340
776 0.000348
777 0.000346
778 0.000348
779 0.000350
780 0.000356
781 0.000361
782 0.000363
783 0.000356
784 0.000356
785 0.000362
786 0.000373
787 0.000371
788 0.000366
789 0.000364
790 0.000370
791 0.000373
792 0.000373
793 0.000369
794 0.000366
795 0.000370
796 0.000373
797 0.000381
798 0.000384
799 0.000384
800 0.000381
801 0.000379
802 0.000370
803 0.000364
804 0.000352
805 0.000336
806 0.000321
807 0.000315
808 0.000309
809 0.000296
