# i correlation
1 0.001763
2 0.001592
3 0.001445
4 0.001325
5 0.001227
6 0.001153
7 0.001116
8 0.001086
9 0.001062
10 0.001025
11 0.000998
12 0.000974
13 0.000961
14 0.000940
15 0.000921
16 0.000918
17 0.000913
18 0.000907
19 0.000914
20 0.000912
21 0.000908
22 0.000893
23 0.000876
24 0.000861
25 0.000845
26 0.000834
27 0.000831
28 0.000833
29 0.000824
30 0.000813
31 0.000800
32 0.000787
33 0.000765
34 0.000738
35 0.000704
36 0.000682
37 0.000655
38 0.000641
39 0.000624
40 0.000605
41 0.000604
42 0.000607
43 0.000620
44 0.000620
45 0.000611
46 0.000606
47 0.000593
48 0.000589
49 0.000589
50 0.000576
51 0.000580
52 0.000589
53 0.000580
54 0.000584
55 0.000584
56 0.000569
57 0.000571
58 0.000567
59 0.000583
60 0.000592
61 0.000589
62 0.000582
63 0.000583
64 0.000572
65 0.000577
66 0.000573
67 0.000575
68 0.000591
69 0.000600
70 0.000596
71 0.000578
72 0.000564
73 0.000532
74 0.000518
75 0.000505
76 0.000517
77 0.000519
78 0.000525
79 0.000523
80 0.000508
81 0.000507
82 0.000500
83 0.000488
84 0.000492
85 0.000506
86 0.000509
87 0.000520
88 0.000536
89 0.000552
90 0.000563
91 0.000567
92 0.000574
93 0.000583
94 0.000582
95 0.000587
96 0.000598
97 0.000606
98 0.000613
99 0.000630
100 0.000637
101 0.000632
102 0.000645
103 0.000659
104 0.000675
105 0.000671
106 0.000682
107 0.000687
108 0.000686
109 0.000654
110 0.000623
111 0.000601
112 0.000606
113 0.000613
114 0.000616
115 0.000624
116 0.000625
117 0.000624
118 0.000622
119 0.000612
120 0.000604
121 0.000600
122 0.000599
123 0.000589
124 0.000577
125 0.000557
126 0.000537
127 0.000531
128 0.000531
129 0.000543
130 0.000555
131 0.000576
132 0.000579
133 0.000591
134 0.000589
135 0.000571
136 0.000546
137 0.000525
138 0.000494
139 0.000465
140 0.000444
141 0.000441
142 0.000447
143 0.000446
144 0.000455
145 0.000464
146 0.000468
147 0.000471
148 0.000463
149 0.000460
150 0.000453
151 0.000468
152 0.000475
153 0.000455
154 0.000447
155 0.000435
156 0.000414
157 0.000390
158 0.000376
159 0.000384
160 0.000391
161 0.000404
162 0.000410
163 0.000412
164 0.000424
165 0.000440
166 0.000441
167 0.000451
168 0.000462
169 0.000471
170 0.000469
171 0.000454
172 0.000426
173 0.000415
174 0.000412
175 0.000411
176 0.000412
177 0.000410
178 0.000414
179 0.000406
180 0.000404
181 0.000410
182 0.000413
183 0.000417
184 0.000425
185 0.000451
186 0.000454
187 0.000463
188 0.000473
189 0.000466
190 0.000455
191 0.000445
192 0.000442
193 0.000447
194 0.000453
195 0.000441
196 0.000442
197 0.000439
198 0.000441
199 0.000422
200 0.000413
201 0.000411
202 0.000413
203 0.000428
204 0.000449
205 0.000465
206 0.000475
207 0.000473
208 0.000455
209 0.000434
210 0.000404
211 0.000400
212 0.000402
213 0.000407
214 0.000420
215 0.000421
216 0.000419
217 0.000403
218 0.000384
219 0.000373
220 0.000384
221 0.000384
222 0.000382
223 0.000378
224 0.000367
225 0.000354
226 0.000339
227 0.000319
228 0.000308
229 0.000307
230 0.000314
231 0.000307
232 0.000292
233 0.000301
234 0.000312
235 0.000312
236 0.000327
237 0.000352
238 0.000341
239 0.000341
240 0.000330
241 0.000317
242 0.000300
243 0.000292
244 0.000285
245 0.000290
246 0.000300
247 0.000305
248 0.000307
249 0.000295
250 0.000298
251 0.000304
252 0.000314
253 0.000317
254 0.000318
255 0.000325
256 0.000312
257 0.000290
258 0.000286
259 0.000291
260 0.000288
261 0.000291
262 0.000286
263 0.000299
264 0.000319
265 0.000331
266 0.000341
267 0.000333
268 0.000321
269 0.000307
270 0.000286
271 0.000271
272 0.000291
273 0.000314
274 0.000324
275 0.000340
276 0.000351
277 0.000374
278 0.000383
279 0.000388
280 0.000381
281 0.000381
282 0.000384
283 0.000392
284 0.000393
285 0.000399
286 0.000397
287 0.000380
288 0.000359
289 0.000345
290 0.000327
291 0.000312
292 0.000313
293 0.000338
294 0.000365
295 0.000380
296 0.000400
297 0.000416
298 0.000425
299 0.000421
300 0.000425
301 0.000434
302 0.000439
303 0.000433
304 0.000415
305 0.000393
306 0.000391
307 0.000401
308 0.000406
309 0.000411
310 0.000409
311 0.000403
312 0.000396
313 0.000396
314 0.000402
315 0.000415
316 0.000424
317 0.000405
318 0.000407
319 0.000406
320 0.000409
321 0.000405
322 0.000397
323 0.000380
324 0.000380
325 0.000391
326 0.000401
327 0.000411
328 0.000411
329 0.000410
330 0.000404
331 0.000386
332 0.000375
333 0.000351
334 0.000327
335 0.000320
336 0.000316
337 0.000319
338 0.000318
339 0.000307
340 0.000308
341 0.000306
342 0.000309
343 0.000319
344 0.000321
345 0.000333
346 0.000326
347 0.000333
348 0.000337
349 0.000343
350 0.000341
351 0.000327
352 0.000324
353 0.000319
354 0.000316
355 0.000308
356 0.000308
357 0.000295
358 0.000283
359 0.000259
360 0.000244
361 0.000222
362 0.000209
363 0.000208
364 0.000205
365 0.000219
366 0.000247
367 0.000279
368 0.000303
369 0.000316
370 0.000318
371 0.000320
372 0.000320
373 0.000309
374 0.000304
375 0.000312
376 0.000323
377 0.000319
378 0.000315
379 0.000330
380 0.000322
381 0.000321
382 0.000313
383 0.000305
384 0.000278
385 0.000266
386 0.000255
387 0.000245
388 0.000251
389 0.000254
390 0.000247
391 0.000244
392 0.000250
393 0.000235
394 0.000226
395 0.000224
396 0.000245
397 0.000266
398 0.000280
399 0.000295
400 0.000299
401 0.000296
402 0.000286
403 0.000278
404 0.000275
405 0.000258
406 0.000253
407 0.000259
408 0.000266
409 0.000273
410 0.000277
411 0.000281
412 0.000275
413 0.000260
414 0.000242
415 0.000228
416 0.000213
417 0.000203
418 0.000196
419 0.000193
420 0.000187
421 0.000172
422 0.000166
423 0.000159
424 0.000174
425 0.000186
426 0.000205
427 0.000227
428 0.000241
429 0.000243
430 0.000234
431 0.000242
432 0.000254
433 0.000263
434 0.000288
435 0.000300
436 0.000298
437 0.000305
438 0.000297
439 0.000286
440 0.000279
441 0.000271
442 0.000263
443 0.000266
444 0.000259
445 0.000256
446 0.000249
447 0.000236
448 0.000243
449 0.000237
450 0.000228
451 0.000225
452 0.000217
453 0.000212
454 0.000199
455 0.000197
456 0.000189
457 0.000193
458 0.000186
459 0.000193
460 0.000208
461 0.000220
462 0.000230
463 0.000242
464 0.000244
465 0.000240
466 0.000231
467 0.000233
468 0.000235
469 0.000229
470 0.000235
471 0.000247
472 0.000249
473 0.000248
474 0.000237
475 0.000234
476 0.000238
477 0.000225
478 0.000205
479 0.000195
480 0.000194
481 0.000189
482 0.000182
483 0.000178
484 0.000174
485 0.000179
486 0.000165
487 0.000146
488 0.000124
489 0.000120
490 0.000105
491 0.000101
492 0.000097
493 0.000090
494 0.000090
495 0.000092
496 0.000102
497 0.000112
498 0.000097
499 0.000087
500 0.000090
501 0.000099
502 0.000107
503 0.000119
504 0.000118
505 0.000109
506 0.000104
507 0.000094
508 0.000068
509 0.000048
510 0.000028
511 0.000015
512 0.000021
513 0.000023
514 0.000035
515 0.000041
516 0.000055
517 0.000060
518 0.000065
519 0.000070
520 0.000077
521 0.000066
522 0.000058
523 0.000054
524 0.000045
525 0.000039
526 0.000029
527 0.000019
528 0.000007
529 0.000007
530 0.000024
531 0.000044
532 0.000050
533 0.000069
534 0.000076
535 0.000083
536 0.000086
537 0.000070
538 0.000056
539 0.000048
540 0.000052
541 0.000049
542 0.000032
543 0.000017
544 0.000003
545 -0.000011
546 -0.000021
547 -0.000025
548 -0.000026
549 -0.000012
550 0.000003
551 0.000016
552 0.000030
553 0.000036
554 0.000041
555 0.000044
556 0.000048
557 0.000041
558 0.000026
559 0.000025
560 0.000026
561 0.000048
562 0.000063
563 0.000079
564 0.000072
565 0.000052
566 0.000040
567 0.000036
568 0.000049
569 0.000056
570 0.000065
571 0.000087
572 0.000103
573 0.000113
574 0.000124
575 0.000139
576 0.000142
577 0.000142
578 0.000142
579 0.000162
580 0.000181
581 0.000196
582 0.000209
583 0.000213
584 0.000210
585 0.000196
586 0.000168
587 0.000144
588 0.000127
589 0.000103
590 0.000086
591 0.000066
592 0.000057
593 0.000061
594 0.000072
595 0.000082
596 0.000088
597 0.000096
598 0.000089
599 0.000086
600 0.000075
601 0.000072
602 0.000066
603 0.000066
604 0.000075
605 0.000092
606 0.000093
607 0.000080
608 0.000072
609 0.000073
610 0.000065
611 0.000058
612 0.000055
613 0.000051
614 0.000052
615 0.000047
616 0.000048
617 0.000042
618 0.000041
619 0.000037
620 0.000034
621 0.000026
622 0.000035
623 0.000034
624 0.000038
625 0.000046
626 0.000055
627 0.000061
628 0.000065
629 0.000072
630 0.000075
631 0.000089
632 0.000088
633 0.000103
634 0.000105
635 0.000101
636 0.000095
637 0.000100
638 0.000118
639 0.000129
640 0.000136
641 0.000148
642 0.000147
643 0.000146
644 0.000143
645 0.000146
646 0.000149
647 0.000155
648 0.000169
649 0.000177
650 0.000183
651 0.000184
652 0.000190
653 0.000190
654 0.000187
655 0.000186
656 0.000181
657 0.000175
658 0.000162
659 0.000150
660 0.000136
661 0.000123
662 0.000118
663 0.000110
664 0.000118
665 0.000116
666 0.000108
667 0.000097
668 0.000102
669 0.000111
670 0.000124
671 0.000139
672 0.000148
673 0.000152
674 0.000156
675 0.000161
676 0.000161
677 0.000163
678 0.000155
679 0.000147
680 0.000139
681 0.000136
682 0.000144
683 0.000153
684 0.000164
685 0.000172
686 0.000177
687 0.000176
688 0.000173
689 0.000165
690 0.000172
691 0.000164
692 0.000161
693 0.000155
694 0.000146
695 0.000130
696 0.000128
697 0.000129
698 0.000129
699 0.000122
700 0.000118
701 0.000132
702 0.000133
703 0.000134
704 0.000132
705 0.000139
706 0.000141
707 0.000145
708 0.000145
709 0.000143
710 0.000140
711 0.000133
712 0.000127
713 0.000116
714 0.000105
715 0.000098
716 0.000099
717 0.000102
718 0.000104
719 0.000100
720 0.000094
721 0.000091
722 0.000089
723 0.000089
724 0.000096
725 0.000100
726 0.000110
727 0.000118
728 0.000132
729 0.000136
730 0.000132
731 0.000123
732 0.000115
733 0.000106
734 0.000097
735 0.000092
736 0.000093
737 0.000096
738 0.000098
739 0.000105
740 0.000115
741 0.000127
742 0.000128
743 0.000119
744 0.000114
745 0.000114
746 0.000120
747 0.000122
748 0.000140
749 0.000166
750 0.000185
751 0.000198
752 0.000204
753 0.000212
754 0.000207
755 0.000209
756 0.000211
757 0.000212
758 0.000208
759 0.000203
760 0.000205
761 0.000199
762 0.000200
763 0.000190
764 0.000183
765 0.000174
766 0.000166
767 0.000166
768 0.000169
769 0.000176
770 0.000183
771 0.000179
772 0.000170
773 0.000154
774 0.000143
775 0.000141
776 0.000151
777 0.000160
778 0.000168
779 0.000179
780 0.000183
781 0.000179
782 0.000168
783 0.000160
784 0.000152
785 0.000144
786 0.000139
787 0.000131
788 0.000123
789 0.000120
790 0.000118
791 0.000110
792 0.000102
793 0.000095
794 0.000093
795 0.000092
796 0.000089
797 0.000087
798 0.000083
799 0.000080
800 0.000078
801 0.000077
802 0.000074
803 0.000075
804 0.000076
805 0.000078
806 0.000075
807 0.000066
808 0.000067
809 0.000066
