# i correlation
1 0.002502
2 0.002294
3 0.002116
4 0.001950
5 0.001788
6 0.001668
7 0.001568
8 0.001502
9 0.001461
10 0.001435
11 0.001417
12 0.001395
13 0.001363
14 0.001334
15 0.001323
16 0.001342
17 0.001343
18 0.001312
19 0.001308
20 0.001308
21 0.001321
22 0.001311
23 0.001304
24 0.001291
25 0.001254
26 0.001233
27 0.001225
28 0.001203
29 0.001204
30 0.001186
31 0.001186
32 0.001187
33 0.001195
34 0.001188
35 0.001189
36 0.001211
37 0.001209
38 0.001207
39 0.001200
40 0.001194
41 0.001170
42 0.001153
43 0.001154
44 0.001149
45 0.001138
46 0.001105
47 0.001076
48 0.001054
49 0.000995
50 0.000953
51 0.000948
52 0.000971
53 0.000994
54 0.001019
55 0.001047
56 0.001083
57 0.001119
58 0.001147
59 0.001166
60 0.001178
61 0.001160
62 0.001154
63 0.001146
64 0.001130
65 0.001117
66 0.001108
67 0.001090
68 0.001104
69 0.001120
70 0.001112
71 0.001113
72 0.001109
73 0.001074
74 0.001044
75 0.001016
76 0.000990
77 0.000949
78 0.000929
79 0.000920
80 0.000918
81 0.000918
82 0.000895
83 0.000854
84 0.000828
85 0.000822
86 0.000800
87 0.000804
88 0.000815
89 0.000838
90 0.000852
91 0.000856
92 0.000868
93 0.000884
94 0.000885
95 0.000910
96 0.000918
97 0.000931
98 0.000944
99 0.000963
100 0.000985
101 0.000989
102 0.000975
103 0.000966
104 0.000972
105 0.000986
106 0.000992
107 0.000998
108 0.001003
109 0.001010
110 0.001015
111 0.001028
112 0.001015
113 0.000992
114 0.000952
115 0.000903
116 0.000879
117 0.000853
118 0.000830
119 0.000822
120 0.000829
121 0.000858
122 0.000881
123 0.000923
124 0.000942
125 0.000931
126 0.000922
127 0.000939
128 0.000944
129 0.000947
130 0.000918
131 0.000900
132 0.000905
133 0.000913
134 0.000912
135 0.000928
136 0.000923
137 0.000913
138 0.000929
139 0.000931
140 0.000937
141 0.000921
142 0.000896
143 0.000880
144 0.000869
145 0.000852
146 0.000820
147 0.000794
148 0.000779
149 0.000770
150 0.000767
151 0.000762
152 0.000767
153 0.000767
154 0.000777
155 0.000771
156 0.000769
157 0.000767
158 0.000748
159 0.000744
160 0.000736
161 0.000728
162 0.000732
163 0.000721
164 0.000724
165 0.000743
166 0.000770
167 0.000795
168 0.000840
169 0.000873
170 0.000866
171 0.000852
172 0.000819
173 0.000791
174 0.000775
175 0.000795
176 0.000830
177 0.000854
178 0.000867
179 0.000898
180 0.000921
181 0.000925
182 0.000912
183 0.000907
184 0.000890
185 0.000871
186 0.000863
187 0.000847
188 0.000832
189 0.000812
190 0.000795
191 0.000771
192 0.000765
193 0.000771
194 0.000754
195 0.000764
196 0.000768
197 0.000778
198 0.000791
199 0.000793
200 0.000797
201 0.000798
202 0.000803
203 0.000806
204 0.000798
205 0.000803
206 0.000793
207 0.000772
208 0.000759
209 0.000764
210 0.000761
211 0.000768
212 0.000784
213 0.000812
214 0.000836
215 0.000844
216 0.000852
217 0.000844
218 0.000820
219 0.000793
220 0.000773
221 0.000747
222 0.000741
223 0.000717
224 0.000696
225 0.000665
226 0.000631
227 0.000605
228 0.000592
229 0.000566
230 0.000540
231 0.000507
232 0.000489
233 0.000489
234 0.000496
235 0.000500
236 0.000514
237 0.000531
238 0.000557
239 0.000582
240 0.000599
241 0.000602
242 0.000587
243 0.000585
244 0.000580
245 0.000574
246 0.000560
247 0.000562
248 0.000545
249 0.000543
250 0.000551
251 0.000567
252 0.000562
253 0.000553
254 0.000535
255 0.000520
256 0.000494
257 0.000476
258 0.000456
259 0.000437
260 0.000439
261 0.000467
262 0.000479
263 0.000479
264 0.000478
265 0.000489
266 0.000493
267 0.000498
268 0.000492
269 0.000485
270 0.000476
271 0.000480
272 0.000485
273 0.000503
274 0.000518
275 0.000535
276 0.000537
277 0.000552
278 0.000554
279 0.000539
280 0.000528
281 0.000529
282 0.000527
283 0.000526
284 0.000538
285 0.000545
286 0.000546
287 0.000548
288 0.000560
289 0.000564
290 0.000571
291 0.000574
292 0.000573
293 0.000557
294 0.000541
295 0.000530
296 0.000523
297 0.000525
298 0.000529
299 0.000509
300 0.000499
301 0.000491
302 0.000491
303 0.000496
304 0.000510
305 0.000510
306 0.000507
307 0.000516
308 0.000530
309 0.000556
310 0.000574
311 0.000577
312 0.000573
313 0.000575
314 0.000576
315 0.000575
316 0.000574
317 0.000572
318 0.000563
319 0.000568
320 0.000573
321 0.000581
322 0.000574
323 0.000564
324 0.000548
325 0.000546
326 0.000530
327 0.000513
328 0.000483
329 0.000461
330 0.000438
331 0.000431
332 0.000425
333 0.000439
334 0.000460
335 0.000478
336 0.000502
337 0.000520
338 0.000526
339 0.000513
340 0.000517
341 0.000520
342 0.000531
343 0.000543
344 0.000570
345 0.000596
346 0.000623
347 0.000647
348 0.000656
349 0.000655
350 0.000644
351 0.000633
352 0.000628
353 0.000629
354 0.000640
355 0.000644
356 0.000651
357 0.000657
358 0.000653
359 0.000632
360 0.000633
361 0.000631
362 0.000626
363 0.000619
364 0.000606
365 0.000597
366 0.000593
367 0.000572
368 0.000553
369 0.000535
370 0.000518
371 0.000504
372 0.000494
373 0.000508
374 0.000526
375 0.000532
376 0.000540
377 0.000545
378 0.000556
379 0.000563
380 0.000554
381 0.000546
382 0.000567
383 0.000568
384 0.000565
385 0.000562
386 0.000527
387 0.000483
388 0.000464
389 0.000449
390 0.000447
391 0.000435
392 0.000425
393 0.000419
394 0.000413
395 0.000413
396 0.000407
397 0.000402
398 0.000420
399 0.000430
400 0.000430
401 0.000440
402 0.000445
403 0.000430
404 0.000417
405 0.000422
406 0.000433
407 0.000431
408 0.000418
409 0.000414
410 0.000391
411 0.000374
412 0.000371
413 0.000375
414 0.000374
415 0.000383
416 0.000393
417 0.000404
418 0.000404
419 0.000400
420 0.000404
421 0.000391
422 0.000383
423 0.000379
424 0.000352
425 0.000322
426 0.000305
427 0.000290
428 0.000279
429 0.000276
430 0.000265
431 0.000258
432 0.000237
433 0.000230
434 0.000215
435 0.000193
436 0.000174
437 0.000141
438 0.000109
439 0.000090
440 0.000064
441 0.000052
442 0.000059
443 0.000075
444 0.000096
445 0.000124
446 0.000145
447 0.000147
448 0.000149
449 0.000143
450 0.000148
451 0.000158
452 0.000171
453 0.000191
454 0.000217
455 0.000231
456 0.000242
457 0.000247
458 0.000242
459 0.000227
460 0.000212
461 0.000191
462 0.000163
463 0.000153
464 0.000147
465 0.000142
466 0.000145
467 0.000172
468 0.000188
469 0.000190
470 0.000191
471 0.000204
472 0.000207
473 0.000209
474 0.000205
475 0.000201
476 0.000188
477 0.000190
478 0.000180
479 0.000174
480 0.000165
481 0.000157
482 0.000137
483 0.000148
484 0.000169
485 0.000191
486 0.000207
487 0.000242
488 0.000274
489 0.000308
490 0.000322
491 0.000329
492 0.000315
493 0.000304
494 0.000285
495 0.000274
496 0.000262
497 0.000243
498 0.000227
499 0.000213
500 0.000210
501 0.000217
502 0.000237
503 0.000241
504 0.000259
505 0.000278
506 0.000273
507 0.000258
508 0.000249
509 0.000228
510 0.000220
511 0.000229
512 0.000243
513 0.000265
514 0.000296
515 0.000318
516 0.000336
517 0.000353
518 0.000362
519 0.000357
520 0.000344
521 0.000316
522 0.000309
523 0.000289
524 0.000274
525 0.000260
526 0.000242
527 0.000211
528 0.000191
529 0.000179
530 0.000164
531 0.000161
532 0.000148
533 0.000140
534 0.000144
535 0.000148
536 0.000159
537 0.000165
538 0.000162
539 0.000168
540 0.000160
541 0.000149
542 0.000150
543 0.000146
544 0.000144
545 0.000146
546 0.000138
547 0.000136
548 0.000127
549 0.000113
550 0.000100
551 0.000096
552 0.000098
553 0.000109
554 0.000106
555 0.000115
556 0.000129
557 0.000140
558 0.000176
559 0.000203
560 0.000221
561 0.000223
562 0.000218
563 0.000208
564 0.000194
565 0.000175
566 0.000156
567 0.000146
568 0.000158
569 0.000167
570 0.000169
571 0.000168
572 0.000166
573 0.000146
574 0.000138
575 0.000129
576 0.000134
577 0.000150
578 0.000174
579 0.000191
580 0.000204
581 0.000211
582 0.000216
583 0.000205
584 0.000199
585 0.000190
586 0.000162
587 0.000140
588 0.000126
589 0.000105
590 0.000081
591 0.000064
592 0.000050
593 0.000038
594 0.000034
595 0.000042
596 0.000055
597 0.000058
598 0.000071
599 0.000079
600 0.000086
601 0.000084
602 0.000072
603 0.000051
604 0.000036
605 0.000014
606 -0.000003
607 -0.000004
608 -0.000001
609 -0.000013
610 -0.000012
611 -0.000001
612 0.000016
613 0.000035
614 0.000061
615 0.000075
616 0.000097
617 0.000111
618 0.000119
619 0.000115
620 0.000106
621 0.000094
622 0.000084
623 0.000090
624 0.000100
625 0.000107
626 0.000116
627 0.000124
628 0.000128
629 0.000152
630 0.000156
631 0.000159
632 0.000158
633 0.000148
634 0.000142
635 0.000141
636 0.000145
637 0.000155
638 0.000166
639 0.000181
640 0.000214
641 0.000229
642 0.000234
643 0.000249
644 0.000256
645 0.000255
646 0.000253
647 0.000239
648 0.000219
649 0.000197
650 0.000185
651 0.000165
652 0.000151
653 0.000143
654 0.000129
655 0.000108
656 0.000104
657 0.000104
658 0.000110
659 0.000112
660 0.000113
661 0.000112
662 0.000101
663 0.000092
664 0.000083
665 0.000075
666 0.000074
667 0.000088
668 0.000104
669 0.000131
670 0.000157
671 0.000180
672 0.000201
673 0.000225
674 0.000248
675 0.000242
676 0.000239
677 0.000226
678 0.000199
679 0.000184
680 0.000179
681 0.000173
682 0.000182
683 0.000200
684 0.000207
685 0.000220
686 0.000225
687 0.000216
688 0.000208
689 0.000201
690 0.000200
691 0.000199
692 0.000203
693 0.000202
694 0.000200
695 0.000196
696 0.000188
697 0.000188
698 0.000191
699 0.000179
700 0.000176
701 0.000180
702 0.000175
703 0.000185
704 0.000191
705 0.000204
706 0.000222
707 0.000240
708 0.000248
709 0.000256
710 0.000261
711 0.000252
712 0.000239
713 0.000226
714 0.000214
715 0.000192
716 0.000168
717 0.000150
718 0.000142
719 0.000144
720 0.000146
721 0.000145
722 0.000145
723 0.000142
724 0.000148
725 0.000145
726 0.000136
727 0.000133
728 0.000138
729 0.000138
730 0.000148
731 0.000157
732 0.000164
733 0.000159
734 0.000162
735 0.000158
736 0.000159
737 0.000156
738 0.000152
739 0.000157
740 0.000164
741 0.000166
742 0.000170
743 0.000176
744 0.000165
745 0.000159
746 0.000153
747 0.000145
748 0.000140
749 0.000142
750 0.000142
751 0.000140
752 0.000138
753 0.000141
754 0.000145
755 0.000153
756 0.000167
757 0.000183
758 0.000202
759 0.000205
760 0.000195
761 0.000182
762 0.000162
763 0.000147
764 0.000149
765 0.000137
766 0.000137
767 0.000150
768 0.000155
769 0.000153
770 0.000151
771 0.000144
772 0.000136
773 0.000132
774 0.000125
775 0.000125
776 0.000118
777 0.000115
778 0.000108
779 0.000109
780 0.000109
781 0.000106
782 0.000107
783 0.000109
784 0.000097
785 0.000086
786 0.000074
787 0.000054
788 0.000034
789 0.000011
790 -0.000010
791 -0.000028
792 -0.000052
793 -0.000068
794 -0.000072
795 -0.000072
796 -0.000062
797 -0.000048
798 -0.000039
799 -0.000033
800 -0.000020
801 -0.000016
802 -0.000011
803 -0.000005
804 -0.000005
805 -0.000006
806 -0.000004
807 -0.000004
808 -0.000010
809 -0.000013
