# i correlation
1 0.002480
2 0.002320
3 0.002174
4 0.002053
5 0.001943
6 0.001835
7 0.001760
8 0.001693
9 0.001635
10 0.001603
11 0.001578
12 0.001552
13 0.001539
14 0.001514
15 0.001499
16 0.001472
17 0.001442
18 0.001399
19 0.001365
20 0.001334
21 0.001305
22 0.001273
23 0.001234
24 0.001209
25 0.001186
26 0.001152
27 0.001137
28 0.001104
29 0.001070
30 0.001052
31 0.001062
32 0.001050
33 0.001009
34 0.000967
35 0.000957
36 0.000969
37 0.000996
38 0.001026
39 0.001055
40 0.001062
41 0.001063
42 0.001059
43 0.001038
44 0.001027
45 0.000999
46 0.000985
47 0.000945
48 0.000898
49 0.000865
50 0.000856
51 0.000849
52 0.000857
53 0.000847
54 0.000841
55 0.000825
56 0.000812
57 0.000830
58 0.000860
59 0.000907
60 0.000930
61 0.000949
62 0.000971
63 0.000981
64 0.000973
65 0.000968
66 0.000966
67 0.000969
68 0.000983
69 0.001013
70 0.001013
71 0.000996
72 0.000982
73 0.000984
74 0.000992
75 0.000993
76 0.000989
77 0.000984
78 0.000976
79 0.000970
80 0.000974
81 0.000995
82 0.001025
83 0.001057
84 0.001087
85 0.001110
86 0.001129
87 0.001120
88 0.001091
89 0.001078
90 0.001063
91 0.001053
92 0.001028
93 0.001007
94 0.001010
95 0.000998
96 0.001005
97 0.001004
98 0.001009
99 0.001006
100 0.000992
101 0.000990
102 0.000992
103 0.000984
104 0.000983
105 0.000987
106 0.001000
107 0.001003
108 0.001001
109 0.000990
110 0.000971
111 0.000955
112 0.000954
113 0.000946
114 0.000947
115 0.000934
116 0.000932
117 0.000913
118 0.000896
119 0.000880
120 0.000881
121 0.000890
122 0.000906
123 0.000912
124 0.000911
125 0.000904
126 0.000898
127 0.000897
128 0.000885
129 0.000884
130 0.000882
131 0.000872
132 0.000866
133 0.000859
134 0.000858
135 0.000866
136 0.000868
137 0.000877
138 0.000882
139 0.000870
140 0.000864
141 0.000857
142 0.000861
143 0.000880
144 0.000873
145 0.000876
146 0.000859
147 0.000844
148 0.000831
149 0.000805
150 0.000780
151 0.000752
152 0.000726
153 0.000727
154 0.000736
155 0.000739
156 0.000747
157 0.000746
158 0.000754
159 0.000756
160 0.000773
161 0.000781
162 0.000796
163 0.000786
164 0.000777
165 0.000749
166 0.000738
167 0.000725
168 0.000712
169 0.000703
170 0.000706
171 0.000707
172 0.000699
173 0.000703
174 0.000700
175 0.000709
176 0.000708
177 0.000702
178 0.000692
179 0.000693
180 0.000700
181 0.000700
182 0.000706
183 0.000700
184 0.000702
185 0.000702
186 0.000701
187 0.000696
188 0.000671
189 0.000670
190 0.000671
191 0.000673
192 0.000681
193 0.000688
194 0.000698
195 0.000709
196 0.000720
197 0.000728
198 0.000733
199 0.000749
200 0.000764
201 0.000790
202 0.000793
203 0.000791
204 0.000784
205 0.000791
206 0.000791
207 0.000784
208 0.000778
209 0.000768
210 0.000759
211 0.000759
212 0.000766
213 0.000764
214 0.000771
215 0.000757
216 0.000760
217 0.000750
218 0.000747
219 0.000736
220 0.000725
221 0.000723
222 0.000727
223 0.000739
224 0.000754
225 0.000780
226 0.000794
227 0.000796
228 0.000784
229 0.000791
230 0.000783
231 0.000785
232 0.000775
233 0.000762
234 0.000729
235 0.000690
236 0.000667
237 0.000642
238 0.000626
239 0.000627
240 0.000618
241 0.000618
242 0.000613
243 0.000616
244 0.000623
245 0.000611
246 0.000589
247 0.000554
248 0.000518
249 0.000498
250 0.000479
251 0.000461
252 0.000455
253 0.000462
254 0.000480
255 0.000499
256 0.000522
257 0.000547
258 0.000568
259 0.000571
260 0.000579
261 0.000559
262 0.000554
263 0.000543
264 0.000543
265 0.000537
266 0.000525
267 0.000519
268 0.000514
269 0.000513
270 0.000521
271 0.000527
272 0.000524
273 0.000516
274 0.000499
275 0.000494
276 0.000494
277 0.000497
278 0.000493
279 0.000493
280 0.000489
281 0.000498
282 0.000492
283 0.000505
284 0.000534
285 0.000561
286 0.000578
287 0.000593
288 0.000602
289 0.000600
290 0.000592
291 0.000593
292 0.000594
293 0.000589
294 0.000579
295 0.000584
296 0.000598
297 0.000612
298 0.000630
299 0.000644
300 0.000659
301 0.000666
302 0.000675
303 0.000689
304 0.000709
305 0.000732
306 0.000740
307 0.000739
308 0.000750
309 0.000756
310 0.000760
311 0.000754
312 0.000740
313 0.000725
314 0.000709
315 0.000690
316 0.000668
317 0.000650
318 0.000634
319 0.000630
320 0.000626
321 0.000603
322 0.000588
323 0.000603
324 0.000612
325 0.000618
326 0.000614
327 0.000612
328 0.000604
329 0.000578
330 0.000554
331 0.000531
332 0.000485
333 0.000446
334 0.000399
335 0.000365
336 0.000344
337 0.000330
338 0.000330
339 0.000328
340 0.000330
341 0.000344
342 0.000343
343 0.000339
344 0.000321
345 0.000309
346 0.000310
347 0.000303
348 0.000292
349 0.000277
350 0.000274
351 0.000275
352 0.000266
353 0.000251
354 0.000239
355 0.000235
356 0.000221
357 0.000213
358 0.000212
359 0.000205
360 0.000195
361 0.000199
362 0.000209
363 0.000230
364 0.000236
365 0.000254
366 0.000276
367 0.000308
368 0.000325
369 0.000339
370 0.000358
371 0.000375
372 0.000394
373 0.000407
374 0.000416
375 0.000408
376 0.000385
377 0.000362
378 0.000342
379 0.000328
380 0.000316
381 0.000298
382 0.000297
383 0.000298
384 0.000295
385 0.000315
386 0.000326
387 0.000346
388 0.000356
389 0.000381
390 0.000392
391 0.000391
392 0.000391
393 0.000398
394 0.000392
395 0.000381
396 0.000371
397 0.000352
398 0.000336
399 0.000325
400 0.000328
401 0.000337
402 0.000346
403 0.000342
404 0.000338
405 0.000333
406 0.000334
407 0.000320
408 0.000303
409 0.000293
410 0.000302
411 0.000313
412 0.000329
413 0.000349
414 0.000360
415 0.000359
416 0.000361
417 0.000358
418 0.000342
419 0.000311
420 0.000275
421 0.000248
422 0.000221
423 0.000198
424 0.000191
425 0.000203
426 0.000234
427 0.000261
428 0.000276
429 0.000285
430 0.000299
431 0.000302
432 0.000309
433 0.000308
434 0.000305
435 0.000312
436 0.000312
437 0.000310
438 0.000292
439 0.000283
440 0.000275
441 0.000277
442 0.000279
443 0.000275
444 0.000274
445 0.000268
446 0.000245
447 0.000228
448 0.000217
449 0.000205
450 0.000194
451 0.000178
452 0.000176
453 0.000162
454 0.000162
455 0.000167
456 0.000168
457 0.000173
458 0.000177
459 0.000166
460 0.000135
461 0.000116
462 0.000113
463 0.000114
464 0.000101
465 0.000095
466 0.000083
467 0.000078
468 0.000081
469 0.000091
470 0.000095
471 0.000106
472 0.000118
473 0.000127
474 0.000122
475 0.000110
476 0.000118
477 0.000105
478 0.000091
479 0.000073
480 0.000059
481 0.000048
482 0.000033
483 0.000030
484 0.000028
485 0.000032
486 0.000044
487 0.000068
488 0.000093
489 0.000113
490 0.000116
491 0.000107
492 0.000085
493 0.000077
494 0.000077
495 0.000094
496 0.000105
497 0.000115
498 0.000137
499 0.000152
500 0.000179
501 0.000205
502 0.000221
503 0.000238
504 0.000254
505 0.000258
506 0.000250
507 0.000238
508 0.000241
509 0.000252
510 0.000257
511 0.000271
512 0.000292
513 0.000315
514 0.000337
515 0.000365
516 0.000390
517 0.000410
518 0.000414
519 0.000407
520 0.000401
521 0.000375
522 0.000360
523 0.000343
524 0.000323
525 0.000323
526 0.000316
527 0.000311
528 0.000312
529 0.000303
530 0.000315
531 0.000327
532 0.000344
533 0.000365
534 0.000372
535 0.000378
536 0.000379
537 0.000386
538 0.000389
539 0.000399
540 0.000399
541 0.000405
542 0.000390
543 0.000375
544 0.000353
545 0.000322
546 0.000286
547 0.000276
548 0.000270
549 0.000275
550 0.000277
551 0.000265
552 0.000252
553 0.000242
554 0.000239
555 0.000235
556 0.000232
557 0.000233
558 0.000225
559 0.000212
560 0.000196
561 0.000168
562 0.000148
563 0.000137
564 0.000142
565 0.000130
566 0.000118
567 0.000110
568 0.000107
569 0.000113
570 0.000127
571 0.000142
572 0.000163
573 0.000168
574 0.000172
575 0.000181
576 0.000181
577 0.000187
578 0.000188
579 0.000198
580 0.000199
581 0.000209
582 0.000212
583 0.000200
584 0.000188
585 0.000185
586 0.000185
587 0.000177
588 0.000161
589 0.000153
590 0.000149
591 0.000147
592 0.000147
593 0.000137
594 0.000133
595 0.000130
596 0.000126
597 0.000121
598 0.000117
599 0.000117
600 0.000124
601 0.000128
602 0.000140
603 0.000144
604 0.000132
605 0.000118
606 0.000119
607 0.000120
608 0.000131
609 0.000133
610 0.000139
611 0.000155
612 0.000168
613 0.000166
614 0.000161
615 0.000149
616 0.000142
617 0.000143
618 0.000151
619 0.000153
620 0.000138
621 0.000136
622 0.000136
623 0.000147
624 0.000152
625 0.000150
626 0.000142
627 0.000137
628 0.000135
629 0.000133
630 0.000133
631 0.000145
632 0.000151
633 0.000158
634 0.000158
635 0.000149
636 0.000136
637 0.000122
638 0.000115
639 0.000120
640 0.000120
641 0.000112
642 0.000107
643 0.000113
644 0.000116
645 0.000112
646 0.000109
647 0.000110
648 0.000109
649 0.000120
650 0.000129
651 0.000141
652 0.000141
653 0.000133
654 0.000124
655 0.000122
656 0.000127
657 0.000123
658 0.000117
659 0.000113
660 0.000114
661 0.000101
662 0.000087
663 0.000080
664 0.000063
665 0.000042
666 0.000029
667 0.000011
668 -0.000002
669 -0.000011
670 -0.000004
671 0.000006
672 0.000005
673 0.000004
674 -0.000001
675 0.000009
676 0.000015
677 0.000022
678 0.000028
679 0.000021
680 0.000019
681 0.000013
682 0.000004
683 -0.000006
684 -0.000011
685 -0.000017
686 -0.000026
687 -0.000021
688 -0.000014
689 -0.000006
690 0.000006
691 0.000021
692 0.000040
693 0.000050
694 0.000059
695 0.000068
696 0.000080
697 0.000097
698 0.000117
699 0.000122
700 0.000124
701 0.000130
702 0.000143
703 0.000142
704 0.000122
705 0.000104
706 0.000082
707 0.000054
708 0.000029
709 0.000019
710 0.000004
711 -0.000006
712 -0.000005
713 0.000004
714 0.000024
715 0.000038
716 0.000056
717 0.000067
718 0.000068
719 0.000064
720 0.000065
721 0.000052
722 0.000035
723 0.000013
724 -0.000005
725 -0.000026
726 -0.000043
727 -0.000051
728 -0.000053
729 -0.000042
730 -0.000029
731 -0.000014
732 -0.000003
733 0.000012
734 0.000027
735 0.000044
736 0.000058
737 0.000070
738 0.000076
739 0.000085
740 0.000098
741 0.000104
742 0.000110
743 0.000110
744 0.000105
745 0.000095
746 0.000086
747 0.000082
748 0.000069
749 0.000053
750 0.000038
751 0.000017
752 0.000002
753 -0.000001
754 -0.000006
755 -0.000004
756 0.000005
757 0.000012
758 0.000014
759 0.000015
760 0.000010
761 0.000013
762 0.000003
763 -0.000004
764 -0.000003
765 -0.000009
766 -0.000020
767 -0.000027
768 -0.000031
769 -0.000041
770 -0.000058
771 -0.000070
772 -0.000074
773 -0.000074
774 -0.000067
775 -0.000064
776 -0.000058
777 -0.000054
778 -0.000042
779 -0.000036
780 -0.000039
781 -0.000039
782 -0.000036
783 -0.000036
784 -0.000043
785 -0.000044
786 -0.000042
787 -0.000041
788 -0.000041
789 -0.000044
790 -0.000053
791 -0.000066
792 -0.000076
793 -0.000080
794 -0.000095
795 -0.000100
796 -0.000111
797 -0.000111
798 -0.000107
799 -0.000100
800 -0.000088
801 -0.000073
802 -0.000064
803 -0.000048
804 -0.000031
805 -0.000020
806 -0.000014
807 -0.000013
808 -0.000015
809 -0.000015
